neutron_powder_diffraction_0212
R_wp: 4.209
Temperature (K): 1074.000
Counts: 83811.00
Wavelength (Ã…): 2.52098
COMMENTS
Test file for demonstrating the .xyy file format in Reel1.0
END OF HEADER
   tth       Y_obs     Y_calc      Y_res    Background    Phase_1_Nuc    Phase_1_Mag    Phase_2_Nuc    Phase_2_Mag
  9.970    577.000    573.703      3.297    573.018    573.633    573.018    573.088    573.018
 10.070    561.777    573.743    -11.966    573.003    573.673    573.003    573.073    573.003
 10.170    538.219    573.788    -35.569    572.983    573.717    572.983    573.054    572.983
 10.270    611.000    573.853     37.147    572.959    573.782    572.959    573.030    572.959
 10.370    616.000    573.912     42.088    572.930    573.841    572.930    573.001    572.930
 10.470    570.000    573.979     -3.979    572.897    573.907    572.897    572.969    572.897
 10.570    619.026    574.061     44.965    572.860    573.987    572.860    572.933    572.860
 10.670    601.909    574.160     27.750    572.818    574.085    572.818    572.892    572.818
 10.770    590.000    574.283     15.717    572.772    574.208    572.772    572.847    572.772
 10.870    595.738    574.440     21.299    572.722    574.364    572.722    572.797    572.722
 10.970    547.884    574.642    -26.758    572.668    574.566    572.668    572.743    572.668
 11.070    596.000    574.906     21.094    572.610    574.830    572.610    572.685    572.610
 11.170    600.000    575.258     24.742    572.548    575.181    572.548    572.623    572.548
 11.270    585.428    575.736      9.692    572.481    575.659    572.481    572.557    572.481
 11.370    595.000    576.406     18.594    572.411    576.328    572.411    572.487    572.411
 11.470    607.000    577.414     29.586    572.337    577.335    572.337    572.413    572.337
 11.570    575.853    579.163     -3.309    572.259    579.082    572.259    572.335    572.259
 11.670    607.000    582.795     24.205    572.177    582.712    572.177    572.254    572.177
 11.770    667.000    590.958     76.042    572.091    590.870    572.091    572.168    572.091
 11.870    639.000    607.910     31.090    572.001    607.812    572.001    572.079    572.001
 11.970    644.000    636.941      7.059    571.908    636.827    571.908    571.986    571.908
 12.070    634.483    674.297    -39.814    571.811    674.162    571.811    571.890    571.811
 12.170    714.000    703.653     10.347    571.710    703.501    571.710    571.789    571.710
 12.270    698.404    704.511     -6.106    571.606    704.358    571.606    571.685    571.606
 12.370    610.000    676.003    -66.003    571.498    675.865    571.498    571.578    571.498
 12.470    629.000    638.272     -9.272    571.387    638.155    571.387    571.467    571.387
 12.570    602.000    608.374     -6.374    571.272    608.273    571.272    571.353    571.272
 12.670    572.000    590.633    -18.633    571.154    590.542    571.154    571.235    571.154
 12.770    564.000    581.933    -17.933    571.033    581.846    571.033    571.114    571.033
 12.870    551.806    577.954    -26.147    570.908    577.868    570.908    570.989    570.908
 12.970    544.000    575.946    -31.946    570.779    575.862    570.779    570.861    570.779
 13.070    575.000    574.712      0.288    570.648    574.628    570.648    570.730    570.648
 13.170    579.000    573.827      5.173    570.513    573.742    570.513    570.596    570.513
 13.270    559.134    573.139    -14.005    570.375    573.055    570.375    570.458    570.375
 13.370    533.000    572.581    -39.581    570.234    572.496    570.234    570.317    570.234
 13.470    573.000    572.112      0.888    570.090    572.027    570.090    570.174    570.090
 13.570    529.000    571.708    -42.708    569.942    571.623    569.942    570.027    569.942
 13.670    542.101    571.352    -29.251    569.792    571.266    569.792    569.877    569.792
 13.770    538.843    571.030    -32.187    569.638    570.944    569.638    569.724    569.638
 13.870    527.000    570.735    -43.735    569.482    570.648    569.482    569.568    569.482
 13.970    560.141    570.465    -10.324    569.323    570.373    569.323    569.414    569.323
 14.070    606.546    570.207     36.339    569.160    570.113    569.160    569.254    569.160
 14.170    575.641    569.959      5.681    568.995    569.864    568.995    569.090    568.995
 14.270    578.190    569.720      8.470    568.827    569.625    568.827    568.922    568.827
 14.370    541.000    569.489    -28.489    568.657    569.393    568.657    568.752    568.657
 14.470    566.466    569.262     -2.796    568.483    569.166    568.483    568.579    568.483
 14.570    564.000    569.040     -5.040    568.307    568.943    568.307    568.403    568.307
 14.670    575.382    568.821      6.561    568.128    568.723    568.128    568.225    568.128
 14.770    576.000    568.604      7.396    567.946    568.506    567.946    568.044    567.946
 14.870    534.000    568.388    -34.388    567.762    568.290    567.762    567.860    567.762
 14.970    544.010    568.177    -24.167    567.576    568.078    567.576    567.674    567.576
 15.070    520.000    567.965    -47.965    567.386    567.865    567.386    567.485    567.386
 15.170    573.000    567.751      5.249    567.194    567.651    567.194    567.294    567.194
 15.270    539.000    567.537    -28.537    567.000    567.437    567.000    567.100    567.000
 15.370    606.898    567.323     39.575    566.804    567.222    566.804    566.904    566.804
 15.470    566.000    567.108     -1.108    566.604    567.007    566.604    566.706    566.604
 15.570    551.348    566.893    -15.545    566.403    566.791    566.403    566.505    566.403
 15.670    564.000    566.677     -2.677    566.199    566.574    566.199    566.302    566.199
 15.770    531.481    566.459    -34.979    565.993    566.356    565.993    566.096    565.993
 15.870    608.000    566.241     41.759    565.785    566.137    565.785    565.888    565.785
 15.970    559.000    566.021     -7.021    565.574    565.917    565.574    565.678    565.574
 16.070    536.514    565.801    -29.287    565.362    565.696    565.362    565.466    565.362
 16.170    547.000    565.578    -18.578    565.147    565.473    565.147    565.252    565.147
 16.270    560.000    565.355     -5.355    564.930    565.249    564.930    565.036    564.930
 16.370    539.000    565.130    -26.130    564.710    565.023    564.710    564.817    564.710
 16.470    508.000    564.904    -56.904    564.489    564.796    564.489    564.596    564.489
 16.570    564.000    564.676     -0.676    564.266    564.568    564.266    564.374    564.266
 16.670    530.000    564.447    -34.447    564.041    564.338    564.041    564.149    564.041
 16.770    556.000    564.217     -8.217    563.813    564.108    563.813    563.923    563.813
 16.870    611.368    563.987     47.381    563.584    563.877    563.584    563.694    563.584
 16.970    542.000    563.754    -21.754    563.353    563.643    563.353    563.464    563.353
 17.070    596.063    563.519     32.544    563.120    563.407    563.120    563.232    563.120
 17.170    569.000    563.282      5.718    562.886    563.170    562.886    562.998    562.886
 17.270    605.725    563.045     42.681    562.649    562.932    562.649    562.762    562.649
 17.370    561.432    562.805     -1.373    562.411    562.692    562.411    562.524    562.411
 17.470    588.000    562.565     25.435    562.170    562.451    562.170    562.285    562.170
 17.570    565.763    562.323      3.440    561.929    562.208    561.929    562.044    561.929
 17.670    590.000    562.082     27.918    561.685    561.966    561.685    561.801    561.685
 17.770    591.315    561.838     29.476    561.440    561.722    561.440    561.556    561.440
 17.870    564.000    561.592      2.408    561.193    561.475    561.193    561.311    561.193
 17.970    555.000    561.345     -6.345    560.945    561.227    560.945    561.063    560.945
 18.070    533.000    561.096    -28.096    560.695    560.978    560.695    560.814    560.695
 18.170    549.000    560.847    -11.847    560.443    560.727    560.443    560.563    560.443
 18.270    586.682    560.596     26.086    560.190    560.475    560.190    560.311    560.190
 18.370    554.000    560.343     -6.343    559.936    560.222    559.936    560.057    559.936
 18.470    535.243    560.090    -24.847    559.680    559.968    559.680    559.802    559.680
 18.570    577.000    559.835     17.165    559.423    559.712    559.423    559.546    559.423
 18.670    553.000    559.580     -6.580    559.164    559.456    559.164    559.288    559.164
 18.770    579.536    559.323     20.212    558.904    559.198    558.904    559.029    558.904
 18.870    574.648    559.065     15.582    558.642    558.939    558.642    558.769    558.642
 18.970    552.000    558.807     -6.807    558.380    558.679    558.380    558.507    558.380
 19.070    551.989    558.549     -6.560    558.116    558.419    558.116    558.246    558.116
 19.170    563.000    558.290      4.710    557.850    558.157    557.850    557.983    557.850
 19.270    593.902    558.028     35.874    557.584    557.894    557.584    557.718    557.584
 19.370    603.000    557.767     45.233    557.316    557.632    557.316    557.451    557.316
 19.470    542.000    557.505    -15.505    557.048    557.369    557.048    557.183    557.048
 19.570    551.000    557.241     -6.241    556.778    557.104    556.778    556.915    556.778
 19.670    562.451    556.976      5.474    556.507    556.838    556.507    556.645    556.507
 19.770    545.000    556.711    -11.711    556.234    556.571    556.234    556.374    556.234
 19.870    529.000    556.444    -27.444    555.961    556.304    555.961    556.102    555.961
 19.970    524.000    556.177    -32.177    555.687    556.036    555.687    555.829    555.687
 20.070    573.000    555.910     17.090    555.412    555.767    555.412    555.555    555.412
 20.170    512.000    555.642    -43.642    555.135    555.498    555.135    555.280    555.135
 20.270    587.000    555.375     31.625    554.858    555.229    554.858    555.004    554.858
 20.370    577.000    555.119     21.881    554.580    554.972    554.580    554.727    554.580
 20.470    573.515    554.860     18.655    554.301    554.711    554.301    554.449    554.301
 20.570    512.000    554.591    -42.591    554.021    554.441    554.021    554.171    554.021
 20.670    557.000    554.321      2.679    553.741    554.170    553.741    553.892    553.741
 20.770    539.000    554.051    -15.051    553.459    553.899    553.459    553.612    553.459
 20.870    534.000    553.782    -19.782    553.177    553.628    553.177    553.331    553.177
 20.970    575.000    553.512     21.488    552.894    553.356    552.894    553.049    552.894
 21.070    579.980    553.242     26.739    552.610    553.085    552.610    552.767    552.610
 21.170    575.000    552.972     22.028    552.325    552.813    552.325    552.484    552.325
 21.270    588.533    552.703     35.830    552.040    552.542    552.040    552.201    552.040
 21.370    532.450    552.434    -19.984    551.754    552.272    551.754    551.916    551.754
 21.470    525.000    552.165    -27.165    551.467    552.002    551.467    551.631    551.467
 21.570    528.000    551.898    -23.898    551.180    551.732    551.180    551.346    551.180
 21.670    563.000    551.631     11.369    550.892    551.463    550.892    551.060    550.892
 21.770    543.000    551.365     -8.365    550.604    551.196    550.604    550.774    550.604
 21.870    596.000    551.101     44.899    550.315    550.929    550.315    550.487    550.315
 21.970    595.000    550.838     44.162    550.026    550.664    550.026    550.199    550.026
 22.070    527.504    550.576    -23.072    549.736    550.401    549.736    549.911    549.736
 22.170    601.000    550.317     50.683    549.445    550.139    549.445    549.623    549.445
 22.270    538.000    550.061    -12.061    549.154    549.881    549.154    549.335    549.154
 22.370    514.519    549.815    -35.296    548.863    549.633    548.863    549.046    548.863
 22.470    537.000    549.645    -12.645    548.571    549.460    548.571    548.756    548.571
 22.570    589.840    549.422     40.419    548.279    549.234    548.279    548.466    548.279
 22.670    499.000    549.202    -50.202    547.986    549.013    547.986    548.177    547.986
 22.770    530.000    548.994    -18.994    547.693    548.802    547.693    547.886    547.693
 22.870    511.243    548.776    -37.533    547.400    548.581    547.400    547.596    547.400
 22.970    553.000    548.606      4.394    547.107    548.408    547.107    547.305    547.107
 23.070    546.000    548.418     -2.418    546.813    548.217    546.813    547.014    546.813
 23.170    512.425    548.227    -35.801    546.519    548.022    546.519    546.724    546.519
 23.270    568.000    548.051     19.949    546.225    547.844    546.225    546.432    546.225
 23.370    553.778    547.898      5.880    545.930    547.688    545.930    546.141    545.930
 23.470    555.269    547.773      7.495    545.635    547.559    545.635    545.850    545.635
 23.570    533.000    547.686    -14.686    545.340    547.468    545.340    545.559    545.340
 23.670    585.000    547.648     37.352    545.045    547.427    545.045    545.268    545.045
 23.770    572.000    547.680     24.320    544.750    547.455    544.750    544.977    544.750
 23.870    558.793    547.810     10.983    544.455    547.581    544.455    544.685    544.455
 23.970    526.000    548.092    -22.092    544.159    547.859    544.159    544.394    544.159
 24.070    566.341    548.656     17.686    543.864    548.419    543.864    544.104    543.864
 24.170    502.650    549.861    -47.212    543.568    549.620    543.568    543.813    543.568
 24.270    564.000    552.665     11.335    543.273    552.422    543.273    543.522    543.273
 24.370    535.646    559.077    -23.431    542.977    558.833    542.977    543.232    542.977
 24.470    585.243    571.871     13.372    542.682    571.631    542.682    542.942    542.682
 24.570    624.808    592.418     32.391    542.386    592.186    542.386    542.652    542.386
 24.670    619.359    616.707      2.652    542.091    616.487    542.091    542.363    542.091
 24.770    616.000    632.794    -16.794    541.795    632.580    541.795    542.074    541.795
 24.870    592.000    628.849    -36.849    541.500    628.625    541.500    541.786    541.500
 24.970    560.145    608.089    -47.943    541.204    607.843    541.204    541.498    541.204
 25.070    586.000    583.787      2.213    540.909    583.516    540.909    541.211    540.909
 25.170    600.642    565.233     35.408    540.614    564.940    540.614    540.924    540.614
 25.270    531.000    554.267    -23.267    540.319    553.957    540.319    540.638    540.319
 25.370    534.856    548.765    -13.909    540.025    548.442    540.025    540.353    540.025
 25.470    577.377    546.112     31.265    539.730    545.777    539.730    540.068    539.730
 25.570    547.000    544.697      2.303    539.436    544.351    539.436    539.785    539.436
 25.670    604.000    543.787     60.213    539.142    543.428    539.142    539.502    539.142
 25.770    500.000    543.108    -43.108    538.848    542.737    538.848    539.220    538.848
 25.870    533.000    542.560     -9.560    538.555    542.176    538.555    538.940    538.555
 25.970    520.000    542.106    -22.106    538.261    541.707    538.261    538.661    538.261
 26.070    537.398    541.728     -4.329    537.968    541.313    537.968    538.384    537.968
 26.170    522.689    541.411    -18.722    537.676    540.979    537.676    538.108    537.676
 26.270    573.000    541.144     31.856    537.383    540.695    537.383    537.833    537.383
 26.370    530.000    540.928    -10.928    537.092    540.459    537.092    537.561    537.092
 26.470    582.417    540.759     41.658    536.800    540.268    536.800    537.291    536.800
 26.570    531.000    540.636     -9.636    536.509    540.122    536.509    537.023    536.509
 26.670    564.780    540.567     24.213    536.218    540.027    536.218    536.758    536.218
 26.770    499.000    540.582    -41.582    535.927    540.014    535.927    536.495    535.927
 26.870    578.000    540.665     37.335    535.638    540.065    535.638    536.237    535.638
 26.970    537.000    540.812     -3.812    535.348    540.178    535.348    535.981    535.348
 27.070    554.000    541.067     12.933    535.059    540.395    535.059    535.731    535.059
 27.170    513.893    541.465    -27.573    534.770    540.750    534.770    535.485    534.770
 27.270    532.404    542.057     -9.654    534.482    541.294    534.482    535.245    534.482
 27.370    608.000    542.921     65.079    534.195    542.103    534.195    535.011    534.195
 27.470    582.414    544.184     38.230    533.908    543.305    533.908    534.785    533.908
 27.570    576.254    546.219     30.035    533.621    545.271    533.621    534.568    533.621
 27.670    555.000    550.308      4.692    533.335    549.279    533.335    534.361    533.335
 27.770    529.528    560.908    -31.380    533.050    559.783    533.050    534.167    533.050
 27.870    617.000    589.937     27.063    532.765    588.697    532.765    533.989    532.765
 27.970    654.000    656.621     -2.621    532.481    655.237    532.481    533.828    532.481
 28.070    815.366    770.321     45.045    532.197    768.759    532.197    533.690    532.197
 28.170    894.000    898.759     -4.759    531.914    896.996    531.914    533.581    531.914
 28.270    920.000    962.194    -42.194    531.632    960.226    531.632    533.507    531.632
 28.370    911.000    907.976      3.024    531.350    905.791    531.350    533.479    531.350
 28.470    786.000    791.729     -5.729    531.069    789.263    531.069    533.514    531.069
 28.570    704.000    702.452      1.548    530.789    699.595    530.789    533.638    530.789
 28.670    685.000    685.406     -0.406    530.509    682.010    530.509    533.892    530.509
 28.770    693.072    734.776    -41.704    530.230    730.644    530.230    534.345    530.230
 28.870    766.000    808.238    -42.238    529.952    803.078    529.952    535.102    529.952
 28.970    770.000    843.274    -73.274    529.675    836.643    529.675    536.311    529.675
 29.070    805.000    803.130      1.870    529.398    794.389    529.398    538.155    529.398
 29.170    675.000    720.450    -45.450    529.122    708.765    529.122    540.823    529.122
 29.270    599.000    645.368    -46.368    528.847    629.782    528.847    544.442    528.847
 29.370    646.550    600.036     46.514    528.573    579.654    528.573    548.958    528.573
 29.470    602.000    580.781     21.219    528.299    555.179    528.299    553.901    528.299
 29.570    543.069    574.990    -31.921    528.026    544.922    528.026    558.093    528.026
 29.670    610.738    572.566     38.171    527.754    540.488    527.754    559.831    527.754
 29.770    611.000    568.756     42.244    527.483    538.121    527.483    558.117    527.483
 29.870    568.000    563.068      4.932    527.213    536.577    527.213    553.702    527.213
 29.970    574.000    556.810     17.190    526.944    535.489    526.944    548.264    526.944
 30.070    555.891    551.156      4.735    526.675    534.740    526.675    543.090    526.675
 30.170    556.000    546.662      9.338    526.408    534.308    526.408    538.760    526.408
 30.270    584.000    543.544     40.456    526.141    534.295    526.141    535.387    526.141
 30.370    564.867    542.113     22.755    525.875    535.119    525.875    532.865    525.875
 30.470    572.000    543.337     28.663    525.610    537.928    525.610    531.014    525.610
 30.570    615.000    549.250     65.750    525.346    544.940    525.346    529.645    525.346
 30.670    607.000    562.228     44.772    525.083    558.685    525.083    528.605    525.083
 30.770    551.393    582.231    -30.837    524.821    579.235    524.821    527.780    524.821
 30.870    579.876    603.204    -23.329    524.560    600.617    524.560    527.097    524.560
 30.970    604.000    612.794     -8.794    524.300    610.531    524.300    526.508    524.300
 31.070    621.918    602.822     19.096    524.041    600.832    524.041    525.987    524.041
 31.170    593.000    580.862     12.138    523.783    579.101    523.783    525.515    523.783
 31.270    548.454    559.255    -10.801    523.526    557.685    523.526    525.081    523.526
 31.370    555.000    544.303     10.697    523.269    542.889    523.269    524.676    523.269
 31.470    549.000    536.153     12.847    523.014    534.868    523.014    524.295    523.014
 31.570    530.000    532.320     -2.320    522.760    531.143    522.760    523.934    522.760
 31.670    550.000    530.530     19.470    522.507    529.446    522.507    523.590    522.507
 31.770    564.000    529.561     34.439    522.255    528.556    522.255    523.258    522.255
 31.870    521.000    528.933     -7.933    522.005    527.998    522.005    522.938    522.005
 31.970    508.000    528.489    -20.489    521.755    527.614    521.755    522.628    521.755
 32.070    520.417    528.175     -7.758    521.506    527.354    521.506    522.326    521.506
 32.170    537.000    527.971      9.029    521.258    527.196    521.258    522.032    521.258
 32.270    539.000    527.869     11.131    521.012    527.136    521.012    521.744    521.012
 32.370    525.000    527.870     -2.870    520.767    527.174    520.767    521.462    520.767
 32.470    518.000    527.983     -9.983    520.522    527.320    520.522    521.184    520.522
 32.570    529.000    528.221      0.779    520.279    527.588    520.279    520.912    520.279
 32.670    553.000    528.611     24.389    520.037    528.004    520.037    520.643    520.037
 32.770    538.000    529.186      8.814    519.796    528.603    519.796    520.378    519.796
 32.870    618.000    529.997     88.003    519.557    529.436    519.557    520.117    519.557
 32.970    527.000    531.122     -4.122    519.318    530.580    519.318    519.859    519.318
 33.070    492.552    532.681    -40.129    519.081    532.156    519.081    519.604    519.081
 33.170    535.000    534.887      0.113    518.844    534.378    518.844    519.352    518.844
 33.270    549.000    538.232     10.768    518.609    537.737    518.609    519.102    518.609
 33.370    552.000    544.080      7.920    518.376    543.598    518.376    518.855    518.376
 33.470    516.564    556.127    -39.563    518.143    555.655    518.143    518.610    518.143
 33.570    607.000    582.645     24.355    517.912    582.179    517.912    518.368    517.912
 33.670    613.000    637.137    -24.137    517.682    636.672    517.682    518.127    517.682
 33.770    739.000    732.326      6.674    517.453    731.855    517.453    517.889    517.453
 33.870    817.517    865.010    -47.492    517.225    864.531    517.225    517.653    517.225
 33.970    975.851    998.861    -23.010    516.998    998.381    516.998    517.418    516.998
 34.070   1108.000   1064.614     43.386    516.773   1064.150    516.773    517.186    516.773
 34.170    991.393   1015.232    -23.839    516.549   1014.803    516.549    516.956    516.549
 34.270    871.000    887.577    -16.577    516.326    887.177    516.326    516.727    516.326
 34.370    794.000    751.372     42.628    516.105    750.987    516.105    516.500    516.105
 34.470    636.000    648.818    -12.818    515.885    648.438    515.885    516.275    515.885
 34.570    608.000    587.648     20.352    515.666    587.269    515.666    516.051    515.666
 34.670    560.931    556.766      4.166    515.448    556.387    515.448    515.830    515.448
 34.770    552.493    542.327     10.166    515.232    541.951    515.232    515.610    515.232
 34.870    525.000    535.183    -10.183    515.017    534.809    515.017    515.391    515.017
 34.970    520.917    531.005    -10.087    514.803    530.633    514.803    515.174    514.803
 35.070    503.000    528.132    -25.132    514.591    527.763    514.591    514.959    514.591
 35.170    513.000    525.965    -12.965    514.380    525.599    514.380    514.745    514.380
 35.270    505.884    524.255    -18.371    514.170    523.891    514.170    514.533    514.170
 35.370    514.000    522.868     -8.868    513.962    522.507    513.962    514.323    513.962
 35.470    483.000    521.721    -38.721    513.755    521.361    513.755    514.114    513.755
 35.570    504.000    520.754    -16.754    513.549    520.396    513.549    513.907    513.549
 35.670    510.422    519.928     -9.506    513.345    519.571    513.345    513.701    513.345
 35.770    513.971    519.211     -5.240    513.142    518.855    513.142    513.497    513.142
 35.870    561.000    518.582     42.418    512.940    518.227    512.940    513.295    512.940
 35.970    486.081    518.024    -31.943    512.740    517.670    512.740    513.093    512.740
 36.070    508.857    517.526     -8.669    512.541    517.173    512.541    512.894    512.541
 36.170    540.387    517.078     23.309    512.343    516.725    512.343    512.696    512.343
 36.270    519.942    516.674      3.268    512.147    516.321    512.147    512.499    512.147
 36.370    490.351    516.308    -25.957    511.952    515.956    511.952    512.305    511.952
 36.470    527.000    515.979     11.021    511.759    515.626    511.759    512.111    511.759
 36.570    557.000    515.683     41.317    511.566    515.331    511.566    511.919    511.566
 36.670    545.806    515.424     30.382    511.376    515.071    511.376    511.729    511.376
 36.770    482.000    515.207    -33.207    511.187    514.853    511.187    511.540    511.187
 36.870    509.000    515.049     -6.049    510.999    514.695    510.999    511.353    510.999
 36.970    552.133    515.001     37.132    510.812    514.646    510.812    511.167    510.812
 37.070    491.003    515.182    -24.179    510.627    514.826    510.627    510.983    510.627
 37.170    501.900    515.825    -13.924    510.443    515.468    510.443    510.800    510.443
 37.270    550.118    517.267     32.851    510.261    516.910    510.261    510.619    510.261
 37.370    548.572    519.795     28.777    510.080    519.437    510.080    510.440    510.080
 37.470    531.000    523.326      7.674    509.901    522.967    509.901    510.262    509.901
 37.570    559.965    527.053     32.912    509.723    526.693    509.723    510.085    509.723
 37.670    504.000    529.406    -25.406    509.547    529.046    509.547    509.910    509.547
 37.770    535.000    529.069      5.931    509.371    528.710    509.371    509.737    509.371
 37.870    529.000    526.381      2.619    509.198    526.022    509.198    509.565    509.198
 37.970    509.952    522.777    -12.825    509.026    522.418    509.026    509.395    509.026
 38.070    503.131    519.370    -16.239    508.855    519.010    508.855    509.226    508.855
 38.170    520.000    516.597      3.403    508.685    516.233    508.685    509.059    508.685
 38.270    558.509    514.550     43.959    508.518    514.181    508.518    508.893    508.518
 38.370    523.000    513.148      9.852    508.351    512.774    508.351    508.729    508.351
 38.470    538.000    512.226     25.774    508.186    511.849    508.186    508.566    508.186
 38.570    518.000    511.625      6.375    508.023    511.243    508.023    508.405    508.023
 38.670    510.000    511.215     -1.215    507.860    510.831    507.860    508.246    507.860
 38.770    504.000    510.913     -6.913    507.700    510.525    507.700    508.088    507.700
 38.870    522.000    510.667     11.333    507.541    510.276    507.541    507.932    507.541
 38.970    501.000    510.452     -9.452    507.383    510.058    507.383    507.777    507.383
 39.070    460.000    510.257    -50.257    507.227    509.860    507.227    507.624    507.227
 39.170    470.000    510.077    -40.077    507.072    509.676    507.072    507.473    507.072
 39.270    509.000    509.908     -0.908    506.919    509.505    506.919    507.323    506.919
 39.370    490.000    509.750    -19.750    506.767    509.343    506.767    507.174    506.767
 39.470    469.000    509.601    -40.601    506.616    509.190    506.616    507.028    506.616
 39.570    445.000    509.460    -64.460    506.468    509.045    506.468    506.882    506.468
 39.670    537.000    509.327     27.673    506.320    508.908    506.320    506.739    506.320
 39.770    496.534    509.201    -12.667    506.174    508.779    506.174    506.597    506.174
 39.870    515.000    509.083      5.917    506.030    508.656    506.030    506.457    506.030
 39.970    459.000    508.972    -49.972    505.887    508.541    505.887    506.318    505.887
 40.070    509.000    508.869      0.131    505.745    508.434    505.745    506.181    505.745
 40.170    518.000    508.775      9.225    505.605    508.335    505.605    506.045    505.605
 40.270    504.219    508.688     -4.470    505.467    508.244    505.467    505.911    505.467
 40.370    509.000    508.612      0.388    505.330    508.163    505.330    505.779    505.330
 40.470    480.611    508.546    -27.935    505.194    508.091    505.194    505.649    505.194
 40.570    494.000    508.491    -14.491    505.060    508.032    505.060    505.520    505.060
 40.670    482.000    508.450    -26.450    504.927    507.985    504.927    505.392    504.927
 40.770    521.000    508.423     12.577    504.796    507.953    504.796    505.267    504.796
 40.870    549.463    508.415     41.048    504.667    507.939    504.667    505.143    504.667
 40.970    518.923    508.428     10.495    504.538    507.946    504.538    505.021    504.538
 41.070    498.000    508.466    -10.466    504.412    507.979    504.412    504.900    504.412
 41.170    470.504    508.536    -38.032    504.287    508.042    504.287    504.781    504.287
 41.270    516.000    508.645      7.355    504.163    508.145    504.163    504.664    504.163
 41.370    473.219    508.803    -35.584    504.041    508.296    504.041    504.548    504.041
 41.470    496.553    509.026    -12.473    503.920    508.512    503.920    504.434    503.920
 41.570    518.000    509.336      8.664    503.801    508.816    503.801    504.322    503.801
 41.670    479.614    509.777    -30.162    503.683    509.249    503.683    504.212    503.683
 41.770    541.703    510.440     31.264    503.566    509.905    503.566    504.103    503.566
 41.870    479.000    511.554    -32.554    503.452    511.012    503.452    503.996    503.452
 41.970    499.000    513.657    -14.657    503.338    513.108    503.338    503.891    503.338
 42.070    542.827    517.844     24.983    503.226    517.288    503.226    503.788    503.226
 42.170    530.000    525.904      4.096    503.116    525.343    503.116    503.686    503.116
 42.270    523.000    539.931    -16.931    503.007    539.367    503.007    503.586    503.007
 42.370    537.000    561.072    -24.072    502.900    560.510    502.900    503.488    502.900
 42.470    575.000    587.617    -12.617    502.794    587.058    502.794    503.392    502.794
 42.570    597.662    613.342    -15.680    502.689    612.788    502.689    503.298    502.689
 42.670    583.000    628.087    -45.087    502.586    627.533    502.586    503.205    502.586
 42.770    639.000    624.093     14.907    502.485    623.530    502.485    503.114    502.485
 42.870    620.788    603.723     17.065    502.385    603.140    502.385    503.026    502.385
 42.970    551.199    576.655    -25.455    502.286    576.046    502.286    502.939    502.286
 43.070    529.293    551.724    -22.432    502.189    551.089    502.189    502.854    502.189
 43.170    533.000    533.262     -0.262    502.094    532.603    502.094    502.771    502.094
 43.270    495.013    521.647    -26.634    501.999    520.967    501.999    502.690    501.999
 43.370    480.748    515.187    -34.439    501.907    514.489    501.907    502.611    501.907
 43.470    505.000    511.835     -6.835    501.815    511.120    501.815    502.534    501.815
 43.570    509.000    510.075     -1.075    501.726    509.344    501.726    502.459    501.726
 43.670    540.876    509.056     31.820    501.637    508.309    501.637    502.387    501.637
 43.770    511.000    508.383      2.617    501.550    507.619    501.550    502.316    501.550
 43.870    518.000    507.892     10.108    501.465    507.111    501.465    502.248    501.465
 43.970    522.822    507.514     15.308    501.381    506.715    501.381    502.182    501.381
 44.070    493.000    507.216    -14.216    501.299    506.397    501.299    502.118    501.299
 44.170    547.000    506.979     40.021    501.217    506.140    501.217    502.057    501.217
 44.270    468.865    506.789    -37.924    501.138    505.930    501.138    501.998    501.138
 44.370    481.000    506.638    -25.638    501.060    505.757    501.060    501.941    501.060
 44.470    540.438    506.520     33.919    500.983    505.616    500.983    501.887    500.983
 44.570    499.000    506.429     -7.429    500.908    505.501    500.908    501.836    500.908
 44.670    533.000    506.361     26.639    500.834    505.408    500.834    501.787    500.834
 44.770    488.000    506.315    -18.315    500.761    505.335    500.761    501.742    500.761
 44.870    469.867    506.289    -36.421    500.690    505.280    500.690    501.699    500.690
 44.970    527.861    506.280     21.582    500.621    505.242    500.621    501.659    500.621
 45.070    520.000    506.288     13.712    500.553    505.218    500.553    501.622    500.553
 45.170    492.000    506.313    -14.313    500.486    505.209    500.486    501.589    500.486
 45.270    503.000    506.354     -3.354    500.420    505.215    500.420    501.560    500.420
 45.370    526.000    506.412     19.588    500.357    505.234    500.357    501.534    500.357
 45.470    481.000    506.486    -25.486    500.294    505.269    500.294    501.512    500.294
 45.570    507.000    506.578      0.422    500.233    505.318    500.233    501.494    500.233
 45.670    531.000    506.689     24.311    500.173    505.382    500.173    501.480    500.173
 45.770    431.000    506.820    -75.820    500.115    505.464    500.115    501.471    500.115
 45.870    497.094    506.973     -9.879    500.058    505.563    500.058    501.468    500.058
 45.970    518.000    507.150     10.850    500.003    505.683    500.003    501.469    500.003
 46.070    518.000    507.354     10.646    499.949    505.825    499.949    501.477    499.949
 46.170    551.046    507.588     43.458    499.896    505.992    499.896    501.491    499.896
 46.270    500.590    507.857     -7.267    499.845    506.189    499.845    501.512    499.845
 46.370    466.010    508.166    -42.156    499.795    506.420    499.795    501.540    499.795
 46.470    504.000    508.523     -4.523    499.746    506.692    499.746    501.577    499.746
 46.570    469.582    508.939    -39.357    499.699    507.014    499.699    501.623    499.699
 46.670    492.986    509.427    -16.441    499.653    507.400    499.653    501.679    499.653
 46.770    550.011    510.014     39.997    499.608    507.874    499.608    501.747    499.608
 46.870    513.000    510.751      2.249    499.565    508.487    499.565    501.828    499.565
 46.970    551.437    511.757     39.681    499.524    509.354    499.524    501.924    499.524
 47.070    521.001    513.288      7.713    499.483    510.732    499.483    502.036    499.483
 47.170    519.000    515.854      3.146    499.444    513.127    499.444    502.167    499.444
 47.270    546.000    520.292     25.708    499.406    517.371    499.406    502.319    499.406
 47.370    560.000    527.678     32.322    499.370    524.537    499.370    502.498    499.370
 47.470    529.000    538.923     -9.923    499.335    535.531    499.335    502.706    499.335
 47.570    547.000    553.972     -6.972    499.301    550.292    499.301    502.948    499.301
 47.670    589.000    571.014     17.986    499.269    567.006    499.269    503.233    499.269
 47.770    549.393    586.024    -36.631    499.238    581.641    499.238    503.567    499.238
 47.870    604.000    593.618     10.382    499.208    588.807    499.208    503.962    499.208
 47.970    614.000    590.608     23.392    499.179    585.302    499.179    504.433    499.179
 48.070    579.000    579.174     -0.174    499.152    573.284    499.152    505.001    499.152
 48.170    557.000    564.584     -7.584    499.126    557.983    499.126    505.698    499.126
 48.270    521.000    551.395    -30.395    499.102    543.901    499.102    506.576    499.102
 48.370    498.947    542.059    -43.112    499.078    533.409    499.078    507.716    499.078
 48.470    553.000    537.163     15.837    499.056    526.965    499.056    509.247    499.056
 48.570    542.000    536.220      5.780    499.036    523.890    499.036    511.361    499.036
 48.670    553.121    538.491     14.630    499.016    523.170    499.016    514.334    499.016
 48.770    519.000    543.499    -24.499    498.998    523.973    498.998    518.522    498.998
 48.870    508.890    551.175    -42.286    498.981    525.820    498.981    524.333    498.981
 48.970    532.000    561.759    -29.759    498.965    528.560    498.965    532.161    498.965
 49.070    619.452    575.647     43.805    498.951    532.332    498.951    542.262    498.951
 49.170    589.000    593.367     -4.367    498.938    537.711    498.938    554.589    498.938
 49.270    648.000    615.948     32.052    498.926    546.322    498.926    568.545    498.926
 49.370    621.000    646.120    -25.120    498.915    562.369    498.915    582.655    498.915
 49.470    690.000    690.919     -0.919    498.906    595.456    498.906    594.347    498.906
 49.570    791.000    765.629     25.371    498.897    664.031    498.897    600.455    498.897
 49.670    888.000    896.375     -8.375    498.890    796.278    498.890    598.915    498.890
 49.770   1152.000   1114.485     37.515    498.885   1022.949    498.885    590.308    498.885
 49.870   1404.797   1436.946    -32.149    498.880   1358.312    498.880    577.363    498.880
 49.970   1857.210   1838.909     18.301    498.877   1774.507    498.877    563.116    498.877
 50.070   2129.000   2236.045   -107.045    498.874   2185.093    498.874    549.703    498.874
 50.170   2419.964   2498.397    -78.433    498.873   2459.026    498.873    538.220    498.873
 50.270   2538.322   2513.546     24.776    498.873   2483.495    498.873    529.024    498.873
 50.370   2269.000   2270.459     -1.459    498.875   2247.498    498.875    522.025    498.875
 50.470   1943.786   1870.443     73.343    498.877   1852.639    498.877    516.898    498.877
 50.570   1459.000   1448.400     10.600    498.881   1434.240    498.881    513.233    498.881
 50.670   1093.000   1100.779     -7.779    498.886   1089.170    498.886    510.639    498.886
 50.770    831.986    864.321    -32.335    498.892    854.521    498.892    508.789    498.892
 50.870    767.401    728.683     38.718    498.899    720.206    498.899    507.441    498.899
 50.970    638.591    661.727    -23.136    498.907    654.253    498.907    506.429    498.907
 51.070    597.000    630.716    -33.716    498.916    624.029    498.916    505.644    498.916
 51.170    584.000    612.862    -28.862    498.927    606.806    498.927    505.018    498.927
 51.270    591.533    597.260     -5.727    498.938    591.721    498.938    504.508    498.938
 51.370    583.365    581.561      1.804    498.951    576.449    498.951    504.087    498.951
 51.470    556.000    566.952    -10.952    498.965    562.199    498.965    503.736    498.965
 51.570    607.000    554.891     52.109    498.980    550.442    498.980    503.442    498.980
 51.670    522.000    546.023    -24.023    498.996    541.833    498.996    503.195    498.996
 51.770    575.000    540.179     34.821    499.013    536.211    499.013    502.987    499.013
 51.870    582.000    536.736     45.264    499.031    532.958    499.031    502.814    499.031
 51.970    529.000    534.998     -5.998    499.050    531.383    499.050    502.669    499.050
 52.070    577.530    534.437     43.093    499.071    530.962    499.071    502.549    499.071
 52.170    547.000    534.769     12.231    499.092    531.413    499.092    502.450    499.092
 52.270    587.000    535.940     51.060    499.115    532.686    499.115    502.371    499.115
 52.370    540.999    538.156      2.843    499.138    534.987    499.138    502.309    499.138
 52.470    585.000    542.025     42.975    499.163    538.927    499.163    502.262    499.163
 52.570    563.000    548.919     14.081    499.188    545.879    499.188    502.229    499.188
 52.670    614.000    561.525     52.475    499.215    558.532    499.215    502.208    499.215
 52.770    550.927    584.413    -33.486    499.242    581.456    499.242    502.199    499.242
 52.870    653.000    624.052     28.948    499.271    621.121    499.271    502.200    499.271
 52.970    696.000    687.522      8.478    499.300    684.607    499.300    502.212    499.300
 53.070    810.000    779.408     30.592    499.331    776.503    499.331    502.232    499.331
 53.170    879.000    897.363    -18.363    499.362    894.461    499.362    502.262    499.362
 53.270   1058.000   1027.855     30.145    499.395   1024.952    499.395    502.301    499.395
 53.370   1183.518   1144.260     39.258    499.428   1141.353    499.428    502.347    499.428
 53.470   1160.000   1211.697    -51.697    499.463   1208.783    499.463    502.402    499.463
 53.570   1134.910   1204.568    -69.658    499.498   1201.640    499.498    502.465    499.498
 53.670   1076.000   1126.100    -50.100    499.535   1123.144    499.535    502.535    499.535
 53.770    976.353   1005.331    -28.978    499.572   1002.333    499.572    502.614    499.572
 53.870    872.000    876.286     -4.286    499.610    873.232    499.610    502.700    499.610
 53.970    728.000    763.182    -35.182    499.649    760.064    499.649    502.795    499.649
 54.070    664.000    677.243    -13.243    499.689    674.054    499.689    502.898    499.689
 54.170    567.000    619.206    -52.206    499.730    615.940    499.730    503.009    499.730
 54.270    584.000    583.748      0.252    499.772    580.398    499.772    503.129    499.772
 54.370    534.034    563.753    -29.719    499.815    560.314    499.815    503.259    499.815
 54.470    633.000    553.072     79.928    499.859    549.536    499.859    503.398    499.859
 54.570    611.000    547.513     63.487    499.903    543.871    499.903    503.548    499.903
 54.670    540.000    544.669     -4.669    499.949    540.912    499.949    503.708    499.949
 54.770    496.973    543.333    -46.360    499.995    539.449    499.995    503.880    499.995
 54.870    553.000    542.955     10.045    500.042    538.935    500.042    504.064    500.042
 54.970    573.000    543.310     29.690    500.090    539.141    500.090    504.261    500.090
 55.070    561.953    544.315     17.638    500.139    539.983    500.139    504.473    500.139
 55.170    586.000    545.960     40.040    500.189    541.449    500.189    504.700    500.189
 55.270    550.000    548.281      1.719    500.239    543.577    500.239    504.944    500.239
 55.370    536.000    551.364    -15.364    500.290    546.448    500.290    505.207    500.290
 55.470    566.000    555.365     10.635    500.342    550.217    500.342    505.491    500.342
 55.570    586.000    560.580     25.420    500.395    555.180    500.395    505.796    500.395
 55.670    632.000    567.631     64.369    500.449    561.954    500.449    506.127    500.449
 55.770    581.716    577.878      3.837    500.503    571.896    500.503    506.486    500.503
 55.870    583.000    594.246    -11.246    500.559    587.929    500.559    506.875    500.559
 55.970    637.088    622.562     14.526    500.615    615.873    500.615    507.299    500.615
 56.070    711.882    673.167     38.714    500.671    666.066    500.671    507.763    500.671
 56.170    763.106    761.855      1.250    500.729    754.294    500.729    508.271    500.729
 56.270    966.547    908.379     58.168    500.787    900.304    500.787    508.829    500.787
 56.370   1058.000   1130.733    -72.733    500.846   1122.088    500.846    509.445    500.846
 56.470   1392.000   1435.041    -43.041    500.906   1425.765    500.906    510.128    500.906
 56.570   1685.000   1803.807   -118.807    500.966   1793.839    500.966    510.887    500.966
 56.670   2095.560   2187.428    -91.868    501.027   2176.704    501.027    511.735    501.027
 56.770   2517.000   2504.648     12.352    501.089   2493.094    501.089    512.687    501.089
 56.870   2679.000   2662.624     16.376    501.151   2650.142    501.151    513.761    501.151
 56.970   2585.000   2605.684    -20.684    501.214   2592.130    501.214    514.982    501.214
 57.070   2415.000   2356.555     58.445    501.278   2341.719    501.278    516.379    501.278
 57.170   2070.000   1997.348     72.652    501.343   1980.966    501.343    517.995    501.343
 57.270   1611.000   1618.159     -7.159    501.408   1599.915    501.408    519.891    501.408
 57.370   1332.000   1284.277     47.723    501.474   1263.783    501.474    522.156    501.474
 57.470   1060.000   1027.885     32.115    501.540   1004.628    501.540    524.931    501.540
 57.570    857.000    853.050      3.950    501.607    826.312    501.607    528.433    501.607
 57.670    754.059    746.689      7.370    501.675    715.421    501.675    532.994    501.675
 57.770    712.000    690.095     21.905    501.743    652.763    501.743    539.103    501.743
 57.870    632.155    667.067    -34.912    501.812    621.452    501.812    547.440    501.812
 57.970    676.000    667.455      8.545    501.882    610.456    501.882    558.883    501.882
 58.070    689.000    687.299      1.701    501.952    614.773    501.952    574.471    501.952
 58.170    755.000    727.001     27.999    502.022    633.720    502.022    595.286    502.022
 58.270    733.000    788.955    -55.955    502.093    668.757    502.093    622.263    502.093
 58.370    824.709    875.034    -50.326    502.165    721.247    502.165    655.915    502.165
 58.470    946.000    984.314    -38.314    502.238    790.519    502.238    695.987    502.238
 58.570   1108.000   1111.279     -3.279    502.310    872.520    502.310    741.023    502.310
 58.670   1226.000   1245.006    -19.006    502.384    959.559    502.384    787.789    502.384
 58.770   1418.000   1370.349     47.651    502.458   1042.078    502.458    830.699    502.458
 58.870   1515.593   1471.122     44.472    502.532   1111.654    502.532    861.989    502.532
 58.970   1522.000   1532.963    -10.963    502.607   1161.601    502.607    873.980    502.607
 59.070   1573.000   1545.824     27.176    502.682   1185.309    502.682    863.228    502.682
 59.170   1506.324   1508.488     -2.164    502.758   1178.393    502.758    832.899    502.758
 59.270   1480.000   1432.057     47.943    502.835   1144.383    502.835    790.556    502.835
 59.370   1326.000   1336.536    -10.536    502.912   1095.467    502.912    744.015    502.912
 59.470   1264.000   1242.955     21.045    502.989   1046.972    502.989    698.979    502.989
 59.570   1123.752   1169.235    -45.484    503.067   1013.487    503.067    658.787    503.067
 59.670   1167.000   1130.766     36.234    503.145   1008.865    503.145    624.972    503.145
 59.770   1181.000   1139.505     41.495    503.223   1044.764    503.223    597.838    503.223
 59.870   1254.000   1199.041     54.959    503.302   1125.256    503.302    576.904    503.302
 59.970   1312.000   1299.644     12.356    503.382   1241.538    503.382    561.252    503.382
 60.070   1427.000   1416.760     10.240    503.462   1370.146    503.462    549.802    503.462
 60.170   1624.000   1513.876    110.124    503.542   1475.621    503.542    541.512    503.542
 60.270   1493.066   1552.345    -59.279    503.623   1520.211    503.623    535.495    503.623
 60.370   1511.000   1509.655      1.345    503.704   1482.086    503.704    531.064    503.704
 60.470   1409.000   1393.083     15.917    503.785   1368.998    503.785    527.727    503.785
 60.570   1216.000   1232.563    -16.563    503.867   1211.197    503.867    525.149    503.867
 60.670   1029.506   1062.670    -33.164    503.949   1043.464    503.949    523.114    503.949
 60.770    980.000    910.236     69.764    504.031    892.762    504.031    521.491    504.031
 60.870    815.000    790.089     24.911    504.114    774.003    504.114    520.197    504.114
 60.970    681.000    705.955    -24.955    504.197    690.968    504.197    519.184    504.197
 61.070    664.000    654.288      9.712    504.281    640.144    504.281    518.421    504.281
 61.170    634.000    629.018      4.982    504.364    615.487    504.364    517.886    504.364
 61.270    615.026    625.433    -10.408    504.448    612.307    504.448    517.557    504.448
 61.370    670.000    642.264     27.736    504.533    629.357    504.533    517.411    504.533
 61.470    656.000    681.828    -25.828    504.617    668.989    504.617    517.410    504.617
 61.570    789.214    748.420     40.794    504.702    735.555    504.702    517.499    504.702
 61.670    895.000    845.310     49.690    504.787    832.401    504.787    517.598    504.787
 61.770    961.000    970.992     -9.992    504.872    958.127    504.872    517.608    504.872
 61.870   1095.689   1115.853    -20.164    504.958   1103.225    504.958    517.429    504.958
 61.970   1236.000   1260.507    -24.507    505.044   1248.368    505.044    517.009    505.044
 62.070   1327.000   1377.116    -50.116    505.130   1365.709    505.130    516.366    505.130
 62.170   1372.667   1436.106    -63.439    505.216   1425.599    505.216    515.577    505.216
 62.270   1440.282   1419.551     20.732    505.302   1410.015    505.302    514.734    505.302
 62.370   1288.000   1332.355    -44.355    505.389   1323.775    505.389    513.910    505.389
 62.470   1156.000   1198.753    -42.753    505.476   1191.053    505.476    513.154    505.476
 62.570   1003.907   1048.709    -44.802    505.563   1041.782    505.563    512.492    505.563
 62.670    926.000    907.066     18.934    505.650    900.799    505.650    511.932    505.650
 62.770    778.636    789.173    -10.537    505.737    783.455    505.737    511.473    505.737
 62.870    703.160    700.790      2.370    505.824    695.525    505.824    511.104    505.824
 62.970    589.000    640.369    -51.369    505.912    635.476    505.912    510.814    505.912
 63.070    615.000    602.342     12.658    506.000    597.758    506.000    510.588    506.000
 63.170    556.175    580.143    -23.968    506.088    575.818    506.088    510.414    506.088
 63.270    569.000    568.163      0.837    506.175    564.057    506.175    510.279    506.175
 63.370    534.193    562.563    -28.370    506.263    558.647    506.263    510.175    506.263
 63.470    590.000    561.323     28.677    506.352    557.573    506.352    510.095    506.352
 63.570    644.000    563.979     80.021    506.440    560.377    506.440    510.034    506.440
 63.670    620.066    571.345     48.721    506.528    567.872    506.528    509.988    506.528
 63.770    574.052    585.248    -11.196    506.616    581.891    506.616    509.954    506.616
 63.870    666.000    608.188     57.812    506.705    604.934    506.705    509.931    506.705
 63.970    642.323    642.731     -0.408    506.793    639.565    506.793    509.917    506.793
 64.070    747.000    690.578     56.422    506.882    687.489    506.882    509.912    506.882
 64.170    779.000    751.421     27.579    506.970    748.398    506.970    509.914    506.970
 64.270    815.522    821.853     -6.331    507.058    818.889    507.058    509.923    507.058
 64.370    873.000    894.675    -21.675    507.147    891.768    507.147    509.938    507.147
 64.470    964.972    959.142      5.830    507.235    956.293    507.235    509.958    507.235
 64.570   1036.000   1003.226     32.774    507.324   1000.442    507.324    509.984    507.324
 64.670    960.782   1018.297    -57.515    507.412   1015.585    507.412    510.015    507.412
 64.770    968.000   1002.969    -34.969    507.501   1000.335    507.501    510.049    507.501
 64.870    924.354    962.671    -38.317    507.589    960.114    507.589    510.089    507.589
 64.970    899.000    906.707     -7.707    507.677    904.223    507.677    510.132    507.677
 65.070    845.000    845.185     -0.185    507.766    842.766    507.766    510.178    507.766
 65.170    789.000    786.243      2.757    507.854    783.880    507.854    510.228    507.854
 65.270    733.000    734.494     -1.494    507.942    732.177    507.942    510.282    507.942
 65.370    660.000    691.293    -31.293    508.030    689.012    508.030    510.338    508.030
 65.470    690.229    656.173     34.056    508.118    653.921    508.118    510.398    508.118
 65.570    628.000    628.181     -0.181    508.206    625.951    508.206    510.460    508.206
 65.670    590.000    606.366    -16.366    508.293    604.154    508.293    510.525    508.293
 65.770    613.908    589.805     24.102    508.381    587.607    508.381    510.592    508.381
 65.870    535.963    577.638    -41.676    508.469    575.452    508.469    510.662    508.469
 65.970    577.304    569.100      8.204    508.556    566.925    508.556    510.735    508.556
 66.070    601.002    563.524     37.478    508.643    561.359    508.643    510.810    508.643
 66.170    552.000    560.335     -8.335    508.730    558.179    508.730    510.887    508.730
 66.270    505.000    559.056    -54.056    508.817    556.906    508.817    510.966    508.817
 66.370    524.967    559.327    -34.360    508.903    557.182    508.903    511.048    508.903
 66.470    597.590    560.948     36.642    508.990    558.807    508.990    511.132    508.990
 66.570    520.371    563.939    -43.568    509.076    561.797    509.076    511.219    509.076
 66.670    601.204    568.639     32.564    509.162    566.496    509.162    511.307    509.162
 66.770    589.267    575.916     13.351    509.248    573.767    509.248    511.398    509.248
 66.870    633.054    587.497     45.557    509.334    585.340    509.334    511.491    509.334
 66.970    601.635    606.455     -4.820    509.419    604.287    509.419    511.587    509.419
 67.070    663.736    637.750     25.986    509.504    635.567    509.504    511.685    509.504
 67.170    672.441    688.578    -16.138    509.589    686.376    509.589    511.785    509.589
 67.270    736.000    768.148    -32.148    509.674    765.922    509.674    511.888    509.674
 67.370    847.000    886.410    -39.410    509.758    884.159    509.758    511.993    509.758
 67.470   1049.000   1051.487     -2.487    509.842   1049.212    509.842    512.102    509.842
 67.570   1226.000   1266.001    -40.001    509.926   1263.705    509.926    512.213    509.926
 67.670   1533.000   1523.131      9.869    510.009   1520.823    510.009    512.327    510.009
 67.770   1865.000   1803.609     61.391    510.093   1801.301    510.093    512.444    510.093
 67.870   2004.000   2074.811    -70.811    510.175   2072.517    510.175    512.565    510.175
 67.970   2245.000   2293.436    -48.436    510.258   2291.167    510.258    512.689    510.258
 68.070   2509.300   2414.699     94.602    510.340   2412.457    510.340    512.818    510.340
 68.170   2473.000   2409.273     63.727    510.422   2407.045    510.422    512.950    510.422
 68.270   2296.000   2278.653     17.347    510.504   2276.408    510.504    513.086    510.504
 68.370   2191.000   2054.225    136.775    510.585   2051.924    510.585    513.227    510.585
 68.470   1851.000   1781.146     69.854    510.666   1778.755    510.666    513.374    510.666
 68.570   1577.000   1502.012     74.988    510.746   1499.504    510.746    513.525    510.746
 68.670   1306.268   1248.347     57.921    510.826   1245.707    510.826    513.683    510.826
 68.770   1014.000   1038.296    -24.296    510.906   1035.519    510.906    513.847    510.906
 68.870    936.156    877.750     58.406    510.985    874.833    510.985    514.018    510.985
 68.970    792.291    763.475     28.816    511.064    760.420    511.064    514.197    511.064
 69.070    731.000    687.072     43.928    511.142    683.881    511.142    514.385    511.142
 69.170    668.000    638.580     29.420    511.220    635.252    511.220    514.582    511.220
 69.270    613.000    608.930      4.070    511.298    605.459    511.298    514.790    511.298
 69.370    596.579    591.107      5.472    511.375    587.487    511.375    515.009    511.375
 69.470    626.000    580.312     45.688    511.451    576.532    511.451    515.241    511.451
 69.570    580.000    573.570      6.430    511.527    569.618    511.527    515.487    511.527
 69.670    548.987    569.187    -20.200    511.603    565.046    511.603    515.749    511.603
 69.770    581.000    566.258     14.742    511.678    561.911    511.678    516.029    511.678
 69.870    548.000    564.322    -16.322    511.753    559.748    511.753    516.330    511.753
 69.970    597.377    563.156     34.221    511.827    558.332    511.827    516.654    511.827
 70.070    564.000    562.656      1.344    511.901    557.555    511.901    517.003    511.901
 70.170    564.000    562.790      1.210    511.974    557.382    511.974    517.383    511.974
 70.270    595.121    563.589     31.532    512.047    557.840    512.047    517.796    512.047
 70.370    533.912    565.162    -31.250    512.119    559.030    512.119    518.249    512.119
 70.470    612.961    567.747     45.214    512.191    561.188    512.191    518.747    512.191
 70.570    584.959    571.825     13.134    512.262    564.784    512.262    519.299    512.262
 70.670    526.000    578.273    -52.273    512.332    570.685    512.332    519.914    512.332
 70.770    566.000    588.598    -22.598    512.402    580.384    512.402    520.606    512.402
 70.870    646.235    605.221     41.014    512.472    596.281    512.472    521.395    512.472
 70.970    556.000    631.708    -75.708    512.541    621.916    512.541    522.307    512.541
 71.070    637.000    672.833    -35.833    512.609    662.016    512.609    523.387    512.609
 71.170    719.000    734.242    -15.242    512.676    722.164    512.676    524.697    512.676
 71.270    754.000    821.574    -67.574    512.743    807.893    512.743    526.343    512.743
 71.370    886.000    938.961    -52.961    512.810    923.186    512.810    528.475    512.810
 71.470   1054.000   1087.118    -33.118    512.876   1068.542    512.876    531.312    512.876
 71.570   1258.000   1261.447     -3.447    512.941   1239.059    512.941    535.160    512.941
 71.670   1384.000   1450.670    -66.670    513.005   1423.066    513.005    540.418    513.005
 71.770   1633.000   1636.506     -3.506    513.069   1601.797    513.069    547.575    513.069
 71.870   1779.000   1794.953    -15.953    513.132   1750.708    513.132    557.180    513.132
 71.970   1808.000   1900.449    -92.449    513.195   1843.693    513.195    569.777    513.195
 72.070   1985.000   1933.885     51.115    513.257   1861.184    513.257    585.819    513.257
 72.170   1971.000   1891.382     79.618    513.318   1799.063    513.318    605.540    513.318
 72.270   1908.000   1786.465    121.535    513.379   1670.961    513.379    628.822    513.379
 72.370   1660.000   1643.093     16.907    513.439   1501.446    513.439    655.054    513.439
 72.470   1519.697   1486.099     33.598    513.498   1316.595    513.498    682.991    513.498
 72.570   1351.608   1335.053     16.555    513.556   1137.984    513.556    710.625    513.556
 72.670   1203.000   1201.883      1.117    513.614    980.362    513.614    735.140    513.614
 72.770    992.000   1090.886    -98.886    513.671    851.403    513.671    753.160    513.671
 72.870    958.000   1000.525    -42.525    513.727    752.704    513.727    761.553    513.727
 72.970    842.000    926.401    -84.401    513.783    681.530    513.783    758.656    513.783
 73.070    917.054    864.059     52.996    513.837    632.806    513.837    745.092    513.837
 73.170    729.000    810.382    -81.382    513.892    600.839    513.892    723.435    513.892
 73.270    676.000    763.608    -87.608    513.945    580.493    513.945    697.061    513.945
 73.370    678.000    722.849    -44.849    513.997    567.745    513.997    669.103    513.997
 73.470    644.000    687.694    -43.694    514.049    559.782    514.049    641.964    514.049
 73.570    596.000    657.968    -61.968    514.100    554.826    514.100    617.245    514.100
 73.670    613.000    633.549    -20.549    514.150    551.850    514.150    595.854    514.150
 73.770    588.922    614.241    -25.319    514.200    550.316    514.200    578.132    514.200
 73.870    631.105    599.697     31.408    514.248    549.955    514.248    564.001    514.248
 73.970    599.211    589.397      9.814    514.296    550.609    514.296    553.099    514.296
 74.070    574.406    582.678     -8.271    514.343    552.126    514.343    544.914    514.343
 74.170    628.000    578.767     49.233    514.389    554.289    514.389    538.891    514.389
 74.270    645.000    576.825     68.175    514.434    556.783    514.434    534.508    514.434
 74.370    573.870    575.989     -2.119    514.479    559.186    514.479    531.319    514.479
 74.470    633.000    575.413     57.587    514.522    561.004    514.522    528.973    514.522
 74.570    663.000    574.367     88.633    514.565    561.764    514.565    527.212    514.565
 74.670    599.332    572.369     26.963    514.607    561.169    514.607    525.852    514.607
 74.770    637.000    569.308     67.692    514.648    559.230    514.648    524.770    514.648
 74.870    609.000    565.425     43.575    514.688    556.269    514.688    523.883    514.688
 74.970    559.000    561.171     -2.171    514.728    552.793    514.728    523.139    514.728
 75.070    627.000    557.061     69.939    514.766    549.351    514.766    522.503    514.766
 75.170    591.000    553.599     37.401    514.804    546.470    514.804    521.952    514.804
 75.270    535.000    551.260    -16.260    514.840    544.643    514.840    521.471    514.840
 75.370    583.000    550.511     32.489    514.876    544.348    514.876    521.047    514.876
 75.470    507.264    551.839    -44.575    514.911    546.080    514.911    520.672    514.911
 75.570    581.000    555.760     25.240    514.945    550.363    514.945    520.338    514.945
 75.670    591.797    562.800     28.997    514.978    557.728    514.978    520.040    514.978
 75.770    549.000    573.410    -24.410    515.010    568.629    515.010    519.774    515.010
 75.870    555.000    587.827    -32.827    515.041    583.309    515.041    519.535    515.041
 75.970    586.211    605.905    -19.695    515.071    601.625    515.071    519.319    515.071
 76.070    624.235    626.946     -2.711    515.100    622.880    515.100    519.125    515.100
 76.170    638.807    649.583    -10.776    515.128    645.713    515.128    518.949    515.128
 76.270    678.127    671.762      6.365    515.156    668.072    515.156    518.789    515.156
 76.370    710.990    690.843     20.148    515.182    687.319    515.182    518.644    515.182
 76.470    708.000    703.939      4.061    515.207    700.572    515.207    518.512    515.207
 76.570    672.000    708.634    -36.634    515.232    705.414    515.232    518.391    515.232
 76.670    738.502    703.920     34.582    515.255    700.840    515.255    518.280    515.255
 76.770    652.356    690.684    -38.328    515.278    687.736    515.278    518.178    515.278
 76.870    714.311    671.268     43.043    515.299    668.444    515.299    518.085    515.299
 76.970    669.000    648.535     20.465    515.319    645.827    515.319    517.998    515.319
 77.070    589.634    625.135    -35.500    515.339    622.534    515.339    517.919    515.339
 77.170    563.916    603.134    -39.218    515.357    600.632    515.357    517.845    515.357
 77.270    572.000    583.898    -11.898    515.375    581.487    515.375    517.776    515.375
 77.370    569.000    568.105      0.895    515.391    565.777    515.391    517.712    515.391
 77.470    507.000    555.846    -48.846    515.406    553.596    515.406    517.653    515.406
 77.570    552.257    546.801      5.456    515.420    544.621    515.420    517.597    515.420
 77.670    549.000    540.414      8.586    515.434    538.301    515.434    517.545    515.434
 77.770    545.000    536.049      8.951    515.446    533.997    515.446    517.496    515.446
 77.870    536.394    533.142      3.253    515.457    531.148    515.457    517.450    515.457
 77.970    493.000    531.253    -38.253    515.467    529.313    515.467    517.406    515.467
 78.070    534.000    530.013      3.987    515.476    528.123    515.476    517.365    515.476
 78.170    512.000    529.180    -17.180    515.484    527.338    515.484    517.326    515.484
 78.270    505.000    528.607    -23.607    515.491    526.809    515.491    517.289    515.491
 78.370    551.761    528.205     23.557    515.497    526.448    515.497    517.253    515.497
 78.470    517.807    527.924    -10.117    515.502    526.206    515.502    517.219    515.502
 78.570    527.000    527.745     -0.745    515.505    526.063    515.505    517.187    515.505
 78.670    489.000    527.664    -38.664    515.508    526.014    515.508    517.157    515.508
 78.770    539.893    527.688     12.205    515.509    526.069    515.509    517.128    515.509
 78.870    585.000    527.838     57.162    515.510    526.245    515.510    517.102    515.510
 78.970    531.000    528.137      2.863    515.509    526.568    515.509    517.077    515.509
 79.070    524.000    528.616     -4.616    515.507    527.067    515.507    517.055    515.507
 79.170    531.168    529.309      1.859    515.504    527.775    515.504    517.036    515.504
 79.270    540.377    530.245     10.132    515.500    528.722    515.500    517.021    515.500
 79.370    537.000    531.452      5.548    515.495    529.935    515.495    517.010    515.495
 79.470    559.040    532.956     26.084    515.489    531.437    515.489    517.005    515.489
 79.570    495.548    534.786    -39.238    515.481    533.257    515.481    517.005    515.481
 79.670    560.181    536.987     23.194    515.473    535.442    515.473    517.013    515.473
 79.770    565.209    539.639     25.571    515.463    538.069    515.463    517.027    515.463
 79.870    552.767    542.878      9.889    515.452    541.275    515.452    517.050    515.452
 79.970    515.000    546.925    -31.925    515.440    545.281    515.440    517.078    515.440
 80.070    522.000    552.111    -30.111    515.427    550.421    515.427    517.113    515.427
 80.170    529.000    558.880    -29.880    515.412    557.138    515.412    517.152    515.412
 80.270    608.000    567.735     40.265    515.397    565.940    515.397    517.191    515.397
 80.370    588.524    579.142      9.382    515.380    577.298    515.380    517.226    515.380
 80.470    602.000    593.406      8.594    515.363    591.521    515.363    517.253    515.363
 80.570    609.651    610.557     -0.905    515.344    608.646    515.344    517.264    515.344
 80.670    651.000    630.262     20.738    515.323    628.345    515.323    517.255    515.323
 80.770    644.000    651.783     -7.783    515.302    649.884    515.302    517.222    515.302
 80.870    686.000    673.998     12.002    515.280    672.140    515.280    517.164    515.280
 80.970    671.960    695.523    -23.563    515.256    693.727    515.256    517.085    515.256
 81.070    703.000    714.911    -11.911    515.231    713.191    515.231    516.992    515.231
 81.170    764.522    730.846     33.676    515.205    729.211    515.205    516.888    515.205
 81.270    758.864    742.267     16.597    515.178    740.718    515.178    516.781    515.178
 81.370    798.496    748.450     50.047    515.149    746.986    515.149    516.674    515.149
 81.470    713.694    749.091    -35.397    515.120    747.706    515.120    516.570    515.120
 81.570    771.953    744.324     27.629    515.089    743.009    515.089    516.472    515.089
 81.670    713.014    734.662    -21.648    515.057    733.409    515.057    516.379    515.057
 81.770    700.829    720.971    -20.141    515.024    719.771    515.024    516.294    515.024
 81.870    676.119    704.435    -28.316    514.989    703.279    514.989    516.215    514.989
 81.970    707.475    686.388     21.087    514.954    685.267    514.954    516.142    514.954
 82.070    687.000    668.036     18.964    514.917    666.942    514.917    516.074    514.917
 82.170    653.360    650.240      3.120    514.879    649.168    514.879    516.011    514.879
 82.270    659.879    633.468     26.411    514.839    632.412    514.839    515.951    514.839
 82.370    621.008    617.905      3.103    514.799    616.861    514.799    515.894    514.799
 82.470    604.000    603.633      0.367    514.757    602.597    514.757    515.838    514.757
 82.570    616.000    590.755     25.245    514.714    589.725    514.714    515.784    514.714
 82.670    561.000    579.427    -18.427    514.670    578.400    514.670    515.730    514.670
 82.770    514.000    569.821    -55.821    514.625    568.795    514.625    515.677    514.625
 82.870    589.801    562.091     27.710    514.578    561.064    514.578    515.624    514.578
 82.970    560.000    556.356      3.644    514.530    555.328    514.530    515.570    514.530
 83.070    550.000    552.683     -2.683    514.481    551.653    514.481    515.516    514.481
 83.170    517.819    551.070    -33.251    514.431    550.036    514.431    515.462    514.431
 83.270    516.104    551.420    -35.316    514.379    550.383    514.379    515.406    514.379
 83.370    518.000    553.528    -35.528    514.326    552.487    514.326    515.351    514.326
 83.470    546.000    557.064    -11.064    514.272    556.018    514.272    515.294    514.272
 83.570    559.000    561.574     -2.574    514.217    560.523    514.217    515.237    514.217
 83.670    561.000    566.495     -5.495    514.160    565.439    514.160    515.179    514.160
 83.770    584.000    571.181     12.819    514.102    570.122    514.102    515.120    514.102
 83.870    578.482    574.958      3.524    514.043    573.897    514.043    515.060    514.043
 83.970    564.000    577.209    -13.209    513.983    576.147    513.983    515.000    513.983
 84.070    498.000    577.502    -79.502    513.922    576.441    513.922    514.938    513.922
 84.170    592.000    575.708     16.292    513.859    574.648    513.859    514.876    513.859
 84.270    547.757    572.030    -24.273    513.795    570.974    513.795    514.813    513.795
 84.370    525.945    566.924    -40.979    513.729    565.871    513.729    514.749    513.729
 84.470    574.340    560.955     13.385    513.663    559.906    513.663    514.684    513.663
 84.570    545.000    554.679     -9.679    513.595    553.633    513.595    514.619    513.595
 84.670    565.000    548.572     16.428    513.526    547.528    513.526    514.552    513.526
 84.770    557.906    542.991     14.915    513.456    541.948    513.456    514.485    513.456
 84.870    552.000    538.164     13.836    513.384    537.122    513.384    514.416    513.384
 84.970    521.861    534.198    -12.337    513.311    533.154    513.311    514.347    513.311
 85.070    492.712    531.093    -38.381    513.237    530.047    513.237    514.277    513.237
 85.170    530.000    528.783      1.217    513.162    527.734    513.162    514.206    513.162
 85.270    550.000    527.157     22.843    513.086    526.104    513.086    514.134    513.086
 85.370    528.000    526.097      1.903    513.008    525.039    513.008    514.062    513.008
 85.470    548.000    525.494     22.506    512.929    524.431    512.929    513.988    512.929
 85.570    489.000    525.268    -36.268    512.848    524.198    512.848    513.913    512.848
 85.670    531.000    525.373      5.627    512.767    524.297    512.767    513.838    512.767
 85.770    506.000    525.807    -19.807    512.684    524.723    512.684    513.762    512.684
 85.870    540.000    526.609     13.391    512.600    525.517    512.600    513.685    512.600
 85.970    505.000    527.865    -22.865    512.515    526.763    512.515    513.607    512.515
 86.070    515.000    529.701    -14.701    512.428    528.589    512.428    513.529    512.428
 86.170    557.625    532.282     25.343    512.340    531.158    512.340    513.449    512.340
 86.270    539.201    535.800      3.400    512.251    534.663    512.251    513.369    512.251
 86.370    488.000    540.452    -52.452    512.161    539.300    512.161    513.288    512.161
 86.470    522.000    546.411    -24.411    512.069    545.241    512.069    513.206    512.069
 86.570    511.000    553.790    -42.790    511.977    552.601    511.977    513.124    511.977
 86.670    547.430    562.588    -15.158    511.883    561.377    511.883    513.041    511.883
 86.770    587.000    572.684     14.316    511.787    571.450    511.787    512.957    511.787
 86.870    560.433    583.769    -23.335    511.691    582.511    511.691    512.873    511.691
 86.970    602.000    595.323      6.677    511.593    594.041    511.593    512.787    511.593
 87.070    616.000    606.645      9.355    511.494    605.338    511.494    512.702    511.494
 87.170    592.722    616.871    -24.149    511.394    615.542    511.394    512.616    511.394
 87.270    638.000    625.061     12.939    511.292    623.711    511.292    512.529    511.292
 87.370    661.000    630.339     30.661    511.190    628.972    511.190    512.441    511.190
 87.470    639.311    632.101      7.210    511.086    630.721    511.086    512.354    511.086
 87.570    613.121    630.190    -17.069    510.981    628.800    510.981    512.265    510.981
 87.670    663.057    624.943     38.113    510.874    623.546    510.874    512.177    510.874
 87.770    612.000    617.088     -5.088    510.767    615.684    510.767    512.088    510.767
 87.870    626.000    607.559     18.441    510.658    606.149    510.658    511.999    510.658
 87.970    587.000    597.346    -10.346    510.548    595.929    510.548    511.909    510.548
 88.070    594.688    587.380      7.308    510.436    585.955    510.436    511.819    510.436
 88.170    582.058    578.470      3.587    510.324    577.034    510.324    511.730    510.324
 88.270    584.000    571.250     12.750    510.210    569.801    510.210    511.640    510.210
 88.370    549.000    566.156    -17.156    510.095    564.690    510.095    511.550    510.095
 88.470    560.744    563.416     -2.672    509.979    561.933    509.979    511.461    509.979
 88.570    570.000    563.062      6.938    509.862    561.558    509.862    511.372    509.862
 88.670    564.000    564.935     -0.935    509.744    563.409    509.744    511.283    509.744
 88.770    617.000    568.708     48.292    509.624    567.159    509.624    511.194    509.624
 88.870    623.000    573.911     49.089    509.503    572.337    509.503    511.107    509.503
 88.970    589.000    579.948      9.052    509.381    578.347    509.381    511.019    509.381
 89.070    577.941    586.135     -8.195    509.258    584.504    509.258    510.933    509.258
 89.170    604.058    591.736     12.322    509.133    590.072    509.133    510.848    509.133
 89.270    631.000    596.025     34.975    509.008    594.326    509.008    510.764    509.008
 89.370    591.004    598.384     -7.379    508.881    596.644    508.881    510.682    508.881
 89.470    589.000    598.415     -9.415    508.753    596.631    508.753    510.601    508.753
 89.570    525.000    596.038    -71.038    508.624    594.203    508.624    510.522    508.624
 89.670    602.486    591.491     10.995    508.493    589.600    508.493    510.446    508.493
 89.770    594.000    585.252      8.748    508.362    583.300    508.362    510.372    508.362
 89.870    591.903    577.913     13.990    508.229    575.893    508.229    510.301    508.229
 89.970    601.000    570.068     30.932    508.096    567.976    508.096    510.233    508.096
 90.070    574.000    562.248     11.752    507.961    560.078    507.961    510.170    507.961
 90.170    551.567    554.878     -3.311    507.825    552.624    507.825    510.111    507.825
 90.270    535.951    548.264    -12.312    507.687    545.920    507.687    510.057    507.687
 90.370    502.000    542.589    -40.589    507.549    540.149    507.549    510.010    507.549
 90.470    542.000    537.929      4.071    507.410    535.383    507.410    509.970    507.410
 90.570    581.000    534.266     46.734    507.269    531.606    507.269    509.940    507.269
 90.670    518.984    531.524    -12.540    507.128    528.738    507.128    509.921    507.128
 90.770    506.000    529.586    -23.586    506.985    526.660    506.985    509.917    506.985
 90.870    499.000    528.295    -29.295    506.841    525.209    506.841    509.930    506.841
 90.970    500.982    527.604    -26.622    506.696    524.335    506.696    509.967    506.696
 91.070    539.000    527.417     11.583    506.550    523.933    506.550    510.034    506.550
 91.170    512.124    527.669    -15.545    506.403    523.931    506.403    510.140    506.403
 91.270    570.218    528.354     41.864    506.254    524.310    506.254    510.297    506.254
 91.370    493.577    529.505    -35.928    506.105    525.090    506.105    510.518    506.105
 91.470    544.000    531.206     12.794    505.955    526.337    505.955    510.820    505.955
 91.570    541.000    533.587      7.413    505.803    528.160    505.803    511.225    505.803
 91.670    567.000    536.822     30.178    505.651    530.710    505.651    511.756    505.651
 91.770    533.000    541.127     -8.127    505.497    534.176    505.497    512.439    505.497
 91.870    570.000    546.743     23.257    505.343    538.772    505.343    513.302    505.343
 91.970    525.449    553.928    -28.478    505.187    544.725    505.187    514.373    505.187
 92.070    546.000    562.925    -16.925    505.030    552.255    505.030    515.680    505.030
 92.170    567.000    573.943     -6.943    504.873    561.546    504.873    517.244    504.873
 92.270    570.000    587.123    -17.123    504.714    572.724    504.714    519.081    504.714
 92.370    562.952    602.505    -39.552    504.554    585.823    504.554    521.198    504.554
 92.470    656.000    619.999     36.001    504.393    600.760    504.393    523.588    504.393
 92.570    689.698    639.374     50.324    504.232    617.327    504.232    526.227    504.232
 92.670    684.868    660.236     24.632    504.069    635.171    504.069    529.075    504.069
 92.770    642.949    682.015    -39.066    503.905    653.787    503.905    532.068    503.905
 92.870    689.000    703.993    -14.993    503.741    672.548    503.741    535.116    503.741
 92.970    812.000    725.355     86.645    503.575    690.756    503.575    538.100    503.575
 93.070    760.904    745.290     15.615    503.408    707.748    503.408    540.874    503.408
 93.170    713.267    763.118    -49.851    503.241    723.019    503.241    543.263    503.241
 93.270    806.511    778.417     28.094    503.072    736.325    503.072    545.087    503.072
 93.370    764.461    791.058    -26.597    502.903    747.706    502.903    546.179    502.903
 93.470    829.000    801.170     27.830    502.733    757.409    502.733    546.420    502.733
 93.570    838.000    809.063     28.937    502.561    765.783    502.561    545.771    502.561
 93.670    807.191    815.169     -7.978    502.389    773.207    502.389    544.283    502.389
 93.770    816.000    820.021     -4.021    502.216    780.088    502.216    542.084    502.216
 93.870    834.000    824.265      9.735    502.042    786.900    502.042    539.345    502.042
 93.970    825.000    828.635     -3.635    501.867    794.193    501.867    536.248    501.867
 94.070    840.000    833.851      6.149    501.691    802.519    501.691    532.965    501.691
 94.170    868.000    840.445     27.555    501.515    812.265    501.515    529.638    501.515
 94.270    827.951    848.580    -20.629    501.337    823.482    501.337    526.381    501.337
 94.370    812.152    857.940    -45.787    501.159    835.766    501.159    523.281    501.159
 94.470    908.000    867.704     40.296    500.980    848.239    500.980    520.397    500.980
 94.570    908.000    876.616     31.384    500.800    859.603    500.800    517.770    500.800
 94.670    867.960    883.127    -15.167    500.619    868.291    500.619    515.418    500.619
 94.770    951.000    885.622     65.378    500.437    872.682    500.437    513.347    500.437
 94.870    891.531    882.725      8.806    500.255    871.409    500.255    511.550    500.255
 94.970    886.000    873.618     12.382    500.072    863.668    500.072    510.009    500.072
 95.070    893.000    858.247     34.753    499.888    849.428    499.888    508.702    499.888
 95.170    852.000    837.401     14.599    499.703    829.505    499.703    507.602    499.703
 95.270    791.000    812.465    -21.465    499.518    805.311    499.518    506.680    499.518
 95.370    830.000    785.207     44.793    499.331    778.641    499.331    505.909    499.331
 95.470    790.000    757.549     32.451    499.145    751.443    499.145    505.263    499.145
 95.570    758.000    731.400     26.600    498.957    725.650    498.957    504.720    498.957
 95.670    737.000    708.551     28.449    498.768    703.071    498.768    504.259    498.768
 95.770    710.000    690.614     19.386    498.579    685.336    498.579    503.864    498.579
 95.870    699.000    678.994     20.006    498.389    673.863    498.389    503.521    498.389
 95.970    720.584    674.888     45.696    498.199    669.861    498.199    503.221    498.199
 96.070    723.692    679.293     44.399    498.008    674.334    498.008    502.954    498.008
 96.170    734.082    693.008     41.074    497.816    688.087    497.816    502.714    497.816
 96.270    686.818    716.627    -29.809    497.624    711.720    497.624    502.497    497.624
 96.370    756.000    750.500      5.500    497.430    745.586    497.430    502.301    497.430
 96.470    759.000    794.647    -35.647    497.237    789.707    497.237    502.121    497.237
 96.570    855.000    848.668      6.332    497.042    843.687    497.042    501.958    497.042
 96.670    925.000    911.637     13.363    496.847    906.599    496.847    501.809    496.847
 96.770    956.000    982.002    -26.002    496.652    976.894    496.652    501.674    496.652
 96.870   1084.000   1057.526     26.474    496.456   1052.335    496.456    501.554    496.456
 96.970   1124.000   1135.267    -11.267    496.259   1129.983    496.259    501.447    496.259
 97.070   1173.000   1211.624    -38.624    496.062   1206.235    496.062    501.355    496.062
 97.170   1249.510   1282.458    -32.948    495.864   1276.952    495.864    501.278    495.864
 97.270   1375.000   1343.341     31.659    495.666   1337.708    495.666    501.217    495.666
 97.370   1366.578   1389.979    -23.401    495.467   1384.207    495.467    501.172    495.467
 97.470   1388.000   1418.812    -30.812    495.268   1412.886    495.268    501.144    495.268
 97.570   1401.000   1427.655    -26.655    495.068   1421.559    495.068    501.137    495.068
 97.670   1374.309   1416.141    -41.833    494.868   1409.852    494.868    501.151    494.868
 97.770   1327.000   1385.739    -58.739    494.667   1379.232    494.667    501.189    494.667
 97.870   1408.000   1339.369     68.631    494.466   1332.611    494.466    501.256    494.466
 97.970   1236.836   1280.827    -43.990    494.265   1273.782    494.265    501.355    494.265
 98.070   1259.000   1214.259     44.741    494.063   1206.884    494.063    501.494    494.063
 98.170   1112.000   1143.784    -31.784    493.860   1136.025    493.860    501.680    493.860
 98.270   1093.099   1073.239     19.859    493.658   1065.033    493.658    501.926    493.658
 98.370   1029.019   1006.038     22.981    493.454    997.308    493.454    502.244    493.454
 98.470    978.000    945.086     32.914    493.251    935.736    493.251    502.656    493.251
 98.570    873.000    892.764    -19.764    493.047    882.675    493.047    503.183    493.047
 98.670    832.850    850.945    -18.095    492.843    839.968    492.843    503.858    492.843
 98.770    821.322    821.043      0.278    492.639    808.992    492.639    504.718    492.639
 98.870    804.020    804.128     -0.108    492.434    790.773    492.434    505.807    492.434
 98.970    811.000    800.955     10.045    492.229    786.009    492.229    507.184    492.229
 99.070    807.000    812.040     -5.040    492.023    795.151    492.023    508.912    492.023
 99.170    807.160    837.706    -30.546    491.818    818.452    491.818    511.063    491.818
 99.270    862.000    878.074    -16.074    491.612    855.955    491.612    513.717    491.612
 99.370    905.000    933.021    -28.021    491.406    907.452    491.406    516.956    491.406
 99.470    995.000   1002.102     -7.102    491.200    972.414    491.200    520.866    491.200
 99.570   1070.979   1084.450    -13.470    490.994   1049.894    490.994    525.528    490.994
 99.670   1131.000   1178.682    -47.682    490.787   1138.438    490.787    531.014    490.787
 99.770   1355.000   1282.801     72.199    490.580   1235.994    490.580    537.378    490.580
 99.870   1373.000   1394.131    -21.131    490.373   1339.855    490.373    544.653    490.373
 99.970   1530.000   1509.308     20.692    490.166   1446.655    490.166    552.838    490.166
100.070   1623.000   1624.344     -1.344    489.959   1552.446    489.959    561.896    489.959
100.170   1675.000   1734.827    -59.827    489.752   1652.899    489.752    571.743    489.752
100.270   1847.000   1836.245     10.755    489.545   1743.636    489.545    582.243    489.545
100.370   2039.000   1924.385    114.615    489.338   1820.640    489.338    593.199    489.338
100.470   1971.594   1995.679    -24.086    489.130   1880.601    489.130    604.353    489.130
100.570   2074.000   2047.369     26.631    488.923   1921.088    488.923    615.372    488.923
100.670   2125.000   2077.495     47.505    488.715   1940.545    488.715    625.857    488.715
100.770   2136.000   2084.866     51.134    488.508   1938.243    488.508    635.340    488.508
100.870   2098.000   2069.161     28.839    488.301   1914.368    488.301    643.317    488.301
100.970   2102.838   2031.192     71.646    488.094   1870.232    488.094    649.284    488.094
101.070   1931.000   1973.153    -42.153    487.886   1808.461    487.886    652.812    487.886
101.170   1925.000   1898.636     26.364    487.679   1732.930    487.679    653.616    487.679
101.270   1823.295   1812.306     10.989    487.472   1648.386    487.472    651.614    487.472
101.370   1716.000   1719.338     -3.338    487.265   1559.863    487.265    646.950    487.265
101.470   1564.498   1624.823    -60.325    487.059   1472.118    487.059    639.958    487.059
101.570   1542.000   1533.280      8.720    486.852   1389.211    486.852    631.098    486.852
101.670   1462.000   1448.343     13.657    486.646   1314.268    486.646    620.879    486.646
101.770   1395.402   1372.590     22.813    486.440   1249.371    486.440    609.801    486.440
101.870   1249.232   1307.498    -58.266    486.234   1195.547    486.234    598.311    486.234
101.970   1189.285   1253.472    -64.187    486.028   1152.821    486.028    586.792    486.028
102.070   1154.000   1209.941    -55.941    485.822   1120.312    485.822    575.553    485.822
102.170   1160.000   1175.498    -15.498    485.617   1096.373    485.617    564.836    485.617
102.270   1189.000   1148.088     40.912    485.412   1078.772    485.412    554.817    485.412
102.370   1064.928   1125.236    -60.308    485.208   1064.913    485.208    545.617    485.208
102.470   1042.000   1104.328    -62.328    485.004   1052.110    485.004    537.306    485.004
102.570   1038.000   1082.923    -44.923    484.800   1037.899    484.800    529.910    484.800
102.670   1007.577   1059.075    -51.498    484.596   1020.340    484.596    523.418    484.596
102.770   1089.733   1031.556     58.177    484.393    998.244    484.393    517.792    484.393
102.870    936.000    999.937    -63.937    484.191    971.244    484.191    512.971    484.191
102.970    990.824    964.501     26.323    483.988    939.696    483.988    508.879    483.988
103.070    963.000    926.044     36.956    483.787    904.479    483.787    505.435    483.787
103.170    854.000    885.658    -31.658    483.585    866.770    483.585    502.552    483.585
103.270    816.000    844.538    -28.538    483.385    827.848    483.385    500.149    483.385
103.370    857.000    803.856     53.144    483.184    788.962    483.184    498.147    483.184
103.470    759.344    764.665     -5.322    482.985    751.235    482.985    496.476    482.985
103.570    747.000    727.845     19.155    482.786    715.609    482.786    495.076    482.786
103.670    700.000    694.067      5.933    482.587    682.808    482.587    493.893    482.587
103.770    666.000    663.783      2.217    482.389    653.328    482.389    492.884    482.389
103.870    593.228    637.214    -43.986    482.192    627.427    482.192    492.013    482.192
103.970    596.000    614.405    -18.405    481.996    605.177    481.996    491.251    481.996
104.070    582.162    595.218    -13.056    481.800    586.463    481.800    490.577    481.800
104.170    620.147    579.394     40.752    481.605    571.045    481.605    489.972    481.605
104.270    534.596    566.594    -31.998    481.410    558.595    481.410    489.422    481.410
104.370    589.077    556.435     32.642    481.216    548.744    481.216    488.918    481.216
104.470    564.000    548.528     15.472    481.024    541.107    481.024    488.452    481.024
104.570    505.995    542.503    -36.508    480.831    535.322    480.831    488.017    480.831
104.670    512.000    538.027    -26.027    480.640    531.060    480.640    487.609    480.640
104.770    511.928    534.817    -22.889    480.450    528.043    480.450    487.225    480.450
104.870    578.175    532.646     45.529    480.260    526.044    480.260    486.862    480.260
104.970    503.553    531.343    -27.789    480.072    524.894    480.072    486.518    480.072
105.070    496.341    530.789    -34.449    479.884    524.479    479.884    486.191    479.884
105.170    520.000    530.920    -10.920    479.697    524.733    479.697    485.879    479.697
105.270    502.000    531.712    -29.712    479.511    525.636    479.511    485.582    479.511
105.370    511.000    533.186    -22.186    479.326    527.207    479.326    485.298    479.326
105.470    548.000    535.395     12.605    479.143    529.501    479.143    485.027    479.143
105.570    560.000    538.421     21.579    478.960    532.603    478.960    484.768    478.960
105.670    531.000    542.364    -11.364    478.778    536.610    478.778    484.520    478.778
105.770    558.000    547.327     10.673    478.598    541.627    478.598    484.282    478.598
105.870    534.716    553.404    -18.687    478.418    547.749    478.418    484.055    478.418
105.970    546.189    560.665    -14.476    478.240    555.047    478.240    483.837    478.240
106.070    614.983    569.142     45.841    478.063    563.552    478.063    483.629    478.063
106.170    626.941    578.814     48.127    477.887    573.243    477.887    483.430    477.887
106.270    593.000    589.597      3.403    477.712    584.039    477.712    483.240    477.712
106.370    577.000    601.340    -24.340    477.539    595.787    477.539    483.058    477.539
106.470    635.000    613.821     21.179    477.367    608.266    477.367    482.885    477.367
106.570    638.037    626.751     11.286    477.196    621.187    477.196    482.720    477.196
106.670    661.149    639.777     21.372    477.026    634.198    477.026    482.563    477.026
106.770    634.164    652.500    -18.336    476.858    646.900    476.858    482.415    476.858
106.870    696.491    664.490     32.001    476.691    658.864    476.691    482.274    476.691
106.970    650.000    675.314    -25.314    476.526    669.655    476.526    482.142    476.526
107.070    653.000    684.575    -31.575    476.362    678.877    476.362    482.017    476.362
107.170    679.000    691.960    -12.960    476.200    686.218    476.200    481.901    476.200
107.270    667.000    697.293    -30.293    476.039    691.502    476.039    481.792    476.039
107.370    751.661    700.575     51.085    475.879    694.728    475.879    481.692    475.879
107.470    659.000    701.991    -42.991    475.721    696.082    475.721    481.600    475.721
107.570    683.000    701.879    -18.879    475.565    695.901    475.565    481.517    475.565
107.670    715.092    700.680     14.413    475.410    694.626    475.410    481.442    475.410
107.770    685.015    698.864    -13.849    475.257    692.728    475.257    481.376    475.257
107.870    685.722    696.879    -11.157    475.106    690.652    475.106    481.319    475.106
107.970    678.000    695.096    -17.096    474.956    688.771    474.956    481.272    474.956
108.070    693.000    693.783     -0.783    474.809    687.353    474.809    481.234    474.809
108.170    672.857    693.088    -20.230    474.662    686.543    474.662    481.206    474.662
108.270    696.000    693.024      2.976    474.518    686.356    474.518    481.188    474.518
108.370    668.000    693.474    -25.474    474.375    686.675    474.375    481.180    474.375
108.470    693.000    694.202     -1.202    474.235    687.262    474.235    481.184    474.235
108.570    684.000    694.868    -10.868    474.096    687.776    474.096    481.200    474.096
108.670    703.302    695.064      8.239    473.959    687.811    473.959    481.227    473.959
108.770    745.000    694.358     50.642    473.824    686.933    473.824    481.267    473.824
108.870    649.425    692.356    -42.931    473.691    684.747    473.691    481.320    473.691
108.970    642.358    688.754    -46.396    473.560    680.950    473.560    481.387    473.560
109.070    631.012    683.393    -52.381    473.431    675.379    473.431    481.468    473.431
109.170    665.653    676.272    -10.619    473.304    668.036    473.304    481.565    473.304
109.270    678.000    667.544     10.456    473.179    659.070    473.179    481.679    473.179
109.370    658.000    657.474      0.526    473.057    648.746    473.057    481.809    473.057
109.470    653.000    646.380      6.620    472.936    637.382    472.936    481.958    472.936
109.570    648.000    634.661     13.339    472.818    625.375    472.818    482.127    472.818
109.670    636.000    622.705     13.295    472.702    613.112    472.702    482.317    472.702
109.770    636.000    610.840     25.160    472.588    600.919    472.588    482.529    472.588
109.870    662.000    599.375     62.625    472.476    589.102    472.476    482.766    472.476
109.970    684.000    588.570     95.430    472.367    577.921    472.367    483.031    472.367
110.070    637.000    578.635     58.365    472.260    567.583    472.260    483.325    472.260
110.170    555.000    569.722    -14.722    472.156    558.236    472.156    483.652    472.156
110.270    601.921    561.928     39.992    472.053    549.975    472.053    484.016    472.053
110.370    576.711    555.301     21.410    471.954    542.840    471.954    484.422    471.954
110.470    575.000    549.842     25.158    471.857    536.828    471.857    484.876    471.857
110.570    511.001    545.516    -34.515    471.762    531.896    471.762    485.386    471.762
110.670    545.000    542.261      2.739    471.670    527.973    471.670    485.960    471.670
110.770    523.000    539.997    -16.997    471.580    524.968    471.580    486.610    471.580
110.870    560.000    538.636     21.364    471.494    522.779    471.494    487.350    471.494
110.970    575.000    538.083     36.917    471.409    521.297    471.409    488.193    471.409
111.070    527.796    538.263    -10.467    471.328    520.418    471.328    489.170    471.328
111.170    558.000    539.098     18.902    471.249    520.040    471.249    490.303    471.249
111.270    503.000    540.527    -37.527    471.173    520.074    471.173    491.622    471.173
111.370    534.000    542.506     -8.506    471.100    520.436    471.100    493.164    471.100
111.470    514.000    545.008    -31.008    471.029    521.058    471.029    494.973    471.029
111.570    553.140    548.025      5.115    470.962    521.880    470.962    497.100    470.962
111.670    583.000    551.569     31.431    470.897    522.856    470.897    499.603    470.897
111.770    590.000    555.669     34.331    470.836    523.948    470.836    502.549    470.836
111.870    543.000    560.374    -17.374    470.777    525.131    470.777    506.012    470.777
111.970    522.499    565.750    -43.251    470.721    526.392    470.721    510.072    470.721
112.070    565.000    571.880     -6.880    470.669    527.725    470.669    514.816    470.669
112.170    557.000    578.853    -21.853    470.619    529.137    470.619    520.327    470.619
112.270    593.000    586.797      6.203    470.573    530.644    470.573    526.718    470.573
112.370    629.663    595.821     33.842    470.529    532.267    470.529    534.075    470.529
112.470    568.000    606.045    -38.045    470.489    534.039    470.489    542.486    470.489
112.570    531.000    617.588    -86.588    470.452    535.998    470.452    552.033    470.452
112.670    665.453    630.570     34.883    470.419    538.193    470.419    562.787    470.419
112.770    673.610    645.105     28.505    470.388    540.684    470.388    574.800    470.388
112.870    627.396    661.300    -33.904    470.362    543.551    470.362    588.102    470.362
112.970    666.000    679.262    -13.262    470.338    546.893    470.338    602.697    470.338
113.070    756.000    699.093     56.907    470.318    550.844    470.318    618.556    470.318
113.170    738.000    720.901     17.099    470.301    555.578    470.301    635.613    470.301
113.270    788.000    744.809     43.191    470.288    561.326    470.288    653.759    470.288
113.370    819.000    770.967     48.033    470.279    568.390    470.279    672.841    470.279
113.470    789.000    799.566    -10.566    470.272    577.168    470.272    692.655    470.272
113.570    790.000    830.863    -40.863    470.270    588.173    470.270    712.942    470.270
113.670    918.000    865.197     52.803    470.271    602.060    470.271    733.387    470.271
113.770    859.024    903.023    -43.999    470.276    619.655    470.276    753.617    470.276
113.870    987.151    944.933     42.218    470.285    641.987    470.285    773.198    470.285
113.970    983.000    991.695     -8.695    470.297    670.310    470.297    791.642    470.297
114.070   1108.213   1044.280     63.932    470.314    706.127    470.314    808.416    470.314
114.170   1098.000   1103.904     -5.904    470.334    751.207    470.334    822.967    470.334
114.270   1152.352   1172.061    -19.709    470.358    807.587    470.358    834.752    470.358
114.370   1223.000   1250.552    -27.552    470.386    877.556    470.386    843.283    470.386
114.470   1402.085   1341.503     60.582    470.418    963.620    470.418    848.178    470.418
114.570   1407.188   1447.348    -40.159    470.454   1068.445    470.454    849.206    470.454
114.670   1537.000   1570.771    -33.771    470.494   1194.763    470.494    846.319    470.494
114.770   1755.000   1714.594     40.406    470.538   1345.256    470.538    839.657    470.538
114.870   2014.000   1881.611    132.389    470.587   1522.406    470.587    829.530    470.587
114.970   2002.496   2074.368    -71.872    470.639   1728.321    470.639    816.379    470.639
115.070   2377.101   2294.929     82.172    470.696   1964.543    470.696    800.726    470.696
115.170   2537.000   2544.617     -7.617    470.757   2231.844    470.757    783.124    470.757
115.270   2892.000   2823.780     68.220    470.822   2530.025    470.822    764.121    470.822
115.370   3074.559   3131.580    -57.021    470.892   2857.737    470.892    744.228    470.892
115.470   3424.000   3465.823    -41.823    470.966   3212.327    470.966    723.909    470.966
115.570   3884.442   3822.851     61.591    471.045   3589.734    471.045    703.567    471.045
115.670   4085.000   4197.492   -112.492    471.128   3984.443    471.128    683.548    471.128
115.770   4457.000   4583.075   -126.075    471.215   4389.498    471.215    664.139    471.215
115.870   4855.206   4971.522   -116.316    471.308   4796.596    471.308    645.569    471.308
115.970   5094.000   5353.519   -259.519    471.404   5196.242    471.404    628.018    471.404
116.070   5528.000   5718.750   -190.750    471.506   5577.994    471.506    611.618    471.506
116.170   6197.252   6056.236    141.016    471.612   5930.786    471.612    596.454    471.612
116.270   6466.668   6354.774    111.895    471.723   6243.366    471.723    582.574    471.723
116.370   6591.000   6603.491    -12.491    471.839   6504.852    471.839    569.991    471.839
116.470   6828.000   6792.538     35.462    471.959   6705.408    471.959    558.687    471.959
116.570   6930.000   6913.877     16.123    472.085   6837.037    472.085    548.620    472.085
116.670   6999.073   6962.074     36.999    472.215   6894.364    472.215    539.728    472.215
116.770   6964.000   6934.798     29.202    472.351   6875.127    472.351    531.936    472.351
116.870   6887.000   6833.144     53.856    472.491   6780.503    472.491    525.155    472.491
116.970   6661.000   6661.476     -0.476    472.637   6614.944    472.637    519.295    472.637
117.070   6346.408   6426.916    -80.508    472.787   6385.663    472.787    514.261    472.787
117.170   5988.904   6138.624   -149.720    472.943   6101.908    472.943    509.960    472.943
117.270   5805.281   5807.015     -1.734    473.104   5774.183    473.104    506.302    473.104
117.370   5283.000   5443.046   -160.046    473.271   5413.528    473.271    503.203    473.271
117.470   5093.000   5057.628     35.372    473.442   5030.931    473.442    500.585    473.442
117.570   4628.000   4661.156    -33.156    473.619   4636.859    473.619    498.379    473.619
117.670   4447.000   4263.164    183.836    473.802   4240.910    473.802    496.522    473.802
117.770   4133.000   3872.068    260.932    473.989   3851.554    473.989    494.960    473.989
117.870   3638.000   3494.985    143.015    474.183   3475.960    474.183    493.644    474.183
117.970   3270.000   3137.647    132.353    474.382   3119.901    474.382    492.535    474.382
118.070   2746.678   2804.375    -57.697    474.586   2787.735    474.586    491.600    474.586
118.170   2417.914   2498.126    -80.212    474.796   2482.449    474.796    490.808    474.796
118.270   2184.000   2220.593    -36.593    475.012   2205.761    475.012    490.138    475.012
118.370   2015.000   1972.351     42.649    475.234   1958.269    475.234    489.570    475.234
118.470   1746.000   1753.026     -7.026    475.461   1739.614    475.461    489.089    475.461
118.570   1512.000   1561.472    -49.472    475.694   1548.665    475.694    488.681    475.694
118.670   1352.000   1395.965    -43.965    475.933   1383.708    475.933    488.337    475.933
118.770   1213.000   1254.373    -41.373    476.179   1242.620    476.179    488.048    476.179
118.870   1074.000   1134.323    -60.323    476.430   1123.036    476.430    487.809    476.430
118.970    999.000   1033.349    -34.349    476.687   1022.493    476.687    487.613    476.687
119.070    913.000    949.004    -36.004    476.950    938.549    476.950    487.457    476.950
119.170    833.000    878.953    -45.953    477.219    868.873    477.219    487.337    477.219
119.270    867.383    821.038     46.345    477.495    811.309    477.495    487.251    477.495
119.370    804.492    773.319     31.173    477.777    763.918    477.777    487.197    477.777
119.470    786.424    734.090     52.334    478.065    724.994    478.065    487.173    478.065
119.570    713.000    701.880     11.120    478.359    693.069    478.359    487.178    478.359
119.670    604.000    675.444    -71.444    478.660    666.899    478.660    487.211    478.660
119.770    666.000    653.747     12.253    478.967    645.447    478.967    487.272    478.967
119.870    625.381    635.936    -10.555    479.281    627.862    479.281    487.359    479.281
119.970    617.000    621.320     -4.320    479.602    613.452    479.602    487.473    479.602
120.070    564.000    609.342    -45.342    479.929    601.660    479.929    487.613    479.929
120.170    646.000    599.558     46.442    480.262    592.043    480.262    487.781    480.262
120.270    602.000    591.619     10.381    480.603    584.250    480.603    487.975    480.603
120.370    598.000    585.246     12.754    480.950    578.003    480.950    488.196    480.950
120.470    603.000    580.226     22.774    481.304    573.088    481.304    488.446    481.304
120.570    565.000    576.388    -11.388    481.665    569.334    481.665    488.724    481.665
120.670    574.000    573.603      0.397    482.033    566.610    482.033    489.031    482.033
120.770    614.439    571.769     42.670    482.408    564.815    482.408    489.367    482.408
120.870    610.000    570.805     39.195    482.789    563.866    482.789    489.734    482.789
120.970    594.000    570.646     23.354    483.178    563.701    483.178    490.131    483.178
121.070    558.000    571.241    -13.241    483.574    564.264    483.574    490.559    483.574
121.170    611.924    572.540     39.384    483.978    565.509    483.978    491.018    483.978
121.270    637.000    574.500     62.500    484.388    567.391    484.388    491.508    484.388
121.370    537.000    577.074    -40.074    484.806    569.864    484.806    492.029    484.806
121.470    613.712    580.214     33.498    485.232    572.880    485.232    492.581    485.232
121.570    545.648    583.865    -38.217    485.664    576.385    485.664    493.161    485.664
121.670    576.119    587.964    -11.845    486.105    580.317    486.105    493.770    486.105
121.770    606.025    592.439     13.587    486.552    584.607    486.552    494.405    486.552
121.870    574.243    597.209    -22.966    487.008    589.176    487.008    495.065    487.008
121.970    598.296    602.185     -3.889    487.471    593.936    487.471    495.746    487.471
122.070    599.119    607.267     -8.148    487.941    598.792    487.941    496.446    487.941
122.170    640.000    612.349     27.651    488.420    603.640    488.420    497.162    488.420
122.270    624.000    617.317      6.683    488.906    608.370    488.906    497.888    488.906
122.370    592.000    622.053    -30.053    489.401    612.871    489.401    498.621    489.401
122.470    641.000    626.442     14.558    489.903    617.030    489.903    499.355    489.903
122.570    656.075    630.368     25.707    490.413    620.740    490.413    500.084    490.413
122.670    655.000    633.729     21.271    490.931    623.902    490.931    500.803    490.931
122.770    633.000    636.435     -3.435    491.458    626.435    491.458    501.505    491.458
122.870    631.000    638.419     -7.419    491.992    628.276    491.992    502.183    491.992
122.970    596.960    639.639    -42.679    492.535    629.391    492.535    502.832    492.535
123.070    600.311    640.080    -39.770    493.086    629.770    493.086    503.446    493.086
123.170    671.000    639.757     31.243    493.646    629.431    493.646    504.021    493.646
123.270    679.815    638.706     41.109    494.214    628.415    494.214    504.553    494.214
123.370    678.000    636.988     41.012    494.790    626.782    494.790    505.043    494.790
123.470    597.544    634.676    -37.132    495.375    624.605    495.375    505.491    495.375
123.570    662.194    631.853     30.341    495.968    621.966    495.968    505.898    495.968
123.670    579.769    628.610    -48.841    496.571    618.951    496.571    506.270    496.571
123.770    636.000    625.036     10.964    497.182    615.644    497.182    506.612    497.182
123.870    666.222    621.220     45.002    497.801    612.128    497.801    506.928    497.801
123.970    657.000    617.244     39.756    498.430    608.479    498.430    507.227    498.430
124.070    670.000    613.182     56.818    499.067    604.765    499.067    507.513    499.067
124.170    643.078    609.101     33.978    499.714    601.047    499.714    507.793    499.714
124.270    609.000    605.053      3.947    500.369    597.372    500.369    508.073    500.369
124.370    555.933    601.082    -45.149    501.034    593.777    501.034    508.358    501.034
124.470    561.592    597.218    -35.626    501.708    590.290    501.708    508.653    501.708
124.570    537.000    593.481    -56.481    502.391    586.926    502.391    508.961    502.391
124.670    599.493    589.883      9.609    503.083    583.692    503.083    509.286    503.083
124.770    565.631    586.424    -20.792    503.785    580.587    503.785    509.632    503.785
124.870    535.891    583.107    -47.217    504.496    577.612    504.496    510.000    504.496
124.970    604.000    579.926     24.074    505.216    574.757    505.216    510.393    505.216
