neutron_powder_diffraction_0017
R_wp: 3.592
Temperature (K): 481.813
Counts: 83268.00
Wavelength (Ã…): 2.52098
COMMENTS
Test file for demonstrating the .xyy file format in Reel1.0
END OF HEADER
   tth       Y_obs     Y_calc      Y_res    Background    Phase_1_Nuc    Phase_1_Mag    Phase_2_Nuc    Phase_2_Mag
  9.970    774.000    728.612     45.388    726.816    727.935    727.492    726.816    726.816
 10.070    728.623    727.587      1.036    725.693    726.902    726.377    725.693    725.693
 10.170    716.688    726.579     -9.891    724.576    725.887    725.267    724.576    724.576
 10.270    715.993    725.591     -9.599    723.465    724.892    724.163    723.465    723.465
 10.370    727.000    724.627      2.373    722.359    723.921    723.065    722.359    722.359
 10.470    733.000    723.691      9.309    721.259    722.977    721.972    721.259    721.259
 10.570    726.048    722.788      3.260    720.164    722.066    720.886    720.164    720.164
 10.670    702.000    721.921    -19.921    719.075    721.190    719.804    719.075    719.075
 10.770    727.000    721.099      5.901    717.991    720.360    718.729    717.991    717.991
 10.870    760.768    720.335     40.433    716.913    719.588    717.659    716.913    716.913
 10.970    726.180    719.643      6.538    715.841    718.887    716.594    715.841    715.841
 11.070    783.000    719.040     63.960    714.774    718.276    715.536    714.774    714.774
 11.170    732.000    718.557     13.443    713.712    717.784    714.483    713.712    713.712
 11.270    759.751    718.236     41.516    712.656    717.454    713.436    712.656    712.656
 11.370    726.000    718.144      7.856    711.606    717.353    712.394    711.606    711.606
 11.470    715.144    718.411     -3.267    710.560    717.610    711.358    710.560    710.560
 11.570    761.000    719.306     41.694    709.521    718.495    710.327    709.521    709.521
 11.670    748.000    721.412     26.588    708.487    720.589    709.303    708.487    708.487
 11.770    679.774    725.855    -46.080    707.458    725.020    708.283    707.458    707.458
 11.870    822.000    734.422     87.578    706.435    733.572    707.270    706.435    706.435
 11.970    809.000    749.146     59.854    705.417    748.278    706.262    705.417    705.417
 12.070    825.000    770.965     54.035    704.405    770.074    705.260    704.405    704.405
 12.170    914.000    797.326    116.674    703.398    796.410    704.263    703.398    703.398
 12.270    832.616    819.267     13.349    702.396    818.329    703.272    702.396    702.396
 12.370    836.162    823.908     12.254    701.400    822.956    702.286    701.400    701.400
 12.470    812.000    806.991      5.009    700.409    806.037    701.306    700.409    700.409
 12.570    750.355    779.061    -28.707    699.424    778.111    700.332    699.424    699.424
 12.670    786.759    752.342     34.417    698.444    751.394    699.363    698.444    698.444
 12.770    685.000    732.209    -47.209    697.469    731.259    698.400    697.469    697.469
 12.870    720.000    719.000      1.000    696.499    718.045    697.442    696.499    696.499
 12.970    714.000    710.932      3.068    695.535    709.970    696.490    695.535    695.535
 13.070    686.000    705.972    -19.972    694.577    705.000    695.543    694.577    694.577
 13.170    676.000    702.662    -26.662    693.623    701.679    694.602    693.623    693.623
 13.270    747.850    700.192     47.657    692.675    699.198    693.666    692.675    692.675
 13.370    710.304    698.176     12.128    691.732    697.170    692.736    691.732    691.732
 13.470    627.000    696.437    -69.437    690.795    695.418    691.812    690.795    690.795
 13.570    689.000    694.886     -5.886    689.862    693.854    690.893    689.862    689.862
 13.670    645.000    693.471    -48.471    688.935    692.426    689.979    688.935    688.935
 13.770    712.853    692.160     20.693    688.014    691.101    689.071    688.014    688.014
 13.870    677.685    690.928    -13.243    687.097    689.855    688.169    687.097    687.097
 13.970    715.000    689.758     25.242    686.186    688.672    687.272    686.186    686.186
 14.070    742.000    688.640     53.360    685.280    687.538    686.380    685.280    685.280
 14.170    686.000    687.562     -1.562    684.379    686.446    685.494    684.379    684.379
 14.270    625.000    686.519    -61.519    683.483    685.388    684.614    683.483    683.483
 14.370    668.000    685.506    -17.506    682.593    684.359    683.739    682.593    682.593
 14.470    654.043    684.516    -30.473    681.707    683.354    682.869    681.707    681.707
 14.570    651.000    683.551    -32.551    680.827    682.372    682.005    680.827    680.827
 14.670    720.000    682.608     37.392    679.952    681.413    681.147    679.952    679.952
 14.770    727.548    681.680     45.869    679.082    680.467    680.294    679.082    679.082
 14.870    667.065    680.763    -13.698    678.217    679.533    679.447    678.217    678.217
 14.970    731.000    679.859     51.141    677.358    678.611    678.605    677.358    677.358
 15.070    605.000    678.967    -73.967    676.503    677.702    677.768    676.503    676.503
 15.170    676.000    678.087     -2.087    675.654    676.804    676.937    675.654    675.654
 15.270    684.000    677.218      6.782    674.810    675.916    676.112    674.810    674.810
 15.370    656.060    676.360    -20.299    673.970    675.038    675.292    673.970    673.970
 15.470    653.141    675.518    -22.377    673.136    674.176    674.477    673.136    673.136
 15.570    708.870    674.702     34.168    672.307    673.341    673.668    672.307    672.307
 15.670    622.000    673.873    -51.873    671.483    672.491    672.864    671.483    671.483
 15.770    677.000    673.052      3.948    670.664    671.649    672.066    670.664    670.664
 15.870    682.000    672.237      9.763    669.850    670.812    671.274    669.850    669.850
 15.970    691.000    671.429     19.571    669.041    669.983    670.487    669.041    669.041
 16.070    656.000    670.629    -14.629    668.237    669.160    669.705    668.237    668.237
 16.170    631.000    669.836    -38.836    667.438    668.344    668.929    667.438    667.438
 16.270    639.571    669.051    -29.480    666.643    667.535    668.159    666.643    666.643
 16.370    671.000    668.273      2.727    665.854    666.734    667.394    665.854    665.854
 16.470    710.681    667.515     43.166    665.070    665.950    666.635    665.070    665.070
 16.570    687.000    666.752     20.248    664.291    665.162    665.881    664.291    664.291
 16.670    622.237    665.994    -43.757    663.517    664.378    665.133    663.517    663.517
 16.770    702.672    665.243     37.429    662.747    663.600    664.390    662.747    662.747
 16.870    622.229    664.498    -42.269    661.983    662.828    663.653    661.983    661.983
 16.970    716.000    663.768     52.232    661.223    662.069    662.921    661.223    661.223
 17.070    682.783    663.108     19.676    660.468    661.378    662.198    660.468    660.468
 17.170    649.000    662.391    -13.391    659.718    660.630    661.479    659.718    659.718
 17.270    651.000    661.672    -10.672    658.973    659.881    660.764    658.973    658.973
 17.370    639.000    660.960    -21.960    658.233    659.138    660.055    658.233    658.233
 17.470    676.860    660.254     16.605    657.498    658.400    659.352    657.498    657.498
 17.570    630.000    659.555    -29.555    656.768    657.668    658.654    656.768    656.768
 17.670    655.000    658.861     -3.861    656.042    656.941    657.962    656.042    656.042
 17.770    601.000    658.174    -57.174    655.321    656.220    657.276    655.321    655.321
 17.870    659.261    657.494      1.767    654.605    655.504    656.595    654.605    654.605
 17.970    613.000    656.820    -43.820    653.894    654.793    655.920    653.894    653.894
 18.070    625.000    656.152    -31.152    653.187    654.087    655.251    653.187    653.187
 18.170    661.853    655.490      6.363    652.485    653.387    654.588    652.485    652.485
 18.270    657.000    654.836      2.164    651.788    652.693    653.931    651.788    651.788
 18.370    678.000    654.199     23.801    651.096    652.015    653.279    651.096    651.096
 18.470    635.000    653.557    -18.557    650.408    651.332    652.634    650.408    650.408
 18.570    615.695    652.926    -37.231    649.725    650.657    651.994    649.725    649.725
 18.670    691.748    652.296     39.451    649.047    649.983    651.360    649.047    649.047
 18.770    613.556    651.673    -38.117    648.373    649.314    650.733    648.373    648.373
 18.870    630.000    651.056    -21.056    647.704    648.650    650.111    647.704    647.704
 18.970    658.000    650.446      7.554    647.040    647.991    649.495    647.040    647.040
 19.070    633.947    649.843    -15.896    646.381    647.338    648.886    646.381    646.381
 19.170    617.880    649.257    -31.377    645.726    646.699    648.283    645.726    645.726
 19.270    623.000    648.684    -25.684    645.075    646.073    647.686    645.075    645.075
 19.370    636.000    648.107    -12.107    644.429    645.439    647.097    644.429    644.429
 19.470    599.807    647.576    -47.769    643.788    644.837    646.527    643.788    643.788
 19.570    617.000    647.039    -30.039    643.152    644.231    645.960    643.152    643.152
 19.670    641.000    646.481     -5.481    642.520    643.611    645.390    642.520    642.520
 19.770    641.250    645.927     -4.677    641.892    642.994    644.825    641.892    641.892
 19.870    618.000    645.379    -27.379    641.269    642.381    644.267    641.269    641.269
 19.970    628.000    644.845    -16.845    640.651    641.777    643.718    640.651    640.651
 20.070    662.000    644.368     17.632    640.037    641.209    643.196    640.037    640.037
 20.170    612.605    643.915    -31.310    639.427    640.676    642.667    639.427    639.427
 20.270    673.688    643.435     30.253    638.823    640.120    642.138    638.823    638.823
 20.370    680.624    642.962     37.661    638.222    639.568    641.616    638.222    638.222
 20.470    609.000    642.482    -33.482    637.626    639.007    641.101    637.626    637.626
 20.570    686.542    642.029     44.513    637.035    638.466    640.598    637.035    637.035
 20.670    617.000    641.556    -24.556    636.448    637.903    640.100    636.448    636.448
 20.770    562.000    641.082    -79.082    635.865    637.340    639.607    635.865    635.865
 20.870    627.769    640.617    -12.848    635.287    636.782    639.122    635.287    635.287
 20.970    669.462    640.163     29.299    634.713    636.232    638.644    634.713    634.713
 21.070    599.000    639.716    -40.716    634.143    635.684    638.175    634.143    634.143
 21.170    651.000    639.278     11.722    633.578    635.143    637.714    633.578    633.578
 21.270    663.142    638.850     24.292    633.018    634.606    637.261    633.018    633.018
 21.370    605.000    638.433    -33.433    632.461    634.077    636.818    632.461    632.461
 21.470    629.000    638.037     -9.037    631.909    633.563    636.383    631.909    631.909
 21.570    607.000    637.645    -30.645    631.361    633.048    635.958    631.361    631.361
 21.670    666.000    637.261     28.739    630.818    632.537    635.542    630.818    630.818
 21.770    621.000    636.889    -15.889    630.279    632.032    635.136    630.279    630.279
 21.870    599.000    636.530    -37.530    629.744    631.535    634.739    629.744    629.744
 21.970    641.000    636.185      4.815    629.213    631.045    634.354    629.213    629.213
 22.070    614.000    635.853    -21.853    628.687    630.562    633.979    628.687    628.687
 22.170    611.000    635.538    -24.538    628.165    630.088    633.615    628.165    628.165
 22.270    587.424    635.236    -47.812    627.647    629.621    633.262    627.647    627.647
 22.370    637.000    634.951      2.049    627.134    629.163    632.922    627.134    627.134
 22.470    655.165    634.684     20.481    626.624    628.714    632.594    626.624    626.624
 22.570    667.000    634.435     32.565    626.119    628.275    632.280    626.119    626.119
 22.670    662.000    634.207     27.793    625.618    627.847    631.979    625.618    625.618
 22.770    645.000    634.002     10.998    625.121    627.432    631.692    625.121    625.121
 22.870    635.000    633.827      1.173    624.628    627.034    631.422    624.628    624.628
 22.970    668.000    633.675     34.325    624.140    626.649    631.166    624.140    624.140
 23.070    640.000    633.551      6.449    623.655    626.280    630.926    623.655    623.655
 23.170    618.000    633.461    -15.461    623.175    625.931    630.705    623.175    623.175
 23.270    666.953    633.408     33.545    622.699    625.606    630.501    622.699    622.699
 23.370    638.000    633.398      4.602    622.227    625.308    630.317    622.227    622.227
 23.470    597.910    633.438    -35.529    621.758    625.045    630.153    621.758    621.758
 23.570    632.000    633.537     -1.537    621.294    624.822    630.011    621.294    621.294
 23.670    638.000    633.707      4.293    620.834    624.650    629.892    620.834    620.834
 23.770    587.119    633.962    -46.844    620.378    624.545    629.798    620.378    620.378
 23.870    681.566    634.326     47.240    619.926    624.524    629.730    619.926    619.926
 23.970    669.305    634.829     34.475    619.478    624.618    629.691    619.478    619.478
 24.070    638.000    635.525      2.475    619.034    624.879    629.683    619.034    619.034
 24.170    641.000    636.510      4.490    618.594    625.399    629.708    618.594    618.594
 24.270    672.000    637.983     34.017    618.158    626.377    629.768    618.158    618.158
 24.370    661.000    640.355     20.645    617.726    628.220    629.867    617.726    617.726
 24.470    648.000    644.370      3.630    617.298    631.669    630.007    617.298    617.298
 24.570    703.000    651.132     51.868    616.874    637.826    630.193    616.874    616.874
 24.670    665.294    661.811      3.482    616.454    647.857    630.429    616.454    616.454
 24.770    703.000    676.854     26.146    616.037    662.204    630.719    616.037    616.037
 24.870    698.000    694.627      3.373    615.625    679.227    631.069    615.625    615.625
 24.970    719.000    709.898      9.102    615.216    693.685    631.485    615.216    615.216
 25.070    673.062    714.890    -41.828    614.811    697.786    631.974    614.811    614.811
 25.170    688.000    706.401    -18.401    614.410    688.319    632.543    614.410    614.410
 25.270    731.000    690.323     40.677    614.013    671.172    633.203    614.013    614.013
 25.370    642.000    674.298    -32.298    613.619    653.981    633.963    613.619    613.619
 25.470    686.274    662.120     24.155    613.230    640.530    634.837    613.230    613.230
 25.570    641.000    654.415    -13.415    612.844    631.432    635.837    612.844    612.844
 25.670    626.050    650.328    -24.277    612.462    625.815    636.982    612.462    612.462
 25.770    689.346    648.658     40.688    612.084    622.456    638.291    612.084    612.084
 25.870    641.000    648.448     -7.448    611.709    620.373    639.786    611.709    611.709
 25.970    695.188    649.126     46.062    611.338    618.968    641.498    611.338    611.338
 26.070    669.000    650.419     18.581    610.971    617.933    643.458    610.971    610.971
 26.170    664.000    652.226     11.774    610.608    617.126    645.709    610.608    610.608
 26.270    657.136    654.534      2.602    610.248    616.481    648.301    610.248    610.248
 26.370    686.000    657.350     28.650    609.892    615.953    651.288    609.892    609.892
 26.470    666.504    660.732      5.772    609.540    615.522    654.748    609.540    609.540
 26.570    692.000    664.764     27.236    609.191    615.179    658.775    609.191    609.191
 26.670    706.595    669.559     37.036    608.846    614.916    663.487    608.846    608.846
 26.770    666.000    675.268     -9.268    608.504    614.733    669.037    608.504    608.504
 26.870    685.000    682.088      2.912    608.166    614.633    675.619    608.166    608.166
 26.970    670.000    690.287    -20.287    607.832    614.623    683.492    607.832    607.832
 27.070    707.000    700.223      6.777    607.501    614.718    693.002    607.501    607.501
 27.170    690.000    712.386    -22.386    607.174    614.937    704.617    607.174    607.174
 27.270    781.000    727.459     53.541    606.850    615.311    718.992    606.850    606.850
 27.370    730.000    746.416    -16.416    606.530    615.882    737.055    606.530    606.530
 27.470    748.745    770.705    -21.960    606.213    616.719    760.188    606.213    606.213
 27.570    803.000    802.637      0.363    605.900    617.927    790.596    605.900    605.900
 27.670    846.000    846.902     -0.902    605.591    619.720    832.753    605.591    605.591
 27.770    933.913    916.422     17.491    605.284    622.689    898.988    605.284    605.284
 27.870   1053.000   1051.525      1.475    604.982    628.672   1027.781    604.982    604.982
 27.970   1332.000   1362.202    -30.202    604.682    642.668   1324.102    604.682    604.682
 28.070   1970.000   2069.800    -99.800    604.386    674.739   1999.191    604.386    604.386
 28.170   3350.287   3444.474    -94.187    604.094    737.169   3310.894    604.094    604.094
 28.270   5370.000   5526.995   -156.995    603.805    831.842   5298.147    603.805    603.805
 28.370   7577.000   7747.376   -170.376    603.519    932.959   7416.952    603.519    603.519
 28.470   8822.000   8888.080    -66.080    603.237    985.432   8505.092    603.237    603.237
 28.570   8214.685   8124.659     90.026    602.958    952.309   7775.028    602.958    602.958
 28.670   6473.000   6215.324    257.676    602.683    869.053   5949.083    602.683    602.683
 28.770   4364.354   4495.922   -131.568    602.410    798.015   4300.560    602.410    602.410
 28.870   3713.000   3723.435    -10.435    602.141    775.199   3550.546    602.141    602.141
 28.970   3875.000   3907.147    -32.147    601.876    800.743   3708.358    601.876    601.876
 29.070   4602.000   4545.820     56.180    601.613    847.406   4300.109    601.613    601.613
 29.170   4943.000   4908.169     34.831    601.354    872.917   4636.814    601.354    601.354
 29.270   4531.000   4509.491     21.509    601.098    848.695   4262.264    601.098    601.098
 29.370   3622.894   3554.532     68.362    600.846    788.606   3367.193    600.846    600.846
 29.470   2427.000   2534.614   -107.614    600.596    724.165   2411.396    600.596    600.596
 29.570   1717.508   1754.692    -37.183    600.350    674.861   1680.416    600.350    600.350
 29.670   1313.259   1274.751     38.507    600.107    644.559   1230.434    600.107    600.107
 29.770    961.741   1020.120    -58.379    599.867    628.544    991.513    599.867    599.867
 29.870    934.000    892.807     41.193    599.631    620.611    871.863    599.631    599.631
 29.970    824.453    825.301     -0.848    599.397    616.486    808.233    599.397    599.397
 30.070    834.000    784.060     49.940    599.167    614.059    769.181    599.167    599.167
 30.170    804.000    755.426     48.574    598.940    612.485    741.888    598.940    598.940
 30.270    753.125    734.157     18.969    598.716    611.473    721.405    598.716    598.716
 30.370    702.000    718.064    -16.064    598.495    610.961    705.601    598.495    598.495
 30.470    683.578    706.258    -22.680    598.277    611.074    693.461    598.277    598.277
 30.570    730.000    698.840     31.160    598.062    612.221    684.677    598.062    598.062
 30.670    681.320    697.021    -15.700    597.850    615.237    679.625    597.850    597.850
 30.770    717.000    702.969     14.031    597.641    621.344    679.249    597.641    597.641
 30.870    720.000    718.681      1.319    597.436    631.636    684.450    597.436    597.436
 30.970    776.000    743.581     32.419    597.233    645.937    694.829    597.233    597.233
 31.070    775.970    771.383      4.588    597.033    661.305    707.047    597.033    597.033
 31.170    788.000    788.719     -0.719    596.836    671.377    714.108    596.836    596.836
 31.270    835.000    782.859     52.141    596.643    670.081    709.356    596.643    596.643
 31.370    766.560    755.253     11.307    596.452    658.150    693.506    596.452    596.452
 31.470    740.000    719.419     20.581    596.264    642.111    673.540    596.264    596.264
 31.570    687.249    687.436     -0.187    596.079    627.792    655.704    596.079    596.079
 31.670    692.000    664.266     27.734    595.897    617.599    642.553    595.897    595.897
 31.770    711.000    649.614     61.386    595.717    611.409    633.916    595.717    595.717
 31.870    671.000    640.989     30.011    595.541    608.039    628.487    595.541    595.541
 31.970    663.000    635.873     27.127    595.368    606.292    624.946    595.368    595.368
 32.070    628.208    632.591     -4.384    595.197    605.374    622.412    595.197    595.197
 32.170    651.000    630.280     20.720    595.029    604.880    620.427    595.029    595.029
 32.270    600.527    628.557    -28.030    594.864    604.637    618.782    594.864    594.864
 32.370    627.887    627.264      0.623    594.702    604.578    617.387    594.702    594.702
 32.470    578.409    626.332    -47.923    594.543    604.678    616.195    594.543    594.543
 32.570    629.000    625.731      3.269    594.386    604.934    615.182    594.386    594.386
 32.670    641.655    625.456     16.198    594.232    605.354    614.334    594.232    594.232
 32.770    615.988    625.521     -9.533    594.081    605.956    613.645    594.081    594.081
 32.870    655.000    625.959     29.041    593.933    606.773    613.117    593.933    593.933
 32.970    615.000    626.824    -11.824    593.787    607.850    612.760    593.787    593.787
 33.070    644.000    628.205     15.795    593.644    609.254    612.594    593.644    593.644
 33.170    625.000    630.233     -5.233    593.504    611.083    612.653    593.504    593.504
 33.270    685.000    633.124     51.876    593.366    613.495    612.994    593.366    593.366
 33.370    642.961    637.270      5.691    593.231    616.771    613.728    593.231    593.231
 33.470    656.574    643.492     13.081    593.099    621.499    615.090    593.099    593.099
 33.570    680.000    653.607     26.393    592.969    628.973    617.600    592.969    592.969
 33.670    703.000    671.400     31.600    592.842    641.887    622.348    592.842    592.842
 33.770    722.922    703.682     19.240    592.718    665.089    631.298    592.718    592.718
 33.870    769.000    760.198      8.802    592.596    705.514    647.259    592.596    592.596
 33.970    901.000    850.506     50.494    592.476    769.965    672.988    592.476    592.476
 34.070    924.924    976.780    -51.856    592.360    859.990    709.111    592.360    592.360
 34.170   1142.000   1123.521     18.479    592.245    964.570    751.159    592.245    592.245
 34.270   1292.000   1248.221     43.779    592.134   1053.463    786.866    592.134    592.134
 34.370   1223.082   1290.209    -67.127    592.024   1083.502    798.727    592.024    592.024
 34.470   1225.000   1221.762      3.238    591.918   1034.954    778.739    591.918    591.918
 34.570   1091.100   1084.169      6.931    591.813    937.190    738.812    591.813    591.813
 34.670    873.000    938.284    -65.284    591.712    833.510    696.503    591.712    591.712
 34.770    808.000    819.651    -11.651    591.612    749.208    662.067    591.612    591.612
 34.870    768.000    737.974     30.026    591.515    691.191    638.307    591.515    591.515
 34.970    650.971    688.121    -37.150    591.421    655.807    623.739    591.421    591.421
 35.070    653.438    659.822     -6.384    591.329    635.751    615.402    591.329    591.329
 35.170    658.000    643.859     14.141    591.239    624.464    610.635    591.239    591.239
 35.270    675.000    634.249     40.751    591.152    617.688    607.713    591.152    591.152
 35.370    622.082    627.841     -5.759    591.067    613.183    605.726    591.067    591.067
 35.470    671.000    623.173     47.827    590.984    609.905    604.252    590.984    590.984
 35.570    614.000    619.580     -5.580    590.904    607.384    603.100    590.904    590.904
 35.670    619.342    616.731      2.611    590.826    605.382    602.175    590.826    590.826
 35.770    607.000    614.432     -7.432    590.750    603.761    601.421    590.750    590.750
 35.870    578.000    612.557    -34.557    590.677    602.431    600.803    590.677    590.677
 35.970    604.000    611.017     -7.017    590.606    601.326    600.296    590.606    590.606
 36.070    607.000    609.746     -2.746    590.537    600.400    599.883    590.537    590.537
 36.170    616.000    608.699      7.301    590.470    599.618    599.551    590.470    590.470
 36.270    565.494    607.841    -42.347    590.406    598.954    599.293    590.406    590.406
 36.370    628.461    607.150     21.311    590.343    598.387    599.106    590.343    590.343
 36.470    652.000    606.607     45.393    590.283    597.904    598.987    590.283    590.283
 36.570    647.000    606.204     40.796    590.226    597.493    598.937    590.226    590.226
 36.670    562.481    605.937    -43.456    590.170    597.145    598.962    590.170    590.170
 36.770    638.000    605.809     32.191    590.116    596.856    599.070    590.116    590.116
 36.870    604.516    605.830     -1.314    590.065    596.623    599.272    590.065    590.065
 36.970    583.000    606.019    -23.019    590.016    596.448    599.587    590.016    590.016
 37.070    573.000    606.410    -33.410    589.969    596.339    600.040    589.969    589.969
 37.170    605.419    607.064     -1.645    589.924    596.318    600.670    589.924    589.924
 37.270    618.000    608.092      9.908    589.881    596.429    601.543    589.881    589.881
 37.370    618.879    609.697      9.182    589.840    596.757    602.781    589.840    589.840
 37.470    613.044    612.260      0.785    589.801    597.426    604.635    589.801    589.801
 37.570    597.000    616.459    -19.459    589.764    598.594    607.629    589.764    589.764
 37.670    640.000    623.428     16.572    589.729    600.396    612.761    589.729    589.729
 37.770    625.502    634.818     -9.315    589.696    602.852    621.663    589.696    589.696
 37.870    619.000    652.535    -33.535    589.666    605.733    636.468    589.666    589.666
 37.970    638.095    677.864    -39.769    589.637    608.412    659.090    589.637    589.637
 38.070    706.000    710.123     -4.123    589.610    609.901    689.833    589.610    589.610
 38.170    741.000    745.445     -4.445    589.585    609.534    725.498    589.585    589.585
 38.270    761.834    775.447    -13.613    589.562    607.618    757.395    589.562    589.562
 38.370    803.185    787.585     15.599    589.541    604.954    772.180    589.541    589.541
 38.470    729.517    774.218    -44.701    589.522    602.188    761.563    589.522    589.522
 38.570    708.658    741.959    -33.301    589.504    599.741    731.736    589.504    589.504
 38.670    695.000    704.219     -9.219    589.489    597.831    695.889    589.489    589.489
 38.770    648.000    670.705    -22.705    589.475    596.478    663.712    589.475    589.475
 38.870    660.323    645.432     14.891    589.464    595.584    639.318    589.464    589.464
 38.970    658.517    628.495     30.022    589.454    595.017    622.936    589.454    589.454
 39.070    604.000    618.064    -14.064    589.446    594.661    612.851    589.446    589.446
 39.170    592.000    611.903    -19.903    589.439    594.434    606.910    589.439    589.439
 39.270    587.000    608.216    -21.216    589.435    594.283    603.370    589.435    589.435
 39.370    582.000    605.866    -23.866    589.432    594.180    601.119    589.432    589.432
 39.470    642.500    604.236     38.264    589.431    594.109    599.558    589.431    589.431
 39.570    599.000    603.023     -4.023    589.432    594.063    598.393    589.432    589.432
 39.670    570.779    602.080    -31.301    589.434    594.036    597.480    589.434    589.434
 39.770    635.000    601.330     33.670    589.438    594.026    596.744    589.438    589.438
 39.870    601.097    600.726      0.371    589.444    594.030    596.140    589.444    589.444
 39.970    566.851    600.236    -33.385    589.452    594.049    595.640    589.452    589.452
 40.070    613.000    599.838     13.162    589.461    594.080    595.220    589.461    589.461
 40.170    619.000    599.516     19.484    589.472    594.124    594.865    589.472    589.472
 40.270    593.000    599.258     -6.258    589.485    594.180    594.563    589.485    589.485
 40.370    607.000    599.054      7.946    589.499    594.249    594.305    589.499    589.499
 40.470    599.000    598.898      0.102    589.514    594.331    594.082    589.514    589.514
 40.570    634.000    598.785     35.215    589.532    594.426    593.891    589.532    589.532
 40.670    621.000    598.709     22.291    589.551    594.535    593.725    589.551    589.551
 40.770    599.000    598.668      0.332    589.571    594.658    593.583    589.571    589.571
 40.870    569.000    598.667    -29.667    589.593    594.802    593.459    589.593    589.593
 40.970    570.005    598.704    -28.699    589.617    594.968    593.353    589.617    589.617
 41.070    582.000    598.777    -16.777    589.642    595.157    593.262    589.642    589.642
 41.170    606.000    598.890      7.110    589.669    595.374    593.185    589.669    589.669
 41.270    638.531    599.047     39.484    589.697    595.623    593.121    589.697    589.697
 41.370    570.000    599.252    -29.252    589.726    595.911    593.069    589.726    589.726
 41.470    613.000    599.514     13.486    589.757    596.246    593.027    589.757    589.757
 41.570    634.753    599.843     34.910    589.790    596.638    592.996    589.790    589.790
 41.670    558.042    600.254    -42.212    589.824    597.104    592.975    589.824    589.824
 41.770    646.927    600.768     46.159    589.859    597.663    592.966    589.859    589.859
 41.870    584.718    601.420    -16.702    589.896    598.351    592.967    589.896    589.896
 41.970    602.000    602.272     -0.272    589.934    599.226    592.982    589.934    589.934
 42.070    599.000    603.444     -4.444    589.973    600.405    593.015    589.973    589.973
 42.170    561.000    605.175    -44.175    590.014    602.119    593.075    590.014    590.014
 42.270    556.000    607.910    -51.910    590.057    604.795    593.177    590.057    590.057
 42.370    619.000    612.391      6.609    590.100    609.146    593.352    590.100    590.100
 42.470    605.000    619.660    -14.660    590.145    616.178    593.638    590.145    590.145
 42.570    622.000    630.873     -8.873    590.191    627.000    594.080    590.191    590.191
 42.670    643.000    646.815     -3.815    590.239    642.369    594.708    590.239    590.239
 42.770    703.602    667.176     36.427    590.287    661.986    595.510    590.287    590.287
 42.870    658.920    689.654    -30.733    590.338    683.638    596.397    590.338    590.338
 42.970    679.000    709.114    -30.114    590.389    702.387    597.171    590.389    590.389
 43.070    732.000    718.362     13.638    590.441    711.310    597.555    590.441    590.441
 43.170    699.403    712.977    -13.574    590.495    706.155    597.378    590.495    590.495
 43.270    656.928    695.790    -38.862    590.550    689.645    596.750    590.550    590.550
 43.370    679.000    673.772      5.228    590.606    668.483    595.938    590.606    590.606
 43.470    660.004    652.734      7.269    590.663    648.263    595.167    590.663    590.663
 43.570    592.186    635.687    -43.501    590.722    631.879    594.552    590.722    590.722
 43.670    656.208    623.403     32.804    590.781    620.076    594.124    590.781    590.781
 43.770    581.000    615.326    -34.326    590.842    612.317    593.861    590.842    590.842
 43.870    639.525    610.351     29.174    590.904    607.543    593.720    590.904    590.904
 43.970    633.000    607.383     25.617    590.967    604.696    593.659    590.967    590.967
 44.070    568.050    605.594    -37.545    591.031    602.983    593.646    591.031    591.031
 44.170    603.452    604.466     -1.014    591.096    601.904    593.662    591.096    591.096
 44.270    556.000    603.711    -47.711    591.162    601.182    593.694    591.162    591.162
 44.370    628.506    603.183     25.322    591.230    600.677    593.738    591.230    591.230
 44.470    629.000    602.807     26.193    591.298    600.316    593.791    591.298    591.298
 44.570    603.000    602.541      0.459    591.367    600.060    593.850    591.367    591.367
 44.670    584.000    602.361    -18.361    591.438    599.885    593.916    591.438    591.438
 44.770    612.910    602.251     10.659    591.509    599.774    593.987    591.509    591.509
 44.870    599.000    602.197     -3.197    591.581    599.717    594.063    591.581    591.581
 44.970    560.725    602.192    -41.467    591.655    599.704    594.144    591.655    591.655
 45.070    607.000    602.229      4.771    591.729    599.729    594.229    591.729    591.729
 45.170    618.000    602.303     15.697    591.804    599.788    594.319    591.804    591.804
 45.270    597.000    602.410     -5.410    591.880    599.877    594.414    591.880    591.880
 45.370    635.000    602.548     32.452    591.957    599.993    594.513    591.957    591.957
 45.470    598.053    602.715     -4.662    592.035    600.134    594.617    592.035    592.035
 45.570    606.000    602.910      3.090    592.114    600.299    594.725    592.114    592.114
 45.670    601.000    603.132     -2.132    592.193    600.487    594.838    592.193    592.193
 45.770    626.000    603.381     22.619    592.274    600.698    594.957    592.274    592.274
 45.870    605.000    603.658      1.342    592.355    600.933    595.080    592.355    592.355
 45.970    613.000    603.964      9.036    592.438    601.192    595.210    592.438    592.438
 46.070    644.170    604.300     39.869    592.521    601.476    595.345    592.521    592.521
 46.170    604.000    604.669     -0.669    592.604    601.786    595.487    592.604    592.604
 46.270    570.628    605.074    -34.446    592.689    602.126    595.636    592.689    592.689
 46.370    629.000    605.517     23.483    592.774    602.498    595.792    592.774    592.774
 46.470    644.971    606.004     38.967    592.860    602.906    595.957    592.860    592.860
 46.570    618.000    606.541     11.459    592.947    603.355    596.132    592.947    592.947
 46.670    624.000    607.135     16.865    593.035    603.851    596.317    593.035    593.035
 46.770    618.000    607.796     10.204    593.123    604.403    596.515    593.123    593.123
 46.870    580.000    608.537    -28.537    593.212    605.021    596.727    593.212    593.212
 46.970    653.637    609.378     44.259    593.302    605.723    596.955    593.302    593.302
 47.070    641.509    610.351     31.158    593.392    606.537    597.204    593.392    593.392
 47.170    598.005    611.510    -13.505    593.483    607.509    597.482    593.483    593.483
 47.270    568.858    612.957    -44.099    593.575    608.730    597.799    593.575    593.575
 47.370    627.296    614.876     12.420    593.668    610.362    598.177    593.668    593.668
 47.470    621.000    617.574      3.426    593.761    612.676    598.653    593.761    593.761
 47.570    673.000    621.515     51.485    593.854    616.082    599.279    593.854    593.854
 47.670    629.894    627.294      2.599    593.948    621.108    600.124    593.948    593.948
 47.770    639.000    635.525      3.475    594.043    628.294    601.258    594.043    594.043
 47.870    618.000    646.600    -28.600    594.138    637.986    602.729    594.138    594.138
 47.970    684.000    660.353     23.647    594.234    650.038    604.518    594.234    594.234
 48.070    671.000    675.673     -4.673    594.331    663.459    606.504    594.331    594.331
 48.170    650.000    690.133    -40.133    594.428    676.095    608.417    594.428    594.428
 48.270    681.680    700.143    -18.463    594.525    684.761    609.854    594.525    594.525
 48.370    694.000    702.526     -8.526    594.623    686.633    610.464    594.623    594.623
 48.470    687.000    696.937     -9.937    594.722    681.401    610.212    594.722    594.722
 48.570    677.000    686.235     -9.235    594.821    671.590    609.427    594.821    594.821
 48.670    633.561    674.204    -40.643    594.920    660.549    608.546    594.920    594.920
 48.770    654.000    663.620     -9.620    595.020    650.726    607.892    595.020    595.020
 48.870    685.000    655.904     29.096    595.121    643.369    607.641    595.121    595.121
 48.970    661.000    651.470      9.530    595.221    638.824    607.856    595.221    595.221
 49.070    651.000    650.132      0.868    595.323    636.905    608.542    595.323    595.323
 49.170    677.747    651.474     26.274    595.424    637.206    609.685    595.424    595.424
 49.270    650.000    655.143     -5.143    595.526    639.366    611.298    595.526    595.526
 49.370    676.000    661.109     14.891    595.628    643.263    613.469    595.628    595.628
 49.470    700.000    669.988     30.012    595.731    649.254    616.459    595.731    595.731
 49.570    629.000    683.735    -54.735    595.834    658.637    620.925    595.834    595.834
 49.670    687.000    707.053    -20.053    595.938    674.606    628.372    595.938    595.938
 49.770    769.202    749.714     19.487    596.041    703.838    641.896    596.041    596.041
 49.870    784.562    829.176    -44.614    596.145    758.283    666.998    596.145    596.145
 49.970    935.000    971.227    -36.227    596.250    855.700    711.704    596.250    596.250
 50.070   1250.391   1206.086     44.304    596.354   1016.519    785.806    596.354    596.354
 50.170   1505.000   1554.467    -49.467    596.459   1255.012    895.748    596.459    596.459
 50.270   2002.000   2008.890     -6.890    596.564   1566.101   1039.147    596.564    596.564
 50.370   2453.000   2515.355    -62.355    596.670   1912.854   1198.957    596.670    596.670
 50.470   2944.000   2966.979    -22.979    596.776   2222.158   1341.429    596.776    596.776
 50.570   3208.000   3226.312    -18.312    596.881   2399.981   1423.152    596.881    596.881
 50.670   3182.000   3194.870    -12.870    596.987   2378.945   1412.989    596.987    596.987
 50.770   2913.000   2887.036     25.964    597.094   2168.912   1315.403    597.094    597.094
 50.870   2359.760   2417.159    -57.399    597.200   1848.189   1166.401    597.200    597.200
 50.970   1906.364   1919.783    -13.419    597.307   1508.948   1008.364    597.307    597.307
 51.070   1453.000   1491.240    -38.240    597.414   1217.215    871.621    597.414    597.414
 51.170   1234.470   1174.794     59.676    597.521   1002.652    769.796    597.521    597.521
 51.270    993.000    970.225     22.775    597.628    865.063    702.881    597.628    597.628
 51.370    965.000    852.968    112.032    597.735    787.423    663.343    597.735    597.735
 51.470    804.000    792.296     11.704    597.842    748.257    641.928    597.842    597.842
 51.570    802.000    762.313     39.687    597.950    729.156    631.145    597.950    597.950
 51.670    774.000    745.716     28.284    598.057    717.538    626.268    598.057    598.057
 51.770    767.000    733.541     33.459    598.165    706.884    624.849    598.165    598.165
 51.870    700.000    722.984    -22.984    598.272    695.500    625.777    598.272    598.272
 51.970    740.000    714.179     25.821    598.380    684.122    628.451    598.380    598.380
 52.070    687.187    707.636    -20.450    598.488    673.896    632.234    598.488    598.488
 52.170    659.756    703.161    -43.405    598.595    665.586    636.170    598.595    598.595
 52.270    692.552    699.746     -7.194    598.703    659.498    638.947    598.703    598.703
 52.370    689.027    696.070     -7.043    598.811    655.604    639.271    598.811    598.811
 52.470    690.000    691.436     -1.436    598.919    653.690    636.659    598.919    598.919
 52.570    721.146    686.319     34.827    599.026    653.513    631.828    599.026    599.026
 52.670    678.862    681.897     -3.035    599.134    654.936    626.093    599.134    599.134
 52.770    751.000    679.408     71.592    599.242    658.052    620.597    599.242    599.242
 52.870    642.191    680.018    -37.827    599.349    663.327    616.041    599.349    599.349
 52.970    673.862    685.019    -11.157    599.457    671.776    612.700    599.457    599.457
 53.070    745.000    696.157     48.843    599.564    685.169    610.553    599.564    599.564
 53.170    677.855    715.919    -38.064    599.671    706.164    609.427    599.671    599.671
 53.270    758.144    747.578     10.566    599.779    738.227    609.130    599.779    599.779
 53.370    792.000    794.747     -2.747    599.886    785.113    609.519    599.886    599.886
 53.470    848.000    860.313    -12.313    599.993    849.812    610.492    599.993    599.993
 53.570    959.000    944.768     14.232    600.100    932.996    611.872    600.100    600.100
 53.670   1051.000   1044.735      6.265    600.206   1031.205    613.739    600.206    600.206
 53.770   1140.000   1150.347    -10.347    600.313   1134.868    615.800    600.313    600.313
 53.870   1263.373   1244.166     19.207    600.419   1226.948    617.653    600.419    600.419
 53.970   1237.708   1303.245    -65.537    600.525   1284.986    618.811    600.525    600.525
 54.070   1291.000   1308.764    -17.764    600.631   1290.554    618.878    600.631    600.631
 54.170   1287.000   1258.823     28.177    600.737   1241.791    617.811    600.737    600.737
 54.270   1195.000   1170.071     24.929    600.842   1155.002    615.953    600.842    600.842
 54.370   1055.417   1065.808    -10.391    600.948   1053.005    613.788    600.948    600.948
 54.470    909.630    964.780    -55.150    601.053    954.161    611.703    601.053    601.053
 54.570    825.172    878.006    -52.835    601.158    869.261    609.927    601.158    601.158
 54.670    757.955    809.951    -51.995    601.262    802.680    608.551    601.262    601.262
 54.770    811.220    760.505     50.715    601.366    754.311    607.573    601.366    601.366
 54.870    718.000    726.893     -8.893    601.470    721.439    606.933    601.470    601.470
 54.970    700.000    705.326     -5.326    601.574    700.353    606.554    601.574    601.574
 55.070    710.156    692.157     17.999    601.677    687.482    606.357    601.677    601.677
 55.170    642.975    684.506    -41.532    601.780    680.006    606.285    601.780    601.780
 55.270    666.000    680.397    -14.397    601.883    675.988    606.295    601.883    601.883
 55.370    640.461    678.619    -38.158    601.985    674.244    606.363    601.985    601.985
 55.470    694.599    678.510     16.089    602.087    674.125    606.475    602.087    602.087
 55.570    632.000    679.756    -47.756    602.189    675.321    606.626    602.189    602.189
 55.670    718.173    682.255     35.918    602.290    677.732    606.815    602.290    602.290
 55.770    684.309    686.056     -1.747    602.391    681.404    607.044    602.391    602.391
 55.870    697.000    691.360      5.640    602.491    686.531    607.321    602.491    602.491
 55.970    704.094    698.600      5.493    602.591    693.532    607.661    602.591    602.591
 56.070    760.220    708.637     51.584    602.691    703.239    608.089    602.691    602.691
 56.170    758.000    723.123     34.877    602.790    717.253    608.658    602.790    602.790
 56.270    724.492    745.086    -20.594    602.889    738.507    609.463    602.889    602.889
 56.370    805.888    779.674     26.214    602.987    771.987    610.664    602.987    602.987
 56.470    825.000    834.826     -9.826    603.085    825.384    612.509    603.085    603.085
 56.570    894.000    921.351    -27.351    603.182    909.169    615.335    603.182    603.182
 56.670    991.000   1051.727    -60.727    603.279   1035.435    619.530    603.279    603.279
 56.770   1200.000   1237.066    -37.066    603.376   1214.949    625.442    603.376    603.376
 56.870   1387.000   1482.316    -95.316    603.471   1452.509    633.226    603.471    603.471
 56.970   1772.000   1780.602     -8.602    603.567   1741.459    642.668    603.567    603.567
 57.070   2077.000   2107.959    -30.959    603.662   2058.588    653.024    603.662    603.662
 57.170   2357.937   2419.590    -61.652    603.756   2360.491    662.901    603.756    603.756
 57.270   2616.000   2651.335    -35.335    603.850   2585.004    670.303    603.850    603.850
 57.370   2727.000   2737.511    -10.511    603.943   2668.466    673.188    603.943    603.943
 57.470   2761.000   2648.995    112.005    604.035   2582.631    670.651    604.035    604.035
 57.570   2508.000   2416.298     91.702    604.127   2357.045    663.645    604.127    604.127
 57.670   2132.000   2105.634     26.366    604.219   2055.862    654.237    604.219    604.219
 57.770   1709.725   1780.931    -71.206    604.310   1741.021    644.429    604.310    604.310
 57.870   1534.919   1486.541     48.378    604.400   1455.484    635.621    604.400    604.400
 57.970   1218.000   1246.108    -28.108    604.489   1222.128    628.590    604.489    604.489
 58.070   1077.000   1066.507     10.493    604.578   1047.534    623.634    604.578    604.578
 58.170    971.000    943.275     27.725    604.667    927.227    620.768    604.667    604.667
 58.270    858.000    866.459     -8.459    604.755    851.298    619.947    604.755    604.755
 58.370    778.046    825.556    -47.509    604.842    809.169    621.244    604.842    604.842
 58.470    765.000    812.535    -47.535    604.928    792.537    624.929    604.928    604.928
 58.570    871.995    822.749     49.245    605.014    796.355    631.400    605.014    605.014
 58.670    788.000    854.194    -66.194    605.099    818.306    640.968    605.099    605.099
 58.770    880.000    905.837    -25.837    605.183    857.432    653.559    605.183    605.183
 58.870    925.000    975.707    -50.707    605.267    912.527    668.409    605.267    605.267
 58.970   1007.816   1059.241    -51.425    605.350    980.665    683.882    605.350    605.350
 59.070   1181.000   1148.369     32.631    605.432   1056.231    697.528    605.432    605.432
 59.170   1229.721   1232.425     -2.704    605.513   1131.271    706.637    605.513    605.513
 59.270   1265.000   1301.618    -36.618    605.594   1197.771    709.427    605.594    605.594
 59.370   1290.000   1349.969    -59.969    605.674   1249.682    705.967    605.674    605.674
 59.470   1306.033   1374.109    -68.076    605.753   1282.153    697.735    605.753    605.753
 59.570   1339.000   1371.728    -32.728    605.831   1291.056    686.545    605.831    605.831
 59.670   1320.000   1344.703    -24.703    605.909   1276.604    674.058    605.909    605.909
 59.770   1289.000   1302.694    -13.694    605.986   1246.968    661.756    605.986    605.986
 59.870   1247.435   1260.474    -13.039    606.062   1215.769    650.793    606.062    606.062
 59.970   1261.000   1231.885     29.115    606.137   1196.238    641.777    606.137    606.137
 60.070   1314.000   1226.298     87.702    606.212   1197.676    634.787    606.212    606.212
 60.170   1271.000   1248.454     22.546    606.285   1225.071    629.575    606.285    606.285
 60.270   1316.279   1299.395     16.884    606.358   1279.816    625.793    606.358    606.358
 60.370   1385.000   1375.936      9.064    606.430   1359.049    623.125    606.430    606.430
 60.470   1493.000   1468.351     24.649    606.501   1453.304    621.313    606.501    606.501
 60.570   1550.000   1558.616     -8.616    606.571   1544.765    620.159    606.571    606.571
 60.670   1692.965   1621.742     71.223    606.640   1608.604    619.510    606.640    606.640
 60.770   1625.000   1633.010     -8.010    606.709   1620.215    619.258    606.709    606.709
 60.870   1586.000   1581.058      4.942    606.777   1568.297    619.336    606.777    606.777
 60.970   1491.471   1475.558     15.913    606.843   1462.546    619.707    606.843    606.843
 61.070   1289.000   1339.830    -50.830    606.909   1326.280    620.360    606.909    606.909
 61.170   1234.000   1198.157     35.843    606.974   1183.750    621.320    606.974    606.974
 61.270   1062.000   1068.982     -6.982    607.038   1053.315    622.669    607.038    607.038
 61.370    939.000    963.541    -24.541    607.101    946.039    624.582    607.101    607.101
 61.470    860.000    886.773    -26.773    607.163    866.529    627.390    607.163    607.163
 61.570    832.000    839.292     -7.292    607.224    814.831    631.666    607.224    607.224
 61.670    828.000    819.838      8.162    607.284    788.787    638.307    607.284    607.284
 61.770    837.000    827.465      9.535    607.343    786.176    648.590    607.343    607.343
 61.870    919.000    862.769     56.231    607.402    805.995    664.113    607.402    607.402
 61.970    882.981    927.795    -44.814    607.459    848.590    686.576    607.459    607.459
 62.070   1004.000   1024.653    -20.653    607.515    914.707    717.341    607.515    607.515
 62.170   1161.000   1153.228      7.772    607.570   1003.810    756.831    607.570    607.570
 62.270   1260.000   1308.632    -48.632    607.625   1112.200    803.862    607.625    607.625
 62.370   1415.000   1479.037    -64.037    607.678   1231.397    855.090    607.678    607.678
 62.470   1685.000   1644.416     40.584    607.730   1347.209    904.689    607.730    607.730
 62.570   1687.000   1777.338    -90.338    607.781   1440.253    944.619    607.781    607.781
 62.670   1849.000   1848.656      0.344    607.831   1489.949    966.317    607.831    607.831
 62.770   1759.000   1839.557    -80.557    607.881   1483.007    964.253    607.881    607.881
 62.870   1670.880   1752.421    -81.541    607.929   1421.085    939.140    607.929    607.929
 62.970   1625.000   1609.182     15.818    607.976   1319.629    897.449    607.976    607.976
 63.070   1397.609   1439.213    -41.604    608.022   1199.344    847.847    608.022    608.022
 63.170   1206.629   1268.496    -61.867    608.066   1078.546    797.997    608.066    608.066
 63.270   1175.704   1115.126     60.579    608.110    969.988    753.243    608.110    608.110
 63.370   1006.000    988.924     17.076    608.153    880.593    716.484    608.153    608.153
 63.470    913.695    892.720     20.976    608.195    812.353    688.562    608.195    608.195
 63.570    876.000    824.380     51.620    608.235    763.761    668.852    608.235    608.235
 63.670    789.000    779.081      9.919    608.274    731.417    655.934    608.274    608.274
 63.770    792.000    751.329     40.671    608.313    711.449    648.186    608.313    608.313
 63.870    763.000    736.367     26.633    608.350    700.503    644.204    608.350    608.350
 63.970    738.000    730.924      7.076    608.386    696.262    643.033    608.386    608.386
 64.070    719.000    733.511    -14.511    608.421    697.633    644.282    608.421    608.421
 64.170    789.722    744.247     45.475    608.455    704.569    648.109    608.455    608.455
 64.270    779.474    764.709     14.765    608.487    717.908    655.256    608.487    608.487
 64.370    858.000    797.571     60.429    608.519    739.041    667.006    608.519    608.519
 64.470    854.662    846.058      8.604    608.549    769.469    685.079    608.549    608.549
 64.570    921.000    913.148      7.852    608.578    810.265    711.382    608.578    608.578
 64.670   1006.000   1000.501      5.499    608.606    861.440    747.566    608.606    608.606
 64.770   1142.000   1107.210     34.790    608.633    921.305    794.413    608.633    608.633
 64.870   1268.619   1228.524     40.095    608.658    985.891    851.144    608.658    608.658
 64.970   1391.763   1354.848     36.914    608.683   1048.573    914.793    608.683    608.683
 65.070   1510.000   1471.626     38.374    608.706   1100.396    979.763    608.706    608.706
 65.170   1583.788   1561.261     22.527    608.728   1132.081   1037.739    608.728    608.728
 65.270   1641.000   1607.608     33.392    608.748   1137.678   1078.528    608.748    608.748
 65.370   1671.715   1601.491     70.223    608.768   1117.278   1092.862    608.768    608.768
 65.470   1561.000   1544.693     16.307    608.786   1076.498   1076.900    608.786    608.786
 65.570   1519.000   1449.725     69.275    608.803   1023.800   1034.684    608.803    608.803
 65.670   1312.242   1334.454    -22.212    608.819    967.625    975.636    608.819    608.819
 65.770   1207.000   1215.566     -8.566    608.833    914.422    909.990    608.833    608.833
 65.870   1066.000   1105.015    -39.015    608.847    867.910    845.980    608.847    608.847
 65.970    969.433   1009.455    -40.022    608.859    829.276    789.074    608.859    608.859
 66.070    852.000    931.155    -79.155    608.869    797.950    742.113    608.869    608.869
 66.170    865.183    869.519     -4.336    608.879    772.664    705.771    608.879    608.879
 66.270    777.000    822.533    -45.533    608.887    752.269    679.183    608.887    608.887
 66.370    787.536    787.675     -0.138    608.894    735.963    660.632    608.894    608.894
 66.470    715.000    762.397    -47.397    608.900    723.170    648.146    608.900    608.900
 66.570    731.000    744.430    -13.430    608.904    713.434    639.914    608.904    608.904
 66.670    725.421    731.980     -6.559    608.907    706.405    634.492    608.907    608.907
 66.770    693.000    723.775    -30.775    608.909    701.843    630.847    608.909    608.909
 66.870    690.784    719.009    -28.225    608.909    699.618    628.305    608.909    608.909
 66.970    670.553    717.252    -46.699    608.908    699.711    626.453    608.908    608.908
 67.070    688.768    718.414    -29.646    608.906    702.263    625.060    608.906    608.906
 67.170    715.000    722.790     -7.790    608.902    707.690    624.006    608.902    608.902
 67.270    769.482    731.207     38.275    608.898    716.865    623.242    608.898    608.898
 67.370    745.637    745.239      0.398    608.891    731.361    622.772    608.891    608.891
 67.470    773.000    767.474      5.526    608.884    753.717    622.643    608.884    608.884
 67.570    830.000    801.739     28.261    608.875    787.670    622.945    608.875    608.875
 67.670    819.000    853.158    -34.158    608.864    838.213    623.810    608.864    608.864
 67.770    934.000    927.882      6.118    608.853    911.333    625.400    608.853    608.853
 67.870   1011.592   1032.324    -20.731    608.840   1013.273    627.890    608.840    608.840
 67.970   1116.000   1171.831    -55.831    608.825   1149.236    631.423    608.825    608.825
 68.070   1341.000   1348.893     -7.893    608.810   1321.650    636.063    608.810    608.810
 68.170   1551.000   1561.146    -10.146    608.793   1528.226    641.739    608.793    608.793
 68.270   1682.000   1799.523   -117.523    608.774   1760.162    648.187    608.774    608.774
 68.370   1982.000   2046.833    -64.833    608.754   2000.758    654.918    608.754    608.754
 68.470   2218.000   2277.170    -59.170    608.733   2224.850    661.191    608.733    608.733
 68.570   2493.578   2457.586     35.992    608.710   2400.423    666.069    608.710    608.710
 68.670   2476.678   2554.844    -78.166    608.686   2495.181    668.607    608.686    608.686
 68.770   2467.163   2547.809    -80.646    608.661   2488.579    668.203    608.661    608.661
 68.870   2370.035   2438.120    -68.085    608.634   2382.197    664.899    608.634    608.634
 68.970   2339.084   2249.226     89.858    608.605   2198.817    659.362    608.605    608.605
 69.070   1981.229   2014.853    -33.624    608.576   1971.211    652.545    608.576    608.576
 69.170   1803.012   1767.227     35.785    608.545   1730.699    645.363    608.545    608.545
 69.270   1553.351   1531.147     22.204    608.512   1501.386    638.518    608.512    608.512
 69.370   1309.000   1322.711    -13.711    608.478   1298.920    632.466    608.478    608.478
 69.470   1205.000   1150.041     54.959    608.443   1131.197    627.438    608.443    608.443
 69.570   1071.000   1014.766     56.234    608.406    999.806    623.480    608.406    608.406
 69.670    997.000    913.913     83.087    608.367    901.858    620.505    608.367    608.367
 69.770    933.000    841.888     91.112    608.328    831.919    618.355    608.328    608.328
 69.870    846.000    792.217     53.783    608.287    783.698    616.846    608.287    608.287
 69.970    801.000    758.797     42.203    608.244    751.265    615.804    608.244    608.244
 70.070    765.898    736.584     29.314    608.200    729.718    615.086    608.200    608.200
 70.170    776.000    721.805     54.195    608.154    715.389    614.585    608.154    608.154
 70.270    734.000    711.859     22.141    608.107    705.750    614.227    608.107    608.107
 70.370    743.111    705.071     38.040    608.059    699.175    613.963    608.059    608.059
 70.470    765.000    700.428     64.572    608.009    694.683    613.760    608.009    608.009
 70.570    698.966    697.364      1.602    607.957    691.713    613.612    607.957    607.957
 70.670    687.000    695.581     -8.581    607.905    689.979    613.509    607.905    607.905
 70.770    688.151    694.964     -6.813    607.850    689.368    613.447    607.850    607.850
 70.870    714.000    695.548     18.452    607.794    689.914    613.428    607.794    607.794
 70.970    659.786    697.522    -37.736    607.737    691.797    613.459    607.737    607.737
 71.070    679.000    701.284    -22.284    607.678    695.400    613.557    607.678    607.678
 71.170    755.481    707.529     47.952    607.618    701.392    613.747    607.618    607.618
 71.270    709.000    717.378     -8.378    607.556    710.850    614.072    607.556    607.556
 71.370    719.954    732.507    -12.554    607.493    725.387    614.596    607.493    607.493
 71.470    792.000    755.273     36.727    607.428    747.270    615.406    607.428    607.428
 71.570    798.000    788.732      9.268    607.362    779.441    616.618    607.362    607.362
 71.670    838.823    836.514      2.309    607.294    825.392    618.367    607.294    607.294
 71.770    931.913    902.450     29.464    607.225    888.809    620.797    607.225    607.225
 71.870    968.000    989.933    -21.933    607.154    972.959    624.037    607.154    607.154
 71.970   1100.000   1101.037     -1.037    607.082   1079.837    628.164    607.082    607.082
 72.070   1328.000   1235.504     92.496    607.008   1209.193    633.171    607.008    607.008
 72.170   1278.000   1389.752   -111.752    606.933   1357.581    638.926    606.933    606.933
 72.270   1569.000   1556.046     12.954    606.856   1517.553    645.143    606.856    606.856
 72.370   1671.000   1721.921    -50.921    606.777   1677.114    651.358    606.777    606.777
 72.470   1793.678   1870.189    -76.511    606.698   1819.718    656.933    606.698    606.698
 72.570   2017.000   1980.491     36.509    606.616   1925.766    661.112    606.616    606.616
 72.670   2037.000   2033.850      3.150    606.533   1976.989    663.187    606.533    606.533
 72.770   2020.000   2019.724      0.276    606.449   1963.233    662.768    606.449    606.449
 72.870   1918.000   1941.013    -23.013    606.363   1887.282    659.963    606.363    606.363
 72.970   1767.000   1812.527    -45.527    606.276   1763.385    655.325    606.276    606.276
 73.070   1717.000   1654.450     62.550    606.187   1610.974    649.602    606.187    606.187
 73.170   1528.000   1486.118     41.882    606.096   1448.671    643.508    606.096    606.096
 73.270   1269.000   1322.839    -53.839    606.004   1291.226    637.600    606.004    606.004
 73.370   1147.000   1175.100    -28.100    605.910   1148.754    632.251    605.910    605.910
 73.470   1036.000   1048.852    -12.852    605.815   1027.005    627.662    605.815    605.815
 73.570    976.389    946.209     30.179    605.719    928.030    623.900    605.719    605.719
 73.670    867.631    866.373      1.257    605.621    851.064    620.933    605.621    605.621
 73.770    856.733    806.664     50.069    605.521    793.508    618.678    605.521    605.521
 73.870    778.000    763.486     14.514    605.420    751.872    617.033    605.420    605.420
 73.970    784.880    733.111     51.769    605.317    722.532    615.895    605.317    605.317
 74.070    723.000    712.199     10.801    605.213    702.233    615.178    605.213    605.213
 74.170    720.000    698.059     21.941    605.107    688.345    614.821    605.107    605.107
 74.270    713.128    688.705     24.422    604.999    678.920    614.787    604.999    604.999
 74.370    673.138    682.776     -9.638    604.890    672.610    615.060    604.890    604.890
 74.470    629.276    679.388    -50.113    604.780    668.538    615.637    604.780    604.780
 74.570    665.000    677.981    -12.981    604.668    666.145    616.514    604.668    604.668
 74.670    654.000    678.173    -24.173    604.554    665.062    617.680    604.554    604.554
 74.770    631.000    679.653    -48.653    604.439    665.010    619.102    604.439    604.439
 74.870    719.638    682.100     37.538    604.323    665.727    620.721    604.323    604.323
 74.970    674.000    685.128    -11.128    604.205    666.920    622.444    604.205    604.205
 75.070    739.000    688.263     50.737    604.085    668.240    624.144    604.085    604.085
 75.170    704.000    690.942     13.058    603.964    669.284    625.664    603.964    603.964
 75.270    709.393    692.597     16.796    603.841    669.639    626.844    603.841    603.841
 75.370    723.000    692.807     30.193    603.716    668.997    627.573    603.716    603.716
 75.470    642.623    691.495    -48.872    603.591    667.278    627.854    603.591    603.591
 75.570    639.565    689.011    -49.446    603.463    664.686    627.831    603.463    603.463
 75.670    745.000    686.040     58.960    603.334    661.642    627.769    603.334    603.334
 75.770    696.000    683.439     12.561    603.204    658.664    628.008    603.204    603.204
 75.870    729.000    682.128     46.872    603.072    656.285    628.938    603.072    603.072
 75.970    716.000    683.058     32.942    602.938    655.020    630.991    602.938    602.938
 76.070    712.644    687.204     25.439    602.803    655.372    634.642    602.803    602.803
 76.170    675.000    695.557    -20.557    602.667    657.821    640.400    602.667    602.667
 76.270    690.000    709.068    -19.068    602.529    662.808    648.775    602.529    602.529
 76.370    747.000    728.549     18.451    602.389    670.695    660.219    602.389    602.389
 76.470    784.418    754.533     29.885    602.248    681.706    675.039    602.248    602.248
 76.570    803.000    787.095     15.905    602.105    695.849    693.304    602.105    602.105
 76.670    819.000    825.667     -6.667    601.961    712.839    714.730    601.961    601.961
 76.770    905.742    868.870     36.872    601.815    732.023    738.591    601.815    601.815
 76.870    878.000    914.374    -36.374    601.668    752.318    763.641    601.668    601.668
 76.970    961.000    958.820      2.180    601.519    772.179    788.069    601.519    601.519
 77.070   1001.301    997.880      3.422    601.368    789.619    809.532    601.368    601.368
 77.170   1011.000   1026.670    -15.670    601.217    802.405    825.385    601.217    601.217
 77.270   1008.000   1040.776    -32.776    601.063    808.517    833.230    601.063    601.063
 77.370    999.093   1037.702    -38.609    600.908    806.813    831.714    600.908    600.908
 77.470   1031.088   1017.915     13.173    600.752    797.501    821.094    600.752    600.752
 77.570   1040.000    984.615     55.385    600.594    782.039    803.110    600.594    600.594
 77.670    994.816    942.459     52.358    600.434    762.548    780.298    600.434    600.434
 77.770    878.000    896.186    -18.186    600.273    741.187    755.237    600.273    600.273
 77.870    802.083    849.797    -47.714    600.111    719.776    730.106    600.111    600.111
 77.970    783.570    806.279    -22.709    599.947    699.680    706.527    599.947    599.947
 78.070    781.000    767.578     13.422    599.781    681.785    685.561    599.781    599.781
 78.170    719.000    734.716    -15.716    599.615    666.556    667.765    599.615    599.615
 78.270    708.789    707.946      0.844    599.446    654.106    653.279    599.446    599.446
 78.370    640.994    686.943    -45.948    599.276    644.288    641.926    599.276    599.276
 78.470    696.175    671.011     25.165    599.105    636.782    633.329    599.105    599.105
 78.570    628.096    659.275    -31.179    598.932    631.189    627.014    598.932    598.932
 78.670    651.000    650.837      0.163    598.757    627.100    622.492    598.757    598.757
 78.770    667.995    644.882     23.114    598.581    624.140    619.320    598.581    598.581
 78.870    659.534    640.732     18.802    598.404    622.000    617.133    598.404    598.404
 78.970    667.000    637.866     29.134    598.225    620.442    615.646    598.225    598.225
 79.070    616.000    635.908    -19.908    598.045    619.293    614.657    598.045    598.045
 79.170    666.000    634.605     31.395    597.863    618.437    614.028    597.863    597.863
 79.270    594.449    633.797    -39.348    597.680    617.799    613.675    597.680    597.680
 79.370    669.000    633.396     35.604    597.495    617.339    613.550    597.495    597.495
 79.470    643.000    633.367      9.633    597.309    617.036    613.637    597.309    597.309
 79.570    627.016    633.715     -6.700    597.121    616.888    613.945    597.121    597.121
 79.670    599.000    634.487    -35.487    596.932    616.906    614.510    596.932    596.932
 79.770    606.872    635.772    -28.899    596.741    617.111    615.399    596.741    596.741
 79.870    592.000    637.714    -45.714    596.549    617.534    616.725    596.549    596.549
 79.970    578.000    640.538    -62.538    596.356    618.219    618.670    596.356    596.356
 80.070    632.955    644.578    -11.623    596.161    619.226    621.507    596.161    596.161
 80.170    651.000    650.319      0.681    595.964    620.632    625.643    595.964    595.964
 80.270    672.438    658.434     14.004    595.767    622.544    631.647    595.767    595.767
 80.370    638.000    669.825    -31.825    595.567    625.099    640.281    595.567    595.567
 80.470    637.000    685.628    -48.628    595.367    628.471    652.507    595.367    595.367
 80.570    734.000    707.181     26.819    595.165    632.873    669.451    595.165    595.165
 80.670    722.568    735.933    -13.365    594.961    638.544    692.323    594.961    594.961
 80.770    768.000    773.284     -5.284    594.757    645.743    722.264    594.757    594.757
 80.870    856.000    820.368     35.632    594.550    654.722    760.155    594.550    594.550
 80.970    875.000    877.787     -2.787    594.343    665.715    806.367    594.343    594.343
 81.070    969.000    945.332     23.668    594.134    678.889    860.523    594.134    594.134
 81.170   1021.000   1021.694     -0.694    593.923    694.297    921.263    593.923    593.923
 81.270   1072.796   1104.237    -31.441    593.711    711.800    986.090    593.711    593.711
 81.370   1246.851   1188.885     57.966    593.498    731.005   1051.324    593.498    593.498
 81.470   1233.002   1270.232    -37.229    593.284    751.234   1112.235    593.284    593.284
 81.570   1397.000   1342.015     54.985    593.068    771.552   1163.498    593.068    593.068
 81.670   1480.000   1398.065     81.935    592.850    790.873   1200.027    592.850    592.850
 81.770   1580.000   1433.504    146.496    592.632    808.098   1218.045    592.632    592.632
 81.870   1506.000   1445.826     60.174    592.412    822.345   1215.922    592.412    592.412
 81.970   1535.000   1434.983    100.017    592.190    832.950   1194.276    592.190    592.190
 82.070   1524.000   1403.064    120.936    591.968    839.500   1155.604    591.968    591.968
 82.170   1353.000   1353.882     -0.882    591.744    841.900   1103.813    591.744    591.744
 82.270   1282.000   1292.333    -10.333    591.518    840.298   1043.651    591.518    591.518
 82.370   1186.606   1223.579    -36.973    591.291    834.958    980.018    591.291    591.291
 82.470   1161.937   1152.286      9.651    591.063    826.179    917.277    591.063    591.063
 82.570   1092.000   1082.215      9.785    590.834    814.348    858.806    590.834    590.834
 82.670   1029.292   1016.160     13.132    590.604    800.036    806.828    590.604    590.604
 82.770   1002.000    955.993     46.007    590.372    783.987    762.472    590.372    590.372
 82.870    933.000    902.697     30.303    590.138    766.976    725.946    590.138    590.138
 82.970    909.138    856.459     52.679    589.904    749.659    696.781    589.904    589.904
 83.070    815.000    816.881     -1.881    589.668    732.530    674.089    589.668    589.668
 83.170    743.784    783.293    -39.509    589.431    715.986    656.799    589.431    589.431
 83.270    726.000    755.014    -29.014    589.193    700.412    643.847    589.193    589.193
 83.370    678.000    731.493    -53.493    588.953    686.194    634.295    588.953    588.953
 83.470    738.729    712.318     26.411    588.712    673.688    627.377    588.712    588.712
 83.570    636.000    697.183    -61.183    588.470    663.171    622.508    588.470    588.470
 83.670    675.000    685.845    -10.845    588.227    654.825    619.263    588.227    588.227
 83.770    711.006    678.088     32.918    587.983    648.729    617.348    587.983    587.983
 83.870    671.000    673.678     -2.678    587.737    644.860    616.553    587.737    587.737
 83.970    648.000    672.331    -24.331    587.490    643.095    616.715    587.490    587.490
 84.070    668.000    673.675     -5.675    587.242    643.212    617.684    587.242    587.242
 84.170    670.012    677.227     -7.216    586.992    644.895    619.296    586.992    586.992
 84.270    639.000    682.384    -43.384    586.742    647.736    621.353    586.742    586.742
 84.370    644.000    688.420    -44.420    586.490    651.249    623.616    586.490    586.490
 84.470    686.000    694.504     -8.504    586.237    654.883    625.808    586.237    586.237
 84.570    680.000    699.742    -19.742    585.983    658.050    627.621    585.983    585.983
 84.670    647.000    703.258    -56.258    585.728    660.179    628.751    585.728    585.728
 84.770    663.000    704.338    -41.338    585.471    660.805    628.948    585.471    585.471
 84.870    697.000    702.595     -5.595    585.214    659.673    628.082    585.214    585.214
 84.970    687.336    698.066    -10.730    584.955    656.795    626.177    584.955    584.955
 85.070    641.000    691.179    -50.179    584.695    652.429    623.400    584.695    584.695
 85.170    655.000    682.603    -27.603    584.435    646.987    620.012    584.435    584.435
 85.270    638.000    673.089    -35.089    584.173    640.925    616.303    584.173    584.173
 85.370    688.017    663.341     24.676    583.909    634.673    612.550    583.909    583.909
 85.470    634.000    653.964    -19.964    583.645    628.589    608.997    583.645    583.645
 85.570    656.000    645.433     10.567    583.380    622.947    605.846    583.380    583.380
 85.670    580.000    638.092    -58.092    583.113    617.933    603.256    583.113    583.113
 85.770    671.822    632.163     39.658    582.846    613.648    601.347    582.846    582.846
 85.870    655.000    627.763     27.237    582.578    610.125    600.202    582.578    582.578
 85.970    679.000    624.922     54.078    582.308    607.341    599.876    582.308    582.308
 86.070    660.000    623.608     36.392    582.037    605.237    600.395    582.037    582.037
 86.170    616.523    623.746     -7.223    581.766    603.738    601.758    581.766    581.766
 86.270    660.433    625.231     35.202    581.493    602.768    603.939    581.493    581.493
 86.370    606.000    627.942    -21.942    581.220    602.268    606.873    581.220    581.220
 86.470    600.528    631.733    -31.205    580.945    602.199    610.456    580.945    580.945
 86.570    601.000    636.440    -35.440    580.669    602.548    614.534    580.669    580.669
 86.670    636.000    641.876     -5.876    580.393    603.338    618.900    580.393    580.393
 86.770    635.000    647.832    -12.832    580.115    604.623    623.289    580.115    580.115
 86.870    703.006    654.073     48.933    579.837    606.486    627.384    579.837    579.837
 86.970    673.695    660.351     13.344    579.557    609.033    630.830    579.557    579.557
 87.070    683.000    666.434     16.566    579.277    612.388    633.273    579.277    579.277
 87.170    707.000    672.155     34.845    578.995    616.675    634.419    578.995    578.995
 87.270    701.049    677.466     23.584    578.713    622.009    634.108    578.713    578.713
 87.370    684.000    682.465      1.535    578.430    628.470    632.357    578.430    578.430
 87.470    642.607    687.361    -44.754    578.146    636.083    629.349    578.146    578.146
 87.570    723.000    692.389     30.611    577.861    644.795    625.370    577.861    577.861
 87.670    653.189    697.714    -44.525    577.575    654.454    620.743    577.575    577.575
 87.770    728.000    703.374     24.626    577.288    664.787    615.774    577.288    577.288
 87.870    697.105    709.232    -12.127    577.001    675.394    610.728    577.001    577.001
 87.970    725.912    714.968     10.944    576.712    685.739    605.822    576.712    576.712
 88.070    752.000    720.093     31.907    576.423    695.167    601.222    576.423    576.423
 88.170    722.149    723.992     -1.843    576.133    702.950    597.045    576.133    576.133
 88.270    739.041    726.031     13.010    575.842    708.388    593.354    575.842    575.842
 88.370    685.298    725.718    -40.420    575.551    710.969    590.171    575.551    575.551
 88.470    757.000    722.861     34.139    575.258    710.518    587.479    575.258    575.258
 88.570    706.765    717.643    -10.879    574.965    707.256    585.240    574.965    574.965
 88.670    743.000    710.561     32.439    574.671    701.731    583.402    574.671    574.671
 88.770    695.000    702.290     -7.290    574.376    694.675    581.906    574.376    574.376
 88.870    718.000    693.555     24.445    574.081    686.868    580.697    574.081    574.081
 88.970    665.000    685.047    -20.047    573.785    679.050    579.726    573.785    573.785
 89.070    658.000    677.375    -19.375    573.488    671.872    578.949    573.488    573.488
 89.170    688.000    671.037     16.963    573.190    665.869    578.330    573.190    573.190
 89.270    708.947    666.395     42.552    572.892    661.429    577.842    572.892    572.892
 89.370    627.000    663.651    -36.651    572.593    658.780    577.460    572.593    572.593
 89.470    660.000    662.842     -2.842    572.294    657.979    577.163    572.294    572.294
 89.570    670.000    663.841      6.159    571.993    658.918    576.933    571.993    571.993
 89.670    656.000    666.364    -10.364    571.693    661.331    576.752    571.693    571.693
 89.770    628.000    669.991    -41.991    571.391    664.818    576.599    571.391    571.391
 89.870    694.086    674.186     19.900    571.089    668.863    576.455    571.089    571.089
 89.970    736.000    678.326     57.674    570.786    672.865    576.298    570.786    570.786
 90.070    660.232    681.749    -21.517    570.483    676.184    576.106    570.483    570.483
 90.170    663.868    683.824    -19.956    570.179    678.208    575.857    570.179    570.179
 90.270    718.000    684.056     33.944    569.875    678.459    575.538    569.875    569.875
 90.370    705.000    682.189     22.811    569.570    676.687    575.139    569.570    569.570
 90.470    631.778    678.252    -46.474    569.264    672.920    574.663    569.264    569.264
 90.570    656.000    672.531    -16.531    568.958    667.431    574.123    568.958    568.958
 90.670    656.000    665.473     -9.473    568.652    660.651    573.534    568.652    568.652
 90.770    653.000    657.582     -4.582    568.345    653.066    572.916    568.345    568.345
 90.870    651.131    649.341      1.789    568.037    645.141    572.286    568.037    568.037
 90.970    621.000    641.172    -20.172    567.729    637.283    571.660    567.729    567.729
 91.070    677.000    633.413     43.587    567.421    629.820    571.051    567.421    567.421
 91.170    614.000    626.317    -12.317    567.112    622.993    570.466    567.112    567.112
 91.270    617.000    620.051     -3.051    566.803    616.965    569.913    566.803    566.803
 91.370    588.000    614.702    -26.702    566.494    611.820    569.394    566.494    566.494
 91.470    571.000    610.296    -39.296    566.184    607.583    568.911    566.184    566.184
 91.570    575.000    606.805    -31.805    565.873    604.227    568.462    565.873    565.873
 91.670    559.849    604.171    -44.322    565.563    601.695    568.046    565.563    565.563
 91.770    611.000    602.320      8.680    565.252    599.917    567.659    565.252    565.252
 91.870    646.568    601.179     45.389    564.940    598.822    567.299    564.940    564.940
 91.970    619.672    600.690     18.983    564.629    598.354    566.965    564.629    564.629
 92.070    561.000    600.818    -39.818    564.317    598.479    566.654    564.317    564.317
 92.170    623.000    601.564     21.436    564.004    599.197    566.368    564.004    564.004
 92.270    585.000    602.959    -17.959    563.692    600.538    566.107    563.692    563.692
 92.370    632.708    605.073     27.635    563.379    602.570    565.875    563.379    563.379
 92.470    569.159    608.009    -38.849    563.066    605.391    565.674    563.066    563.066
 92.570    571.000    611.902    -40.902    562.753    609.133    565.510    562.753    562.753
 92.670    579.000    616.906    -37.906    562.439    613.942    565.388    562.439    562.439
 92.770    645.000    623.182     21.818    562.126    619.976    565.313    562.126    562.126
 92.870    632.988    630.889      2.098    561.812    627.388    565.290    561.812    561.812
 92.970    677.408    640.167     37.241    561.498    636.315    565.322    561.498    561.498
 93.070    637.226    651.117    -13.891    561.184    646.856    565.412    561.184    561.184
 93.170    624.000    663.791    -39.791    560.870    659.062    565.559    560.870    560.870
 93.270    691.000    678.169     12.831    560.556    672.918    565.761    560.556    560.556
 93.370    683.000    694.157    -11.157    560.241    688.332    566.014    560.241    560.241
 93.470    708.517    711.568     -3.051    559.927    705.123    566.312    559.927    559.927
 93.570    694.000    730.119    -36.119    559.613    723.017    566.648    559.613    559.613
 93.670    772.000    749.436     22.564    559.298    741.645    567.017    559.298    559.298
 93.770    768.284    769.064     -0.780    558.984    760.555    567.415    558.984    558.984
 93.870    765.000    788.519    -23.519    558.669    779.259    567.847    558.669    558.669
 93.970    766.598    807.363    -40.765    558.355    797.307    568.326    558.355    558.355
 94.070    820.000    825.315     -5.315    558.040    814.385    568.883    558.040    558.040
 94.170    801.134    842.331    -41.197    557.726    830.401    569.567    557.726    557.726
 94.270    850.000    858.618     -8.618    557.412    845.495    570.446    557.412    557.412
 94.370    918.000    874.558     43.442    557.097    859.964    571.602    557.097    557.097
 94.470    874.307    890.563    -16.256    556.783    874.137    573.121    556.783    556.783
 94.570    916.556    906.948      9.609    556.469    888.248    575.081    556.469    556.469
 94.670    901.000    923.843    -22.843    556.155    902.370    577.541    556.155    556.155
 94.770    942.000    941.195      0.805    555.842    916.417    580.533    555.842    555.842
 94.870    974.000    958.825     15.175    555.528    930.217    584.051    555.528    555.528
 94.970    936.000    976.493    -40.493    555.215    943.580    588.044    555.215    555.215
 95.070   1028.000    993.929     34.071    554.902    956.338    592.413    554.902    554.902
 95.170   1019.861   1010.781      9.079    554.589    968.287    597.006    554.589    554.589
 95.270   1025.000   1026.515     -1.515    554.276    979.094    601.625    554.276    554.276
 95.370   1020.000   1040.338    -20.338    553.964    988.209    606.025    553.964    553.964
 95.470   1080.000   1051.180     28.820    553.652    994.839    609.931    553.652    553.652
 95.570   1033.535   1057.806    -24.271    553.340    998.037    613.056    553.340    553.340
 95.670   1049.000   1059.019    -10.019    553.029    996.867    615.136    553.029    553.029
 95.770   1063.000   1053.856      9.144    552.718    990.573    615.965    552.718    552.718
 95.870   1051.000   1041.913      9.087    552.407    978.853    615.443    552.407    552.407
 95.970    961.070   1023.505    -62.435    552.097    961.995    613.592    552.097    552.097
 96.070    939.836    999.643    -59.806    551.787    940.865    610.558    551.787    551.787
 96.170    995.000    971.864     23.136    551.478    916.769    606.573    551.478    551.478
 96.270    932.000    942.001    -10.001    551.169    891.260    601.914    551.169    551.169
 96.370    948.000    911.972     36.028    550.861    865.971    596.868    550.861    550.861
 96.470    911.000    883.647     27.353    550.553    842.504    591.703    550.553    550.553
 96.570    865.000    858.763      6.237    550.245    822.362    586.651    550.245    550.245
 96.670    840.000    838.879      1.121    549.938    806.916    581.903    549.938    549.938
 96.770    806.748    825.352    -18.604    549.632    797.382    577.599    549.632    549.632
 96.870    860.000    819.323     40.677    549.326    794.808    573.831    549.326    549.326
 96.970    842.000    821.706     20.294    549.021    800.063    570.647    549.021    549.021
 97.070    856.000    833.189     22.811    548.716    813.823    568.056    548.716    548.716
 97.170    839.897    854.216    -14.319    548.412    836.555    566.038    548.412    548.412
 97.270    886.000    884.981      1.019    548.109    868.492    564.552    548.109    548.109
 97.370    957.136    925.396     31.741    547.806    909.599    563.547    547.806    547.806
 97.470   1035.953    975.057     60.897    547.504    959.532    562.963    547.504    547.504
 97.570    991.093   1033.202    -42.109    547.203   1017.590    562.740    547.203    547.203
 97.670   1139.000   1098.656     40.344    546.903   1082.661    562.815    546.903    546.903
 97.770   1184.000   1169.738     14.262    546.603   1153.131    563.120    546.603    546.603
 97.870   1240.235   1244.490     -4.255    546.304   1227.105    563.595    546.304    546.304
 97.970   1257.553   1320.247    -62.694    546.006   1301.992    564.165    546.006    546.006
 98.070   1329.175   1393.905    -64.730    545.709   1374.763    564.757    545.709    545.709
 98.170   1549.000   1461.952     87.048    545.413   1441.985    565.291    545.413    545.413
 98.270   1602.000   1520.633     81.367    545.117   1499.983    565.688    545.117    545.117
 98.370   1509.462   1566.273    -56.811    544.822   1545.160    565.871    544.822    544.822
 98.470   1669.988   1595.760     74.228    544.529   1574.465    565.776    544.529    544.529
 98.570   1630.000   1607.075     22.925    544.236   1585.921    565.362    544.236    544.236
 98.670   1598.000   1599.700     -1.700    543.944   1579.015    564.620    543.944    543.944
 98.770   1562.000   1574.706    -12.706    543.653   1554.801    563.568    543.653    543.653
 98.870   1536.599   1534.514      2.085    543.364   1515.649    562.255    543.364    543.364
 98.970   1475.000   1482.433     -7.433    543.075   1464.804    560.742    543.075    543.075
 99.070   1334.000   1422.180    -88.180    542.787   1405.914    559.101    542.787    542.787
 99.170   1285.866   1357.500    -71.635    542.501   1342.654    557.399    542.501    542.501
 99.270   1302.000   1291.925     10.075    542.215   1278.493    555.701    542.215    542.215
 99.370   1183.606   1228.628    -45.023    541.931   1216.550    554.062    541.931    541.931
 99.470   1150.478   1170.366    -19.888    541.648   1159.534    552.529    541.648    541.648
 99.570   1068.595   1119.456    -50.861    541.366   1109.724    551.140    541.366    541.366
 99.670   1098.000   1077.790     20.210    541.085   1068.988    549.923    541.085    541.085
 99.770   1017.387   1046.867    -29.480    540.805   1038.802    548.897    540.805    540.805
 99.870   1044.136   1027.818     16.318    540.527   1020.291    548.073    540.527    540.527
 99.970    986.942   1021.437    -34.495    540.250   1014.242    547.455    540.250    540.250
100.070   1064.000   1028.190     35.810    539.974   1021.128    547.039    539.974    539.974
100.170    996.000   1048.234    -52.234    539.700   1041.115    546.816    539.700    539.700
100.270   1113.424   1081.417     32.007    539.427   1074.066    546.769    539.427    539.427
100.370   1167.000   1127.282     39.718    539.155   1119.546    546.881    539.155    539.155
100.470   1181.000   1185.060     -4.060    538.885   1176.808    547.126    538.885    538.885
100.570   1236.000   1253.656    -17.656    538.616   1244.785    547.477    538.616    538.616
100.670   1368.000   1331.625     36.375    538.348   1322.065    547.904    538.348    538.348
100.770   1435.000   1417.151     17.849    538.082   1406.867    548.372    538.082    538.082
100.870   1496.000   1508.031    -12.031    537.818   1497.021    548.844    537.818    537.818
100.970   1682.000   1601.678     80.322    537.555   1589.982    549.283    537.555    537.555
101.070   1652.401   1695.180    -42.779    537.294   1682.874    549.651    537.294    537.294
101.170   1830.000   1785.536     44.464    537.034   1772.730    549.912    537.034    537.034
101.270   1927.235   1869.761     57.474    536.776   1856.594    550.039    536.776    536.776
101.370   1975.142   1945.243     29.899    536.519   1931.868    550.015    536.519    536.519
101.470   1991.000   2009.937    -18.937    536.264   1996.509    549.837    536.264    536.264
101.570   2108.000   2062.407     45.593    536.011   2049.068    549.518    536.011    536.011
101.670   2168.000   2101.693     66.307    535.760   2088.560    549.081    535.760    535.760
101.770   2203.000   2127.090     75.910    535.510   2114.246    548.561    535.510    535.510
101.870   2203.000   2137.981     65.019    535.262   2125.474    547.991    535.262    535.262
101.970   2173.000   2133.852     39.148    535.016   2121.697    547.407    535.016    535.016
102.070   2029.590   2114.509    -84.919    534.771   2102.685    546.839    534.771    534.771
102.170   2013.000   2080.406    -67.406    534.529   2068.870    546.315    534.529    534.529
102.270   2042.000   2032.926      9.074    534.288   2021.612    545.853    534.288    534.288
102.370   1989.740   1974.438     15.302    534.049   1963.266    545.469    534.049    534.049
102.470   1835.383   1908.071    -72.688    533.812   1896.955    545.169    533.812    533.812
102.570   1800.000   1837.302    -37.302    533.577   1826.157    544.953    533.577    533.577
102.670   1708.000   1765.507    -57.507    533.345   1754.258    544.813    533.345    533.345
102.770   1686.000   1695.613     -9.613    533.114   1684.198    544.734    533.114    533.114
102.870   1605.000   1629.889    -24.889    532.885   1618.268    544.697    532.885    532.885
102.970   1470.000   1569.869    -99.869    532.658   1558.027    544.678    532.658    532.658
103.070   1473.861   1516.352    -42.490    532.433   1504.294    544.655    532.433    532.433
103.170   1467.406   1469.440     -2.034    532.211   1457.196    544.607    532.211    532.211
103.270   1393.000   1428.608    -35.608    531.990   1416.228    544.513    531.990    531.990
103.370   1382.000   1392.789    -10.789    531.772   1380.339    544.355    531.772    531.772
103.470   1287.000   1360.495    -73.495    531.556   1348.059    544.118    531.556    531.556
103.570   1293.000   1329.993    -36.993    531.342   1317.670    543.787    531.342    531.342
103.670   1298.000   1299.531     -1.531    531.131   1287.429    543.351    531.131    531.131
103.770   1241.000   1267.592    -26.592    530.921   1255.827    542.804    530.921    530.921
103.870   1189.000   1233.115    -44.115    530.714   1221.799    542.146    530.714    530.714
103.970   1154.000   1195.615    -41.615    530.510   1184.851    541.387    530.510    530.510
104.070   1156.000   1155.170      0.830    530.308   1145.045    540.543    530.308    530.308
104.170   1105.000   1112.305     -7.305    530.108   1102.883    539.637    530.108    530.108
104.270   1055.000   1067.817    -12.817    529.911   1059.138    538.692    529.911    529.911
104.370   1077.000   1022.621     54.379    529.716   1014.704    537.730    529.716    529.716
104.470    944.865    977.637    -32.772    529.523    970.477    536.774    529.523    529.523
104.570    960.854    933.717     27.137    529.334    927.293    535.841    529.334    529.334
104.670    927.558    891.608     35.950    529.146    885.885    534.946    529.146    529.146
104.770    866.500    851.930     14.570    528.962    846.862    534.099    528.962    528.962
104.870    843.000    815.168     27.832    528.780    810.699    533.310    528.780    528.780
104.970    834.000    781.660     52.340    528.600    777.734    532.582    528.600    528.600
105.070    708.895    751.609    -42.714    528.423    748.163    531.917    528.423    528.423
105.170    776.658    725.083     51.576    528.249    722.056    531.317    528.249    528.249
105.270    768.000    702.032     65.968    528.078    699.368    530.778    528.078    528.078
105.370    741.000    682.297     58.703    527.910    679.945    530.290    527.910    527.910
105.470    680.000    665.691     14.309    527.744    663.600    529.859    527.744    527.744
105.570    678.594    651.962     26.631    527.581    650.081    529.482    527.581    527.581
105.670    650.000    640.810      9.190    527.421    639.099    529.148    527.421    527.421
105.770    614.964    631.948    -16.984    527.264    630.371    528.854    527.264    527.264
105.870    649.000    625.109     23.891    527.110    623.635    528.593    527.110    527.110
105.970    632.612    620.045     12.567    526.959    618.648    528.362    526.959    526.959
106.070    630.018    616.546     13.472    526.811    615.203    528.158    526.811    526.811
106.170    586.666    614.444    -27.778    526.666    613.134    527.977    526.666    526.666
106.270    642.000    613.611     28.389    526.524    612.317    527.817    526.524    526.524
106.370    656.000    613.959     42.041    526.385    612.664    527.676    526.385    526.385
106.470    604.000    615.434    -11.434    526.249    614.122    527.554    526.249    526.249
106.570    653.000    618.009     34.991    526.117    616.666    527.450    526.117    526.117
106.670    627.000    621.680      5.320    525.987    620.292    527.363    525.987    525.987
106.770    598.654    626.455    -27.801    525.861    625.008    527.294    525.861    525.861
106.870    660.000    632.349     27.651    525.738    630.827    527.242    525.738    525.738
106.970    591.990    639.371    -47.382    525.619    637.761    527.208    525.619    525.619
107.070    636.022    647.521    -11.499    525.502    645.808    527.191    525.502    525.502
107.170    650.000    656.776     -6.776    525.389    654.946    527.192    525.389    525.389
107.270    654.238    667.083    -12.844    525.280    665.123    527.208    525.280    525.280
107.370    703.000    678.350     24.650    525.174    676.250    527.240    525.174    525.174
107.470    759.000    690.443     68.557    525.071    688.192    527.284    525.071    525.071
107.570    728.000    703.178     24.822    524.972    700.770    527.340    524.972    524.972
107.670    740.000    716.323     23.677    524.876    713.754    527.402    524.876    524.876
107.770    696.000    729.598    -33.598    524.784    726.869    527.468    524.784    524.784
107.870    723.000    742.679    -19.679    524.696    739.795    527.532    524.696    524.696
107.970    724.000    755.206    -31.206    524.611    752.179    527.590    524.611    524.611
108.070    738.000    766.801    -28.801    524.530    763.646    527.636    524.530    524.530
108.170    766.000    777.089    -11.089    524.453    773.828    527.665    524.453    524.453
108.270    760.000    785.737    -25.737    524.379    782.398    527.672    524.379    524.379
108.370    760.513    792.496    -31.983    524.309    789.109    527.653    524.309    524.309
108.470    747.720    797.242    -49.522    524.243    793.839    527.605    524.243    524.243
108.570    805.000    800.004      4.996    524.181    796.619    527.529    524.181    524.181
108.670    777.000    800.968    -23.968    524.122    797.631    527.426    524.122    524.122
108.770    736.000    800.449    -64.449    524.068    797.187    527.300    524.068    524.068
108.870    802.598    798.849      3.750    524.017    795.684    527.157    524.017    524.017
108.970    755.000    796.601    -41.601    523.971    793.550    527.001    523.971    523.971
109.070    798.000    794.126      3.874    523.929    791.200    526.838    523.929    523.929
109.170    756.106    791.795    -35.690    523.890    788.998    526.675    523.890    523.890
109.270    729.000    789.903    -60.903    523.856    787.236    526.515    523.856    523.856
109.370    775.895    788.657    -12.763    523.826    786.116    526.363    523.826    523.826
109.470    751.000    788.166    -37.166    523.800    785.744    526.221    523.800    523.800
109.570    757.868    788.438    -30.571    523.778    786.127    526.092    523.778    523.778
109.670    767.000    789.380    -22.380    523.760    787.170    525.978    523.760    523.760
109.770    760.000    790.802    -30.802    523.747    788.681    525.877    523.747    523.747
109.870    776.000    792.423    -16.423    523.738    790.384    525.791    523.738    523.738
109.970    747.398    793.895    -46.497    523.734    791.928    525.717    523.734    523.734
110.070    767.000    794.820    -27.820    523.734    792.918    525.654    523.734    523.734
110.170    816.121    794.793     21.329    523.738    792.952    525.600    523.738    523.738
110.270    803.277    793.446      9.831    523.747    791.665    525.553    523.747    523.747
110.370    792.000    790.498      1.502    523.760    788.774    525.510    523.760    523.760
110.470    765.985    785.791    -19.805    523.778    784.125    525.471    523.778    523.778
110.570    793.000    779.307     13.693    523.800    777.701    525.435    523.800    523.800
110.670    733.000    771.166    -38.166    523.827    769.623    525.400    523.827    523.827
110.770    760.038    761.579     -1.541    523.859    760.114    525.354    523.859    523.859
110.870    689.000    750.881    -61.881    523.896    749.480    525.325    523.896    523.896
110.970    706.000    739.386    -33.386    523.937    738.049    525.302    523.937    523.937
111.070    723.000    727.427     -4.427    523.983    726.151    525.285    523.983    523.983
111.170    724.000    715.317      8.683    524.033    714.101    525.274    524.033    524.033
111.270    706.000    703.342      2.658    524.089    702.183    525.271    524.089    524.089
111.370    693.000    691.750      1.250    524.150    690.644    525.276    524.150    524.150
111.470    701.000    680.750     20.250    524.215    679.693    525.290    524.215    524.215
111.570    660.000    670.509    -10.509    524.285    669.497    525.314    524.285    524.285
111.670    667.000    661.157      5.843    524.361    660.183    525.349    524.361    524.361
111.770    638.000    652.781    -14.781    524.441    651.840    525.394    524.441    524.441
111.870    686.362    645.434     40.928    524.527    644.521    525.449    524.527    524.527
111.970    684.362    639.133     45.229    524.618    638.242    525.516    524.618    524.618
112.070    633.000    633.858     -0.858    524.714    632.984    525.592    524.714    524.714
112.170    664.124    629.595     34.528    524.815    628.733    525.680    524.815    524.815
112.270    668.000    626.281     41.719    524.921    625.427    525.777    524.921    524.921
112.370    605.290    623.847    -18.556    525.033    622.995    525.884    525.033    525.033
112.470    646.000    622.214     23.786    525.150    621.362    526.000    525.150    525.150
112.570    577.823    621.302    -43.479    525.273    620.447    526.124    525.273    525.273
112.670    635.000    621.028     13.972    525.401    620.168    526.257    525.401    525.401
112.770    613.000    621.315     -8.315    525.534    620.446    526.396    525.534    525.534
112.870    619.862    622.088     -2.226    525.673    621.211    526.543    525.673    525.673
112.970    598.830    623.284    -24.454    525.817    622.397    526.696    525.817    525.817
113.070    588.001    624.849    -36.848    525.967    623.952    526.856    525.967    525.967
113.170    629.203    626.741      2.462    526.123    625.834    527.021    526.123    526.123
113.270    584.000    628.934    -44.934    526.284    628.016    527.192    526.284    526.284
113.370    639.869    631.414      8.455    526.451    630.485    527.370    526.451    526.451
113.470    650.788    634.185     16.602    526.624    633.246    527.553    526.624    526.624
113.570    648.000    637.267     10.733    526.803    636.315    527.744    526.803    526.803
113.670    601.380    640.695    -39.315    526.987    639.730    527.942    526.987    526.987
113.770    651.000    644.525      6.475    527.177    643.544    528.148    527.177    527.177
113.870    690.854    648.834     42.021    527.374    647.832    528.363    527.374    527.374
113.970    612.290    653.721    -41.431    527.576    652.695    528.589    527.576    527.576
114.070    663.000    659.319      3.681    527.784    658.262    528.827    527.784    527.784
114.170    700.000    665.797     34.203    527.998    664.703    529.078    527.998    527.998
114.270    648.000    673.373    -25.373    528.219    672.233    529.343    528.219    528.219
114.370    670.000    682.322    -12.322    528.445    681.125    529.625    528.445    528.445
114.470    661.226    692.993    -31.767    528.678    691.725    529.926    528.678    528.678
114.570    687.677    705.818    -18.141    528.917    704.465    530.247    528.917    528.917
114.670    713.233    721.336     -8.104    529.163    719.880    530.591    529.163    529.163
114.770    723.000    740.206    -17.206    529.414    738.626    530.960    529.414    529.414
114.870    799.626    763.224     36.402    529.672    761.498    531.358    529.672    529.672
114.970    835.670    791.343     44.327    529.937    789.444    531.787    529.937    529.937
115.070    789.652    825.686    -36.034    530.208    823.585    532.250    530.208    530.208
115.170    864.000    867.556     -3.556    530.485    865.219    532.750    530.485    530.485
115.270    906.191    918.442    -12.250    530.769    915.834    533.291    530.769    530.769
115.370   1012.976    980.014     32.962    531.059    977.095    533.875    531.059    531.059
115.470   1040.000   1054.110    -14.110    531.357   1050.837    534.506    531.357    531.357
115.570   1128.000   1142.710    -14.710    531.660   1139.036    535.186    531.660    531.660
115.670   1286.096   1247.889     38.207    531.971   1243.767    535.918    531.971    531.971
115.770   1394.000   1371.768     22.232    532.288   1367.147    536.703    532.288    532.288
115.870   1508.501   1516.433     -7.932    532.613   1511.261    537.543    532.613    532.613
115.970   1655.168   1683.845    -28.677    532.944   1678.070    538.440    532.944    532.944
116.070   1794.000   1875.741    -81.741    533.282   1869.312    539.391    533.282    533.282
116.170   2178.798   2093.509     85.289    533.627   2086.376    540.397    533.627    533.627
116.270   2345.000   2338.070      6.930    533.979   2330.186    541.454    533.979    533.979
116.370   2665.990   2609.746     56.244    534.338   2601.071    542.559    534.338    534.338
116.470   2833.521   2908.146    -74.625    534.704   2898.645    543.705    534.704    534.704
116.570   3449.000   3232.054    216.946    535.077   3221.701    544.886    535.077    535.077
116.670   3542.000   3579.331    -37.331    535.457   3568.112    546.094    535.457    535.457
116.770   3919.000   3946.857    -27.857    535.845   3934.766    547.318    535.845    535.845
116.870   4260.000   4330.491    -70.491    536.240   4317.535    548.549    536.240    536.240
116.970   4661.000   4725.060    -64.060    536.643   4711.259    549.776    536.643    536.643
117.070   5045.000   5124.398    -79.398    537.052   5109.782    550.989    537.052    537.052
117.170   5472.000   5521.395    -49.395    537.470   5506.008    552.178    537.470    537.470
117.270   5804.225   5908.088   -103.863    537.894   5891.985    553.331    537.894    537.894
117.370   6207.000   6275.901    -68.901    538.326   6259.146    554.441    538.326    538.326
117.470   6612.000   6615.776     -3.776    538.766   6598.445    555.498    538.766    538.766
117.570   7087.000   6918.442    168.558    539.214   6900.621    556.492    539.214    539.214
117.670   7107.621   7174.889    -67.268    539.669   7156.674    557.412    539.669    539.669
117.770   7251.413   7376.858   -125.444    540.132   7358.352    558.248    540.132    540.132
117.870   7629.089   7517.422    111.667    540.602   7498.736    558.993    540.602    540.602
117.970   7620.932   7591.586     29.345    541.081   7572.833    559.639    541.081    541.081
118.070   7428.706   7596.773   -168.067    541.567   7578.066    560.183    541.567    541.567
118.170   7633.000   7533.091     99.909    542.061   7514.540    560.625    542.061    542.061
118.270   7537.000   7403.322    133.678    542.563   7385.029    560.966    542.563    542.563
118.370   7139.000   7212.618    -73.618    543.074   7194.679    561.213    543.074    543.074
118.470   6892.000   6967.996    -75.996    543.592   6950.494    561.372    543.592    543.592
118.570   6737.000   6677.736     59.264    544.118   6660.746    561.453    544.118    544.118
118.670   6490.689   6350.800    139.889    544.653   6334.384    561.464    544.653    544.653
118.770   5879.332   5996.325   -116.993    545.196   5980.538    561.415    545.196    545.196
118.870   5646.000   5623.236     22.764    545.747   5608.122    561.318    545.747    545.747
118.970   5209.000   5239.954    -30.954    546.306   5225.546    561.182    546.306    546.306
119.070   4863.302   4854.185      9.117    546.874   4840.507    561.019    546.874    546.874
119.170   4527.000   4472.779     54.221    547.451   4459.845    560.841    547.451    547.451
119.270   4057.101   4101.633    -44.532    548.035   4089.447    560.658    548.035    548.035
119.370   3820.000   3745.636     74.364    548.629   3734.193    560.482    548.629    548.629
119.470   3515.000   3408.656    106.344    549.230   3397.941    560.324    549.230    549.230
119.570   3126.773   3093.558     33.215    549.841   3083.549    560.193    549.841    549.841
119.670   2836.000   2802.264     33.736    550.460   2792.930    560.099    550.460    550.460
119.770   2575.609   2535.832     39.777    551.088   2527.137    560.050    551.088    551.088
119.870   2329.000   2294.563     34.437    551.725   2286.465    560.052    551.725    551.725
119.970   2058.813   2078.116    -19.303    552.370   2070.568    560.110    552.370    552.370
120.070   1837.977   1885.631    -47.653    553.025   1878.584    560.230    553.025    553.025
120.170   1711.000   1715.846     -4.846    553.688   1709.248    560.414    553.688    553.688
120.270   1662.000   1567.209     94.791    554.361   1561.005    560.665    554.361    554.361
120.370   1436.000   1437.979     -1.979    555.042   1432.112    560.985    555.042    555.042
120.470   1327.000   1326.312      0.688    555.733   1320.724    561.376    555.733    555.733
120.570   1229.000   1230.341     -1.341    556.432   1224.973    561.839    556.432    556.432
120.670   1234.000   1148.237     85.763    557.141   1143.030    562.373    557.141    557.141
120.770   1111.000   1078.261     32.739    557.860   1073.154    562.980    557.860    557.860
120.870   1049.000   1018.795     30.205    558.587   1013.727    563.660    558.587    558.587
120.970    978.000    968.371      9.629    559.324    963.280    564.414    559.324    559.324
121.070    880.128    925.679    -45.551    560.071    920.503    565.242    560.071    560.071
121.170    959.000    889.572     69.428    560.826    884.246    566.144    560.826    560.826
121.270    904.000    859.061     44.939    561.592    853.521    567.123    561.592    561.592
121.370    854.000    833.305     20.695    562.367    827.483    568.179    562.367    562.367
121.470    844.496    811.596     32.900    563.151    805.424    569.315    563.151    563.151
121.570    788.000    793.346     -5.346    563.946    786.752    570.531    563.946    563.946
121.670    761.330    778.066    -16.737    564.750    770.979    571.831    564.750    564.750
121.770    781.000    765.359     15.641    565.564    757.702    573.215    565.564    565.564
121.870    732.000    754.897    -22.897    566.388    746.593    574.687    566.388    566.388
121.970    721.326    746.410    -25.084    567.221    737.381    576.248    567.221    567.221
122.070    733.187    739.679     -6.492    568.065    729.843    577.900    568.065    568.065
122.170    700.000    734.519    -34.519    568.919    723.793    579.645    568.919    568.919
122.270    711.000    730.775    -19.775    569.783    719.078    581.482    569.783    569.783
122.370    708.000    728.316    -20.316    570.657    715.563    583.414    570.657    570.657
122.470    746.508    727.025     19.483    571.541    713.133    585.438    571.541    571.541
122.570    688.000    726.797    -38.797    572.435    711.685    587.555    572.435    572.435
122.670    652.000    727.534    -75.534    573.340    711.123    589.761    573.340    573.340
122.770    742.391    729.143     13.248    574.255    711.357    592.052    574.255    574.255
122.870    693.000    731.531    -38.531    575.181    712.302    594.424    575.181    575.181
122.970    727.484    734.606     -7.122    576.117    713.871    596.867    576.117    576.117
123.070    733.000    738.270     -5.270    577.064    715.980    599.372    577.064    577.064
123.170    684.000    742.423    -58.423    578.021    718.539    601.925    578.021    578.021
123.270    723.000    746.958    -23.958    578.989    721.459    604.511    578.989    578.989
123.370    702.000    751.764    -49.764    579.967    724.647    607.111    579.967    579.967
123.470    710.165    756.722    -46.556    580.957    728.005    609.702    580.957    580.957
123.570    734.000    761.706    -27.706    581.957    731.434    612.261    581.957    581.957
123.670    791.000    766.588     24.412    582.968    734.830    614.762    582.968    582.968
123.770    771.000    771.233     -0.233    583.990    738.088    617.175    583.990    583.990
123.870    813.942    775.507     38.435    585.023    741.101    619.471    585.023    585.023
123.970    802.000    779.274     22.726    586.067    743.767    621.620    586.067    586.067
124.070    812.000    782.409     29.591    587.123    745.987    623.594    587.123    587.123
124.170    758.078    784.794    -26.716    588.189    747.670    625.365    588.189    588.189
124.270    798.577    786.332     12.244    589.267    748.742    626.911    589.267    589.267
124.370    801.000    786.950     14.050    590.356    749.145    628.217    590.356    590.356
124.470    782.000    786.601     -4.601    591.457    748.845    629.271    591.457    591.457
124.570    847.000    785.275     61.725    592.568    747.830    630.073    592.568    592.568
124.670    740.949    782.991    -42.042    593.692    746.115    630.629    593.692    593.692
124.770    859.000    779.802     79.198    594.827    743.737    630.953    594.827    594.827
124.870    736.871    775.784    -38.913    595.973    740.754    631.065    595.973    595.973
124.970    824.588    771.031     53.557    597.131    737.233    630.991    597.131    597.131
