neutron_powder_diffraction_0034
R_wp: 3.641
Temperature (K): 563.819
Counts: 83753.00
Wavelength (Ã…): 2.52098
COMMENTS
Test file for demonstrating the .xyy file format in Reel1.0
END OF HEADER
   tth       Y_obs     Y_calc      Y_res    Background    Phase_1_Nuc    Phase_1_Mag    Phase_2_Nuc    Phase_2_Mag
  9.970    738.429    710.987     27.442    709.464    710.471    709.979    709.464    709.464
 10.070    704.000    709.995     -5.995    708.385    709.474    708.906    708.385    708.385
 10.170    762.000    709.020     52.980    707.312    708.493    707.838    707.312    707.312
 10.270    696.000    708.063    -12.063    706.244    707.531    706.776    706.244    706.244
 10.370    728.000    707.129     20.871    705.181    706.590    705.719    705.181    705.181
 10.470    684.000    706.219    -22.219    704.124    705.675    704.667    704.124    704.124
 10.570    684.000    705.339    -21.339    703.072    704.788    703.621    703.072    703.072
 10.670    742.000    704.493     37.507    702.025    703.937    702.580    702.025    702.025
 10.770    741.000    703.691     37.309    700.984    703.128    701.545    700.984    700.984
 10.870    707.000    702.941      4.059    699.947    702.372    700.515    699.947    699.947
 10.970    744.000    702.258     41.742    698.916    701.683    699.490    698.916    698.916
 11.070    696.000    701.661     -5.661    697.891    701.079    698.471    697.891    697.891
 11.170    742.000    701.176     40.824    696.870    700.587    697.457    696.870    696.870
 11.270    752.825    700.843     51.982    695.855    700.247    696.448    695.855    695.855
 11.370    729.000    700.728     28.272    694.845    700.124    695.445    694.845    694.845
 11.470    720.000    700.951     19.049    693.840    700.340    694.447    693.840    693.840
 11.570    708.000    701.779      6.221    692.840    701.160    693.454    692.840    692.840
 11.670    673.151    703.816    -30.665    691.846    703.189    692.467    691.846    691.846
 11.770    658.591    708.299    -49.708    690.856    707.661    691.485    690.856    690.856
 11.870    667.752    717.267    -49.514    689.872    716.616    690.508    689.872    689.872
 11.970    749.790    733.077     16.713    688.893    732.408    689.536    688.893    688.893
 12.070    807.000    756.702     50.298    687.919    756.013    688.570    687.919    687.919
 12.170    845.000    784.687     60.313    686.950    783.973    687.609    686.950    686.950
 12.270    848.952    806.238     42.714    685.987    805.503    686.654    685.987    685.987
 12.370    837.764    807.750     30.015    685.028    807.005    685.703    685.028    685.028
 12.470    827.063    787.257     39.806    684.075    786.515    684.758    684.075    684.075
 12.570    719.000    757.390    -38.390    683.126    756.656    683.818    683.126    683.126
 12.670    710.834    730.543    -19.708    682.183    729.815    682.883    682.183    682.183
 12.770    713.000    711.404      1.596    681.245    710.678    681.954    681.245    681.245
 12.870    690.000    699.430     -9.430    680.312    698.701    681.030    680.312    680.312
 12.970    690.000    692.401     -2.401    679.384    691.667    680.111    679.384    679.384
 13.070    678.000    688.140    -10.140    678.460    687.399    679.197    678.460    678.460
 13.170    710.672    685.257     25.416    677.542    684.507    678.288    677.542    677.542
 13.270    596.000    683.053    -87.053    676.629    682.295    677.384    676.629    676.629
 13.370    671.000    681.221    -10.221    675.721    680.454    676.486    675.721    675.721
 13.470    674.486    679.622     -5.136    674.818    678.845    675.593    674.818    674.818
 13.570    649.000    678.185    -29.185    673.920    677.398    674.705    673.920    673.920
 13.670    639.000    676.866    -37.866    673.027    676.069    673.822    673.027    673.027
 13.770    704.795    675.637     29.158    672.139    674.830    672.945    672.139    672.139
 13.870    652.000    674.477    -22.477    671.256    673.660    672.072    671.256    671.256
 13.970    678.000    673.376      4.624    670.378    672.548    671.205    670.378    670.378
 14.070    646.876    672.318    -25.442    669.504    671.478    670.343    669.504    669.504
 14.170    713.128    671.293     41.835    668.636    670.443    669.486    668.636    668.636
 14.270    630.000    670.299    -40.299    667.772    669.437    668.634    667.772    667.772
 14.370    691.360    669.330     22.030    666.914    668.456    667.787    666.914    666.914
 14.470    674.000    668.384      5.616    666.060    667.497    666.946    666.060    666.060
 14.570    663.000    667.456     -4.456    665.211    666.557    666.109    665.211    665.211
 14.670    692.639    666.547     26.092    664.367    665.636    665.278    664.367    664.367
 14.770    687.284    665.655     21.629    663.528    664.731    664.452    663.528    663.528
 14.870    632.000    664.798    -32.798    662.694    663.860    663.631    662.694    662.694
 14.970    613.000    663.931    -50.931    661.864    662.979    662.815    661.864    661.864
 15.070    689.000    663.072     25.928    661.040    662.107    662.004    661.040    661.040
 15.170    679.000    662.223     16.777    660.220    661.244    661.199    660.220    660.220
 15.270    629.536    661.384    -31.848    659.405    660.391    660.398    659.405    659.405
 15.370    625.595    660.555    -34.959    658.595    659.546    659.603    658.595    658.595
 15.470    625.000    659.734    -34.734    657.789    658.710    658.812    657.789    657.789
 15.570    633.702    658.921    -25.219    656.989    657.882    658.027    656.989    656.989
 15.670    626.000    658.116    -32.116    656.193    657.062    657.247    656.193    656.193
 15.770    680.710    657.323     23.387    655.402    656.253    656.472    655.402    655.402
 15.870    612.000    656.534    -44.534    654.615    655.447    655.702    654.615    654.615
 15.970    673.000    655.751     17.249    653.833    654.648    654.937    653.833    653.833
 16.070    636.000    654.975    -18.975    653.056    653.854    654.177    653.056    653.056
 16.170    680.000    654.206     25.794    652.284    653.067    653.422    652.284    652.284
 16.270    688.987    653.443     35.544    651.516    652.286    652.673    651.516    651.516
 16.370    624.736    652.687    -27.951    650.753    651.512    651.928    650.753    650.753
 16.470    624.000    651.937    -27.937    649.995    650.743    651.189    649.995    649.995
 16.570    661.000    651.193      9.807    649.241    649.979    650.455    649.241    649.241
 16.670    631.000    650.455    -19.455    648.492    649.222    649.726    648.492    648.492
 16.770    623.000    649.724    -26.724    647.748    648.470    649.002    647.748    647.748
 16.870    614.000    648.998    -34.998    647.008    647.723    648.283    647.008    647.008
 16.970    662.000    648.279     13.721    646.273    646.982    647.569    646.273    646.273
 17.070    685.000    647.565     37.435    645.542    646.247    646.861    645.542    645.542
 17.170    660.589    646.858     13.731    644.816    645.517    646.157    644.816    644.816
 17.270    634.000    646.163    -12.163    644.095    644.798    645.459    644.095    644.095
 17.370    681.000    645.467     35.533    643.378    644.079    644.766    643.378    643.378
 17.470    634.000    644.777    -10.777    642.666    643.364    644.078    642.666    642.666
 17.570    665.000    644.093     20.907    641.958    642.654    643.396    641.958    641.958
 17.670    647.000    643.418      3.582    641.255    641.954    642.719    641.255    641.255
 17.770    661.908    642.793     19.116    640.556    641.301    642.048    640.556    640.556
 17.870    642.000    642.162     -0.162    639.862    640.642    641.381    639.862    639.862
 17.970    663.000    641.512     21.488    639.172    639.964    640.720    639.172    639.172
 18.070    621.000    640.857    -19.857    638.487    639.280    640.063    638.487    638.487
 18.170    653.854    640.207     13.647    637.806    638.601    639.412    637.806    637.806
 18.270    689.802    639.563     50.239    637.130    637.927    638.766    637.130    637.130
 18.370    669.000    638.925     30.075    636.458    637.257    638.125    636.458    636.458
 18.470    624.751    638.292    -13.541    635.790    636.592    637.490    635.790    635.790
 18.570    685.660    637.667     47.993    635.127    635.934    636.860    635.127    635.127
 18.670    628.000    637.066     -9.066    634.468    635.298    636.236    634.468    634.468
 18.770    620.000    636.462    -16.462    633.814    634.659    635.616    633.814    633.814
 18.870    647.000    635.854     11.146    633.164    634.015    635.003    633.164    633.164
 18.970    628.566    635.251     -6.685    632.519    633.375    634.395    632.519    632.519
 19.070    668.000    634.653     33.347    631.877    632.739    633.792    631.877    631.877
 19.170    604.000    634.062    -30.062    631.241    632.108    633.195    631.241    631.241
 19.270    664.557    633.478     31.079    630.608    631.482    632.603    630.608    630.608
 19.370    612.072    632.908    -20.835    629.980    630.870    632.018    629.980    629.980
 19.470    687.000    632.340     54.660    629.356    630.258    631.438    629.356    629.356
 19.570    620.000    631.787    -11.787    628.736    629.656    630.867    628.736    628.736
 19.670    575.000    631.286    -56.286    628.121    629.093    630.314    628.121    628.121
 19.770    652.675    630.738     21.937    627.510    628.495    629.753    627.510    627.510
 19.870    639.712    630.191      9.521    626.903    627.898    629.196    626.903    626.903
 19.970    638.189    629.650      8.539    626.301    627.306    628.645    626.301    626.301
 20.070    639.633    629.116     10.517    625.703    626.718    628.100    625.703    625.703
 20.170    589.000    628.591    -39.591    625.109    626.137    627.562    625.109    625.109
 20.270    623.000    628.087     -5.087    624.519    625.576    627.029    624.519    624.519
 20.370    609.000    627.583    -18.583    623.933    625.013    626.503    623.933    623.933
 20.470    606.160    627.081    -20.921    623.352    624.449    625.984    623.352    623.352
 20.570    593.000    626.606    -33.606    622.774    623.899    625.481    622.774    622.774
 20.670    625.343    626.146     -0.803    622.201    623.363    624.983    622.201    622.201
 20.770    627.000    625.678      1.322    621.632    622.826    624.484    621.632    621.632
 20.870    613.000    625.237    -12.237    621.067    622.313    623.991    621.067    621.067
 20.970    608.000    624.833    -16.833    620.507    621.834    623.505    620.507    620.507
 21.070    601.368    624.388    -23.020    619.950    621.312    623.026    619.950    619.950
 21.170    598.000    623.938    -25.938    619.398    620.782    622.554    619.398    619.398
 21.270    650.000    623.498     26.502    618.849    620.258    622.089    618.849    618.849
 21.370    617.000    623.091     -6.091    618.305    619.763    621.632    618.305    618.305
 21.470    603.000    622.688    -19.688    617.765    619.270    621.183    617.765    617.765
 21.570    647.004    622.276     24.728    617.228    618.764    620.741    617.228    617.228
 21.670    607.000    621.878    -14.878    616.696    618.267    620.307    616.696    616.696
 21.770    613.881    621.499     -7.618    616.168    617.783    619.885    616.168    616.168
 21.870    606.000    621.125    -15.125    615.644    617.299    619.470    615.644    615.644
 21.970    666.561    620.756     45.805    615.124    616.818    619.062    615.124    615.124
 22.070    562.000    620.398    -58.398    614.608    616.343    618.662    614.608    614.608
 22.170    624.000    620.052      3.948    614.095    615.875    618.272    614.095    614.095
 22.270    655.231    619.718     35.512    613.587    615.414    617.891    613.587    613.587
 22.370    667.000    619.399     47.601    613.083    614.961    617.521    613.083    613.083
 22.470    594.143    619.096    -24.952    612.583    614.517    617.161    612.583    612.583
 22.570    603.435    618.808    -15.373    612.086    614.082    616.812    612.086    612.086
 22.670    646.000    618.537     27.463    611.594    613.657    616.474    611.594    611.594
 22.770    652.000    618.285     33.715    611.105    613.243    616.147    611.105    611.105
 22.870    619.000    618.055      0.945    610.620    612.842    615.834    610.620    610.620
 22.970    591.000    617.853    -26.853    610.139    612.459    615.533    610.139    610.139
 23.070    597.790    617.676    -19.886    609.662    612.091    615.247    609.662    609.662
 23.170    611.000    617.523     -6.523    609.189    611.739    614.974    609.189    609.189
 23.270    594.010    617.403    -23.393    608.720    611.408    614.715    608.720    608.720
 23.370    633.078    617.321     15.757    608.254    611.104    614.472    608.254    608.254
 23.470    589.928    617.283    -27.355    607.793    610.830    614.246    607.793    607.793
 23.570    602.000    617.298    -15.298    607.335    610.596    614.038    607.335    607.335
 23.670    598.000    617.376    -19.376    606.881    610.410    613.848    606.881    606.881
 23.770    610.000    617.534     -7.534    606.430    610.286    613.679    606.430    606.430
 23.870    601.681    617.791    -16.110    605.984    610.244    613.531    605.984    605.984
 23.970    611.000    618.177     -7.177    605.541    610.313    613.406    605.541    605.541
 24.070    622.736    618.743      3.993    605.102    610.541    613.305    605.102    605.102
 24.170    624.000    619.585      4.415    604.667    611.024    613.230    604.667    604.667
 24.270    584.029    620.916    -36.887    604.235    611.970    613.184    604.235    604.235
 24.370    636.000    623.199     12.801    603.807    613.841    613.169    603.807    603.807
 24.470    673.658    627.335     46.323    603.383    617.538    613.187    603.383    603.383
 24.570    668.000    634.714     33.286    602.962    624.446    613.242    602.962    602.962
 24.670    657.870    646.785     11.085    602.545    636.014    613.337    602.545    602.545
 24.770    715.660    663.878     51.782    602.132    652.568    613.474    602.132    602.132
 24.870    718.000    683.244     34.756    601.722    671.353    613.660    601.722    601.722
 24.970    730.000    697.456     32.544    601.316    684.931    613.897    601.316    601.316
 25.070    696.030    698.123     -2.093    600.913    684.901    614.193    600.913    600.913
 25.170    659.707    685.011    -25.304    600.514    671.020    614.553    600.514    600.514
 25.270    682.000    666.395     15.605    600.119    651.563    614.985    600.119    600.119
 25.370    615.000    649.905    -34.905    599.727    634.156    615.497    599.727    599.727
 25.470    621.590    638.463    -16.872    599.339    621.715    616.099    599.339    599.339
 25.570    611.000    631.825    -20.825    598.954    613.984    616.803    598.954    598.954
 25.670    589.000    628.572    -39.572    598.573    609.529    617.621    598.573    598.573
 25.770    611.000    627.320    -16.320    598.196    606.947    618.571    598.196    598.196
 25.870    621.000    627.171     -6.171    597.821    605.324    619.670    597.821    597.821
 25.970    657.472    627.673     29.798    597.451    604.183    620.941    597.451    597.451
 26.070    608.764    628.643    -19.878    597.083    603.314    622.412    597.083    597.083
 26.170    642.000    630.016     11.984    596.720    602.620    624.115    596.720    596.720
 26.270    623.000    631.787     -8.787    596.359    602.055    626.090    596.359    596.359
 26.370    639.540    633.978      5.562    596.003    601.592    628.387    596.003    596.003
 26.470    657.090    636.638     20.452    595.649    601.218    631.067    595.649    595.649
 26.570    629.224    639.842    -10.618    595.299    600.928    634.211    595.299    595.299
 26.670    666.000    643.664     22.336    594.952    600.706    637.907    594.952    594.952
 26.770    650.000    648.239      1.761    594.609    600.559    642.285    594.609    594.609
 26.870    642.000    653.737    -11.737    594.269    600.492    647.509    594.269    594.269
 26.970    645.000    660.383    -15.383    593.933    600.516    653.794    593.933    593.933
 27.070    720.097    668.484     51.613    593.599    600.646    661.431    593.599    593.599
 27.170    649.282    678.461    -29.178    593.269    600.904    670.819    593.269    593.269
 27.270    670.224    690.904    -20.680    592.943    601.324    682.513    592.943    592.943
 27.370    684.000    706.668    -22.668    592.620    601.956    697.319    592.620    592.620
 27.470    696.673    727.047    -30.374    592.300    602.875    716.456    592.300    592.300
 27.570    740.680    754.294    -13.614    591.983    604.213    742.044    591.983    591.983
 27.670    797.928    793.571      4.357    591.669    606.270    778.942    591.669    591.669
 27.770    807.000    860.081    -53.081    591.359    609.926    841.468    591.359    591.359
 27.870   1005.000    999.230      5.770    591.052    617.803    972.388    591.052    591.052
 27.970   1269.000   1322.365    -53.365    590.748    636.326   1276.590    590.748    590.748
 28.070   1913.000   2023.561   -110.561    590.448    676.692   1936.924    590.448    590.448
 28.170   3354.154   3286.399     67.755    590.150    749.506   3126.393    590.150    590.150
 28.270   4980.000   5026.558    -46.558    589.856    849.954   4765.617    589.856    589.856
 28.370   6540.000   6634.917    -94.917    589.565    943.032   6280.661    589.565    589.565
 28.470   7021.743   7160.196   -138.453    589.277    974.162   6774.835    589.277    589.277
 28.570   6403.000   6237.884    165.116    588.992    922.946   5903.759    588.992    588.992
 28.670   4682.967   4666.365     16.602    588.711    836.667   4418.368    588.711    588.711
 28.770   3514.000   3453.654     60.346    588.432    775.286   3266.747    588.432    588.432
 28.870   3114.328   3053.322     61.006    588.157    766.335   2875.035    588.157    588.157
 28.970   3462.000   3346.281    115.719    587.884    801.676   3132.378    587.884    587.884
 29.070   3767.982   3855.790    -87.808    587.615    847.779   3595.621    587.615    587.615
 29.170   4014.000   4005.762      8.238    587.349    861.898   3731.371    587.349    587.349
 29.270   3476.000   3529.242    -53.242    587.086    824.276   3292.296    587.086    587.086
 29.370   2776.838   2700.626     76.212    586.826    757.770   2529.907    586.826    586.826
 29.470   1984.000   1912.831     71.169    586.569    694.383   1805.173    586.569    586.569
 29.570   1366.000   1356.119      9.881    586.314    649.588   1292.933    586.314    586.314
 29.670   1052.000   1035.172     16.828    586.063    623.808    997.470    586.063    586.063
 29.770    913.000    872.896     40.104    585.815    610.833    847.897    585.815    585.815
 29.870    861.000    792.817     68.183    585.570    604.497    773.899    585.570    585.570
 29.970    792.397    749.043     43.354    585.328    601.108    733.267    585.328    585.328
 30.070    782.000    721.043     60.957    585.088    599.024    707.110    585.088    585.088
 30.170    747.000    701.020     45.980    584.852    597.641    688.231    584.852    584.852
 30.270    681.000    685.999     -4.999    584.619    596.759    673.856    584.619    584.619
 30.370    634.532    674.707    -40.176    584.388    596.366    662.727    584.388    584.388
 30.470    647.179    666.739    -19.560    584.160    596.636    654.258    584.160    584.160
 30.570    698.000    662.571     35.429    583.936    598.084    648.415    583.936    583.936
 30.670    680.000    663.784     16.216    583.714    601.720    645.764    583.714    583.714
 30.770    674.000    672.814      1.186    583.494    608.955    647.331    583.494    583.494
 30.870    671.000    691.512    -20.512    583.278    620.855    653.897    583.278    583.278
 30.970    766.000    718.366     47.634    583.065    636.708    664.666    583.065    583.065
 31.070    754.000    745.292      8.708    582.854    652.347    675.726    582.854    582.854
 31.170    761.000    757.315      3.685    582.646    659.991    679.893    582.646    582.646
 31.270    750.000    744.054      5.946    582.441    654.248    672.181    582.441    582.441
 31.370    748.000    713.021     34.979    582.239    639.073    656.140    582.239    582.239
 31.470    659.534    679.146    -19.611    582.039    622.292    638.863    582.039    582.039
 31.570    676.000    651.843     24.157    581.842    608.846    624.821    581.842    581.842
 31.670    682.834    633.579     49.255    581.648    600.042    615.175    581.648    581.648
 31.770    641.000    622.749     18.251    581.457    595.054    609.145    581.457    581.457
 31.870    641.000    616.607     24.393    581.268    592.459    605.411    581.268    581.268
 31.970    615.514    612.960      2.554    581.082    591.121    602.917    581.082    581.082
 32.070    647.000    610.561     36.439    580.898    590.397    601.059    580.898    580.898
 32.170    581.425    608.833    -27.408    580.718    589.994    599.554    580.718    580.718
 32.270    602.000    607.540     -5.540    580.539    589.797    598.280    580.539    580.539
 32.370    586.000    606.584    -20.584    580.364    589.763    597.183    580.364    580.364
 32.470    632.000    605.922     26.078    580.191    589.877    596.234    580.191    580.191
 32.570    632.000    605.537     26.463    580.021    590.141    595.415    580.021    580.021
 32.670    563.417    605.430    -42.013    579.853    590.565    594.716    579.853    579.853
 32.770    648.309    605.620     42.689    579.688    591.172    594.134    579.688    579.688
 32.870    580.000    606.142    -26.142    579.525    591.995    593.669    579.525    579.525
 32.970    614.783    607.052      7.731    579.365    593.084    593.330    579.365    579.365
 33.070    577.000    608.438    -31.438    579.208    594.512    593.131    579.208    579.208
 33.170    655.000    610.436     44.564    579.053    596.387    593.099    579.053    579.053
 33.270    607.000    613.269     -6.269    578.901    598.888    593.278    578.901    578.901
 33.370    617.000    617.371     -0.371    578.751    602.355    593.763    578.751    578.751
 33.470    653.000    623.690     29.310    578.603    607.529    594.760    578.603    578.603
 33.570    611.000    634.356    -23.356    578.458    616.073    596.734    578.458    578.458
 33.670    669.000    653.734     15.266    578.315    631.392    600.647    578.315    578.315
 33.770    697.000    689.309      7.691    578.175    659.323    608.142    578.175    578.175
 33.870    797.000    750.865     46.135    578.038    707.499    621.374    578.038    578.038
 33.970    859.137    846.144     12.993    577.902    781.956    642.045    577.902    577.902
 34.070    936.000    972.490    -36.490    577.769    880.629    669.571    577.769    577.769
 34.170   1049.609   1106.278    -56.669    577.639    985.098    698.749    577.639    577.639
 34.270   1227.000   1198.294     28.706    577.511   1056.993    718.749    577.511    577.511
 34.370   1267.000   1199.085     67.915    577.385   1057.748    718.682    577.385    577.385
 34.470   1164.000   1107.900     56.100    577.261    986.766    698.377    577.261    577.261
 34.570    946.931    973.674    -26.743    577.140    882.202    668.607    577.140    577.140
 34.670    820.000    846.120    -26.120    577.021    782.827    640.315    577.021    577.021
 34.770    755.579    749.409      6.170    576.905    707.492    618.823    576.905    576.905
 34.870    750.000    686.512     63.488    576.790    658.519    604.785    576.790    576.790
 34.970    686.000    649.799     36.201    576.678    629.956    596.520    576.678    576.678
 35.070    697.000    629.455     67.545    576.569    614.152    591.870    576.569    576.569
 35.170    612.000    617.925     -5.925    576.461    605.214    589.170    576.461    576.461
 35.270    579.437    610.781    -31.344    576.356    599.690    587.446    576.356    576.356
 35.370    629.000    605.856     23.144    576.253    595.888    586.220    576.253    576.253
 35.470    638.000    602.182     35.818    576.152    593.054    585.279    576.152    576.152
 35.570    640.242    599.315     40.927    576.053    590.841    584.526    576.053    576.053
 35.670    591.000    597.022     -6.022    575.957    589.067    583.911    575.957    575.957
 35.770    619.515    595.160     24.356    575.863    587.620    583.402    575.863    575.863
 35.870    618.000    593.631     24.369    575.771    586.423    582.978    575.771    575.771
 35.970    543.000    592.367    -49.367    575.681    585.421    582.626    575.681    575.681
 36.070    551.336    591.319    -39.983    575.593    584.576    582.335    575.593    575.593
 36.170    626.000    590.449     35.551    575.507    583.856    582.099    575.507    575.507
 36.270    573.000    589.733    -16.733    575.423    583.240    581.915    575.423    575.423
 36.370    632.424    589.150     43.274    575.342    582.711    581.780    575.342    575.342
 36.470    625.000    588.689     36.311    575.262    582.255    581.696    575.262    575.262
 36.570    586.000    588.343     -2.343    575.185    581.863    581.665    575.185    575.185
 36.670    624.554    588.110     36.444    575.109    581.528    581.691    575.109    575.109
 36.770    604.000    587.994     16.006    575.036    581.247    581.783    575.036    575.036
 36.870    603.803    588.004     15.799    574.965    581.017    581.951    574.965    574.965
 36.970    625.000    588.158     36.842    574.895    580.840    582.213    574.895    574.895
 37.070    554.000    588.491    -34.491    574.828    580.727    582.591    574.828    574.828
 37.170    574.595    589.062    -14.467    574.762    580.700    583.123    574.762    574.762
 37.270    579.160    589.989    -10.829    574.699    580.815    583.873    574.699    574.699
 37.370    618.442    591.502     26.940    574.638    581.174    584.965    574.638    574.638
 37.470    561.000    594.035    -33.035    574.578    581.946    586.665    574.578    574.578
 37.570    614.000    598.351     15.649    574.520    583.342    589.528    574.520    574.520
 37.670    580.787    605.645    -24.858    574.465    585.526    594.582    574.465    574.465
 37.770    644.000    617.485     26.515    574.411    588.466    603.426    574.411    574.411
 37.870    678.490    635.345     43.146    574.359    591.724    617.974    574.359    574.359
 37.970    664.000    659.603      4.397    574.309    594.325    639.580    574.309    574.309
 38.070    710.986    688.412     22.574    574.261    595.107    667.556    574.261    574.261
 38.170    705.000    716.874    -11.874    574.214    593.717    697.362    574.214    574.214
 38.270    747.518    736.427     11.090    574.170    590.947    719.642    574.170    574.170
 38.370    694.492    737.522    -43.030    574.127    587.813    723.832    574.127    574.127
 38.470    737.000    718.203     18.797    574.086    584.950    707.339    574.086    574.086
 38.570    633.000    687.353    -54.353    574.047    582.671    678.730    574.047    574.047
 38.670    645.000    655.964    -10.964    574.009    581.046    648.929    574.009    574.009
 38.770    596.425    630.387    -33.962    573.974    579.972    624.390    573.974    573.974
 38.870    602.000    612.385    -10.385    573.940    579.291    607.035    573.940    573.940
 38.970    589.000    601.016    -12.016    573.908    578.862    596.063    573.908    573.908
 39.070    621.000    594.320     26.680    573.878    578.584    589.613    573.878    573.878
 39.170    570.000    590.438    -20.438    573.849    578.396    585.891    573.849    573.849
 39.270    615.000    588.083     26.917    573.822    578.262    583.643    573.822    573.822
 39.370    559.000    586.522    -27.522    573.797    578.160    582.158    573.797    573.797
 39.470    554.418    585.394    -30.976    573.773    578.082    581.085    573.773    573.773
 39.570    582.000    584.533     -2.533    573.751    578.027    580.257    573.751    573.751
 39.670    568.000    583.854    -15.854    573.731    577.989    579.595    573.731    573.731
 39.770    595.000    583.307     11.693    573.712    577.965    579.054    573.712    573.712
 39.870    609.000    582.864     26.136    573.695    577.953    578.605    573.695    573.695
 39.970    569.000    582.502    -13.502    573.679    577.954    578.228    573.679    573.679
 40.070    585.000    582.208      2.792    573.665    577.966    577.907    573.665    573.665
 40.170    589.000    581.970      7.030    573.653    577.989    577.633    573.653    573.653
 40.270    576.000    581.779     -5.779    573.642    578.024    577.397    573.642    573.642
 40.370    615.000    581.630     33.370    573.633    578.071    577.192    573.633    573.633
 40.470    584.000    581.517      2.483    573.625    578.130    577.013    573.625    573.625
 40.570    608.243    581.439     26.804    573.619    578.201    576.857    573.619    573.619
 40.670    570.537    581.392    -10.855    573.615    578.287    576.719    573.615    573.615
 40.770    617.439    581.376     36.063    573.611    578.389    576.599    573.611    573.611
 40.870    606.000    581.391     24.609    573.610    578.509    576.492    573.610    573.610
 40.970    559.000    581.437    -22.437    573.609    578.648    576.399    573.609    573.609
 41.070    595.000    581.517     13.483    573.611    578.811    576.318    573.611    573.611
 41.170    567.874    581.633    -13.758    573.613    579.000    576.247    573.613    573.613
 41.270    595.639    581.789     13.850    573.618    579.222    576.185    573.618    573.618
 41.370    627.865    581.993     45.872    573.623    579.483    576.133    573.623    573.623
 41.470    557.000    582.251    -25.251    573.630    579.791    576.090    573.630    573.630
 41.570    621.000    582.575     38.425    573.638    580.159    576.056    573.638    573.638
 41.670    616.196    582.982     33.214    573.648    580.601    576.030    573.648    573.648
 41.770    623.524    583.496     40.028    573.659    581.142    576.014    573.659    573.659
 41.870    587.000    584.156      2.844    573.672    581.821    576.008    573.672    573.672
 41.970    577.745    585.036     -7.291    573.686    582.709    576.015    573.686    573.686
 42.070    575.000    586.288    -11.288    573.701    583.950    576.041    573.701    573.701
 42.170    644.000    588.212     55.788    573.717    585.836    576.097    573.717    573.717
 42.270    561.000    591.371    -30.371    573.735    588.907    576.203    573.735    573.735
 42.370    611.000    596.678     14.322    573.754    594.042    576.397    573.754    573.754
 42.470    576.000    605.354    -29.354    573.774    602.415    576.723    573.774    573.774
 42.570    605.709    618.609    -12.900    573.796    615.191    577.229    573.796    573.796
 42.670    655.300    636.969     18.332    573.819    632.875    577.935    573.819    573.819
 42.770    610.870    659.327    -48.457    573.843    654.405    578.798    573.843    573.843
 42.870    707.000    681.925     25.075    573.868    676.165    579.673    573.868    573.868
 42.970    649.000    698.069    -49.069    573.894    691.716    580.302    573.894    573.894
 43.070    689.000    700.844    -11.844    573.922    694.406    580.419    573.922    573.922
 43.170    727.311    688.794     38.518    573.951    682.833    579.967    573.951    573.951
 43.270    695.537    667.565     27.973    573.981    662.428    579.163    573.981    573.981
 43.370    641.265    644.596     -3.330    574.012    640.346    578.296    574.012    574.012
 43.470    594.000    624.738    -30.738    574.044    621.257    577.550    574.044    574.044
 43.570    599.000    609.878    -10.878    574.078    606.972    577.000    574.078    574.078
 43.670    622.648    599.913     22.735    574.113    597.395    576.640    574.113    574.113
 43.770    659.000    593.763     65.237    574.148    591.488    576.430    574.148    574.148
 43.870    600.000    590.148      9.852    574.185    588.018    576.320    574.185    574.185
 43.970    575.808    588.030    -12.221    574.223    585.987    576.269    574.223    574.223
 44.070    611.220    586.734     24.486    574.262    584.745    576.253    574.262    574.262
 44.170    570.000    585.885    -15.885    574.302    583.933    576.256    574.302    574.302
 44.270    574.740    585.294    -10.554    574.343    583.367    576.272    574.343    574.343
 44.370    586.000    584.868      1.132    574.385    582.959    576.296    574.385    574.385
 44.470    542.377    584.559    -42.182    574.428    582.662    576.327    574.428    574.428
 44.570    609.000    584.339     24.661    574.472    582.449    576.363    574.472    574.472
 44.670    599.000    584.190     14.810    574.517    582.303    576.405    574.517    574.517
 44.770    602.000    584.098     17.902    574.564    582.211    576.451    574.564    574.564
 44.870    585.000    584.054      0.946    574.611    582.164    576.501    574.611    574.611
 44.970    574.000    584.052    -10.052    574.659    582.155    576.556    574.659    574.659
 45.070    571.906    584.086    -12.180    574.708    582.179    576.615    574.708    574.708
 45.170    564.000    584.152    -20.152    574.758    582.232    576.677    574.758    574.758
 45.270    599.000    584.247     14.753    574.808    582.312    576.743    574.808    574.808
 45.370    600.000    584.369     15.631    574.860    582.416    576.813    574.860    574.860
 45.470    543.947    584.516    -40.570    574.913    582.542    576.887    574.913    574.913
 45.570    609.000    584.689     24.311    574.966    582.691    576.964    574.966    574.966
 45.670    614.000    584.887     29.113    575.021    582.861    577.046    575.021    575.021
 45.770    569.407    585.109    -15.702    575.076    583.052    577.132    575.076    575.076
 45.870    630.726    585.358     45.369    575.132    583.266    577.223    575.132    575.132
 45.970    609.000    585.633     23.367    575.189    583.502    577.319    575.189    575.189
 46.070    545.000    585.936    -40.936    575.247    583.763    577.419    575.247    575.247
 46.170    559.346    586.271    -26.924    575.305    584.049    577.525    575.305    575.305
 46.270    621.174    586.639     34.535    575.364    584.365    577.638    575.364    575.364
 46.370    633.000    587.044     45.956    575.425    584.711    577.756    575.425    575.425
 46.470    586.000    587.492     -1.492    575.485    585.093    577.882    575.485    575.485
 46.570    545.000    587.987    -42.987    575.547    585.516    578.017    575.547    575.547
 46.670    626.000    588.539     37.461    575.609    585.987    578.160    575.609    575.609
 46.770    609.330    589.156     20.174    575.673    586.513    578.314    575.673    575.673
 46.870    618.000    589.852     28.148    575.736    587.107    578.480    575.736    575.736
 46.970    601.632    590.649     10.983    575.801    587.787    578.661    575.801    575.801
 47.070    561.280    591.577    -30.298    575.866    588.581    578.860    575.866    575.866
 47.170    556.000    592.700    -36.700    575.932    589.544    579.085    575.932    575.932
 47.270    567.000    594.132    -27.132    575.999    590.780    579.347    575.999    575.999
 47.370    601.631    596.094      5.536    576.066    592.485    579.671    576.066    576.066
 47.470    566.000    598.965    -32.965    576.134    594.997    580.095    576.134    576.134
 47.570    619.000    603.320     15.680    576.203    598.833    580.681    576.203    576.203
 47.670    606.719    609.890     -3.171    576.272    604.645    581.503    576.272    576.272
 47.770    603.000    619.369    -16.369    576.342    613.055    582.635    576.342    576.342
 47.870    646.000    632.073     13.927    576.412    624.346    584.111    576.412    576.412
 47.970    672.354    647.483     24.871    576.483    638.048    585.878    576.483    576.483
 48.070    640.000    663.755    -23.755    576.555    652.509    587.750    576.555    576.555
 48.170    696.453    677.375     19.078    576.627    664.575    589.369    576.627    576.627
 48.270    680.000    683.914     -3.914    576.700    670.272    590.281    576.700    576.700
 48.370    672.000    681.024     -9.024    576.773    667.491    590.250    576.773    576.773
 48.470    678.000    670.779      7.221    576.847    658.085    589.494    576.847    576.847
 48.570    603.000    657.598    -54.598    576.921    646.012    588.472    576.921    576.921
 48.670    616.000    645.183    -29.183    576.996    634.581    587.572    576.996    576.996
 48.770    661.000    635.596     25.404    577.071    625.633    587.015    577.071    577.071
 48.870    618.000    629.550    -11.550    577.147    619.796    586.888    577.147    577.147
 48.970    599.000    626.897    -27.897    577.223    616.921    587.190    577.223    577.223
 49.070    595.634    627.103    -31.469    577.300    616.507    587.887    577.300    577.300
 49.170    657.000    629.626     27.374    577.377    618.041    588.956    577.377    577.377
 49.270    634.000    634.183     -0.183    577.454    621.216    590.414    577.454    577.454
 49.370    621.000    640.961    -19.961    577.533    626.109    592.377    577.533    577.533
 49.470    682.741    651.012     31.730    577.611    633.453    595.160    577.611    577.611
 49.570    655.000    667.147    -12.147    577.690    645.293    599.529    577.690    577.690
 49.670    644.000    695.672    -51.672    577.769    666.276    607.140    577.769    577.769
 49.770    738.000    749.010    -11.010    577.849    705.544    621.271    577.849    577.849
 49.870    798.000    848.233    -50.233    577.929    778.387    647.698    577.929    577.929
 49.970    987.000   1021.363    -34.363    578.009    905.451    693.798    578.009    578.009
 50.070   1270.899   1295.846    -24.947    578.090   1106.886    766.871    578.090    578.090
 50.170   1712.447   1682.124     30.323    578.171   1390.366    869.699    578.171    578.171
 50.270   2224.563   2153.539     71.025    578.252   1736.350    995.188    578.252    578.252
 50.370   2526.000   2632.397   -106.397    578.334   2087.858   1122.651    578.334    578.334
 50.470   2940.000   2994.484    -54.484    578.416   2353.767   1219.002    578.416    578.416
 50.570   2981.000   3110.794   -129.794    578.498   2439.427   1249.862    578.498    578.498
 50.670   2907.875   2931.475    -23.601    578.580   2308.258   1201.903    578.580    578.580
 50.770   2476.000   2531.333    -55.333    578.663   2015.186   1094.970    578.663    578.663
 50.870   2108.000   2046.631     61.369    578.746   1660.287    965.256    578.746    578.746
 50.970   1604.000   1594.099      9.901    578.829   1329.337    843.731    578.829    578.829
 51.070   1279.000   1239.579     39.421    578.913   1070.763    747.832    578.913    578.913
 51.170   1005.000    999.520      5.480    578.997    896.681    681.907    578.997    578.997
 51.270    831.000    857.190    -26.190    579.080    794.705    641.615    579.080    579.080
 51.370    825.409    782.485     42.924    579.165    742.412    619.276    579.165    579.165
 51.470    778.000    746.455     31.545    579.249    717.941    607.796    579.249    579.249
 51.570    735.048    727.838      7.210    579.333    704.887    602.315    579.333    579.333
 51.670    743.000    714.420     28.580    579.418    693.710    600.155    579.418    579.418
 51.770    644.000    701.773    -57.773    579.503    681.216    600.081    579.503    579.503
 51.870    675.702    689.970    -14.268    579.588    668.041    601.531    579.588    579.588
 51.970    687.000    680.203      6.797    579.673    655.808    604.076    579.673    579.673
 52.070    619.000    673.058    -54.058    579.758    645.707    607.109    579.758    579.758
 52.170    706.888    668.127     38.761    579.843    638.237    609.729    579.843    579.843
 52.270    687.000    664.305     22.695    579.929    633.351    610.876    579.929    579.929
 52.370    642.306    660.543    -18.237    580.014    630.694    609.855    580.014    580.014
 52.470    704.000    656.583     47.417    580.100    629.842    606.834    580.100    580.100
 52.570    668.000    652.962     15.038    580.185    630.472    602.671    580.185    580.185
 52.670    688.622    650.533     38.089    580.271    632.471    598.330    580.271    580.271
 52.770    642.361    650.191     -7.830    580.357    636.036    594.509    580.357    580.357
 52.870    665.000    652.933     12.067    580.443    641.816    591.558    580.443    580.443
 52.970    669.000    660.153      8.847    580.528    651.127    589.551    580.528    580.528
 53.070    709.000    674.019     34.981    580.614    666.249    588.381    580.614    580.614
 53.170    743.000    697.794     45.206    580.700    690.615    587.873    580.700    580.700
 53.270    796.000    735.959     60.041    580.786    728.657    588.079    580.786    580.786
 53.370    800.000    792.950      7.050    580.872    784.933    588.875    580.872    580.872
 53.470    943.000    871.793     71.207    580.957    862.507    590.227    580.957    580.957
 53.570   1009.000    971.732     37.268    581.043    960.687    592.070    581.043    581.043
 53.670   1137.524   1085.678     51.846    581.129   1072.553    594.235    581.129    581.129
 53.770   1132.291   1197.862    -65.571    581.215   1182.666    596.396    581.215    581.215
 53.870   1315.000   1283.247     31.753    581.300   1266.499    598.042    581.300    581.300
 53.970   1293.000   1314.414    -21.414    581.386   1297.184    598.620    581.386    581.386
 54.070   1317.061   1279.143     37.917    581.471   1262.744    597.883    581.471    581.471
 54.170   1191.000   1191.357     -0.357    581.556   1176.823    596.107    581.556    581.556
 54.270   1084.000   1078.949      5.051    581.641   1066.759    593.849    581.641    581.641
 54.370    910.000    966.437    -56.437    581.726    956.580    591.599    581.726    581.726
 54.470    817.000    868.835    -51.835    581.811    861.003    589.655    581.811    581.811
 54.570    765.000    792.598    -27.598    581.896    786.354    588.148    581.896    581.896
 54.670    692.000    738.031    -46.031    581.981    732.935    587.081    581.981    581.981
 54.770    684.474    701.803    -17.330    582.065    697.483    586.388    582.065    582.065
 54.870    683.000    679.217      3.783    582.149    675.394    585.974    582.149    582.149
 54.970    703.881    665.821     38.060    582.233    662.306    585.749    582.233    582.233
 55.070    640.967    658.206    -17.238    582.317    654.879    585.644    582.317    582.317
 55.170    678.220    654.127     24.093    582.401    650.914    585.614    582.401    582.401
 55.270    606.000    652.280    -46.280    582.484    649.131    585.633    582.484    582.484
 55.370    617.237    651.981    -34.744    582.568    648.861    585.687    582.568    582.568
 55.470    677.145    652.916     24.229    582.651    649.797    585.769    582.651    582.651
 55.570    659.000    654.978      4.022    582.734    651.834    585.876    582.734    582.734
 55.670    639.000    658.192    -19.192    582.816    654.996    586.010    582.816    582.816
 55.770    685.000    662.702     22.298    582.898    659.426    586.172    582.898    582.898
 55.870    636.225    668.827    -32.603    582.980    665.436    586.370    582.980    582.980
 55.970    681.000    677.202      3.798    583.062    673.647    586.614    583.062    583.062
 56.070    683.035    689.070     -6.035    583.144    685.279    586.929    583.144    583.144
 56.170    692.000    706.778    -14.778    583.225    702.634    587.362    583.225    583.225
 56.270    742.687    734.485      8.202    583.305    729.789    587.991    583.305    583.305
 56.370    755.226    778.932    -23.705    583.386    773.354    588.947    583.386    583.386
 56.470    798.000    849.862    -51.862    583.466    842.882    590.420    583.466    583.466
 56.570    887.000    959.435    -72.435    583.546    950.297    592.643    583.546    583.546
 56.670   1062.000   1119.925    -57.925    583.625   1107.636    595.855    583.625    583.625
 56.770   1361.948   1339.459     22.489    583.705   1322.873    600.214    583.705    583.705
 56.870   1609.000   1616.382     -7.382    583.783   1594.387    605.687    583.783    583.783
 56.970   1940.000   1933.490      6.510    583.862   1905.313    611.944    583.862    583.862
 57.070   2291.695   2253.508     38.187    583.940   2219.101    618.267    583.940    583.940
 57.170   2583.000   2518.521     64.479    584.017   2478.959    623.538    584.017    584.017
 57.270   2665.000   2661.785      3.215    584.094   2619.431    626.471    584.094    584.094
 57.370   2685.000   2639.112     45.888    584.171   2597.163    626.213    584.171    584.171
 57.470   2497.465   2458.730     38.735    584.248   2420.197    622.927    584.248    584.248
 57.570   2195.000   2174.745     20.255    584.324   2141.577    617.662    584.324    584.324
 57.670   1817.000   1853.348    -36.348    584.399   1826.210    611.703    584.399    584.399
 57.770   1596.524   1547.170     49.354    584.474   1525.701    606.087    584.474    584.474
 57.870   1275.000   1287.904    -12.904    584.549   1271.109    601.457    584.549    584.549
 57.970   1002.000   1088.359    -86.359    584.623   1074.937    598.128    584.623    584.623
 58.070    915.011    947.580    -32.569    584.696    936.119    596.211    584.696    584.696
 58.170    828.973    856.887    -27.915    584.770    845.918    595.771    584.770    584.770
 58.270    773.000    805.440    -32.440    584.842    793.335    596.961    584.842    584.842
 58.370    719.000    784.076    -65.076    584.914    768.884    600.107    584.914    584.914
 58.470    805.481    786.962     18.519    584.986    766.276    605.658    584.986    584.986
 58.570    857.748    811.341     46.407    585.057    782.351    614.020    585.057    585.057
 58.670    912.443    856.068     56.375    585.128    815.896    625.261    585.128    585.128
 58.770    884.385    919.687    -35.302    585.198    866.032    638.803    585.198    585.198
 58.870    990.911    998.621     -7.710    585.267    930.630    653.201    585.267    585.267
 58.970   1042.000   1085.979    -43.979    585.336   1005.108    666.149    585.336    585.336
 59.070   1173.349   1171.753      1.596    585.405   1082.216    674.892    585.405    585.405
 59.170   1219.000   1245.418    -26.418    585.472   1153.593    677.263    585.472    585.472
 59.270   1354.138   1299.562     54.576    585.540   1212.208    672.879    585.540    585.540
 59.370   1357.953   1330.577     27.377    585.606   1252.884    663.305    585.606    585.606
 59.470   1293.046   1336.637    -43.590    585.672   1271.338    650.995    585.672    585.672
 59.570   1316.000   1318.412     -2.412    585.738   1265.969    638.214    585.738    585.738
 59.670   1294.033   1282.685     11.348    585.803   1241.915    626.604    585.803    585.803
 59.770   1212.620   1242.392    -29.772    585.867   1211.178    617.094    585.867    585.867
 59.870   1149.307   1211.486    -62.179    585.930   1187.456    609.943    585.930    585.930
 59.970   1234.000   1200.089     33.911    585.993   1181.128    604.896    585.993    585.993
 60.070   1250.000   1213.436     36.564    586.056   1197.940    601.446    586.056    586.056
 60.170   1282.739   1253.504     29.235    586.117   1240.378    599.086    586.117    586.117
 60.270   1358.000   1319.524     38.476    586.178   1308.044    597.451    586.178    586.178
 60.370   1434.000   1405.293     28.707    586.238   1394.960    596.319    586.238    586.238
 60.470   1499.000   1496.211      2.789    586.298   1486.663    595.561    586.298    586.298
 60.570   1523.997   1569.527    -45.529    586.357   1560.490    595.098    586.357    586.357
 60.670   1636.751   1599.844     36.907    586.415   1591.104    594.876    586.415    586.415
 60.770   1666.000   1570.509     95.491    586.473   1561.881    594.861    586.473    586.473
 60.870   1486.000   1483.507      2.493    586.529   1474.818    595.031    586.529    586.529
 60.970   1392.899   1357.451     35.448    586.586   1348.522    595.379    586.586    586.586
 61.070   1198.000   1216.583    -18.583    586.641   1207.220    595.912    586.641    586.641
 61.170   1051.000   1081.702    -30.702    586.695   1071.668    596.668    586.695    586.695
 61.270   1000.437    966.729     33.708    586.749    955.701    597.736    586.749    586.749
 61.370    910.921    878.737     32.184    586.802    866.220    599.289    586.802    586.802
 61.470    872.595    819.552     53.044    586.855    804.740    601.637    586.855    586.855
 61.570    786.000    788.110     -2.110    586.906    769.692    605.291    586.906    586.906
 61.670    759.000    782.849    -23.849    586.957    758.750    611.011    586.957    586.957
 61.770    815.311    803.379     11.933    587.007    770.512    619.812    587.007    587.007
 61.870    845.814    850.945     -5.132    587.057    805.061    632.854    587.057    587.057
 61.970    971.000    927.577     43.423    587.105    863.356    651.208    587.105    587.105
 62.070    993.000   1034.162    -41.162    587.153    945.693    675.467    587.153    587.153
 62.170   1201.684   1168.011     33.673    587.200   1049.732    705.283    587.200    587.200
 62.270   1312.000   1320.586     -8.586    587.246   1168.654    738.947    587.246    587.246
 62.370   1454.559   1475.970    -21.411    587.291   1289.906    773.097    587.291    587.291
 62.470   1493.000   1610.814   -117.814    587.335   1395.144    802.739    587.335    587.335
 62.570   1694.255   1697.721     -3.466    587.379   1462.856    821.993    587.379    587.379
 62.670   1743.000   1714.478     28.522    587.421   1475.600    826.085    587.421    587.421
 62.770   1612.000   1655.969    -43.969    587.463   1429.344    813.920    587.463    587.463
 62.870   1582.000   1537.638     44.362    587.504   1336.185    788.835    587.504    587.504
 62.970   1434.090   1386.146     47.944    587.544   1217.025    756.582    587.544    587.544
 63.070   1216.000   1227.459    -11.459    587.584   1092.227    722.762    587.584    587.584
 63.170   1135.990   1080.832     55.158    587.622    976.887    691.533    587.622    587.622
 63.270    916.073    957.612    -41.539    587.660    879.902    665.347    587.660    587.660
 63.370    842.000    862.081    -20.081    587.696    804.629    645.133    587.696    587.696
 63.470    783.000    793.250    -10.250    587.732    750.286    630.682    587.732    587.732
 63.570    734.000    747.007    -13.007    587.767    713.645    621.115    587.767    587.767
 63.670    733.000    718.154     14.846    587.800    690.625    615.315    587.800    587.800
 63.770    725.000    701.935     23.065    587.833    677.487    612.266    587.833    587.833
 63.870    736.000    694.885     41.115    587.865    671.495    611.238    587.865    587.865
 63.970    733.000    695.145     37.855    587.896    671.144    611.877    587.896    587.896
 64.070    707.000    702.443      4.557    587.927    676.111    614.234    587.927    587.927
 64.170    749.000    717.898     31.102    587.956    687.052    618.768    587.956    587.956
 64.270    747.000    743.715      3.285    587.984    705.307    626.347    587.984    587.984
 64.370    795.475    782.725     12.750    588.011    732.485    638.191    588.011    588.011
 64.470    868.000    837.697     30.303    588.038    769.926    655.726    588.038    588.038
 64.570    982.000    910.399     71.601    588.063    818.055    680.299    588.063    588.063
 64.670   1042.000   1000.486     41.514    588.087    875.695    712.741    588.087    588.087
 64.770   1191.000   1104.341     86.659    588.111    939.437    752.845    588.111    588.111
 64.870   1196.000   1214.123    -18.123    588.133   1003.194    798.865    588.133    588.133
 64.970   1409.000   1317.545     91.455    588.154   1058.355    847.128    588.154    588.154
 65.070   1399.000   1399.396     -0.396    588.175   1095.430    891.918    588.175    588.175
 65.170   1484.000   1445.428     38.572    588.194   1107.471    925.941    588.194    588.194
 65.270   1507.955   1447.173     60.782    588.213   1093.171    942.032    588.213    588.213
 65.370   1422.342   1405.177     17.164    588.230   1057.072    936.189    588.230    588.230
 65.470   1339.135   1328.946     10.189    588.246   1007.241    909.846    588.246    588.246
 65.570   1260.000   1233.158     26.842    588.262    952.332    869.020    588.262    588.262
 65.670   1145.000   1132.378     12.622    588.276    899.340    821.279    588.276    588.276
 65.770   1054.964   1037.469     17.495    588.289    852.497    773.250    588.289    588.289
 65.870    953.000    954.544     -1.544    588.301    813.244    729.607    588.301    588.301
 65.970    930.799    885.646     45.153    588.312    780.987    692.986    588.312    588.312
 66.070    790.000    830.286    -40.286    588.322    754.355    664.272    588.322    588.322
 66.170    764.279    786.953    -22.674    588.331    732.248    643.053    588.331    588.331
 66.270    720.000    753.879    -33.879    588.339    714.082    628.151    588.339    588.339
 66.370    667.000    729.264    -62.264    588.346    699.524    618.096    588.346    588.346
 66.470    644.000    711.417    -67.417    588.352    688.291    611.483    588.352    588.352
 66.570    689.000    698.911     -9.911    588.357    680.105    607.164    588.357    588.357
 66.670    670.000    690.649    -20.649    588.360    674.709    604.299    588.360    588.360
 66.770    704.142    685.855     18.287    588.363    671.883    602.332    588.363    588.363
 66.870    716.778    684.028     32.751    588.364    671.468    600.921    588.364    588.364
 66.970    662.000    684.940    -22.940    588.364    673.433    599.868    588.364    588.364
 67.070    631.000    688.705    -57.705    588.363    677.994    599.070    588.363    588.363
 67.170    701.000    695.910      5.090    588.361    685.786    598.482    588.361    588.361
 67.270    695.305    707.838    -12.533    588.358    698.095    598.096    588.358    588.358
 67.370    771.013    726.723     44.291    588.354    717.129    597.940    588.354    588.354
 67.470    799.588    756.014     43.574    588.349    746.279    598.073    588.349    588.349
 67.570    776.000    800.524    -24.524    588.342    790.265    598.586    588.342    588.342
 67.670    827.000    866.292    -39.292    588.335    855.007    599.599    588.335    588.335
 67.770    919.000    959.977    -40.977    588.326    947.028    601.246    588.326    588.326
 67.870   1103.000   1087.655     15.345    588.316   1072.286    603.651    588.316    588.316
 67.970   1305.205   1253.061     52.145    588.305   1234.438    606.889    588.305    588.305
 68.070   1487.000   1455.491     31.509    588.293   1432.807    610.940    588.293    588.293
 68.170   1612.953   1687.777    -74.824    588.279   1660.381    615.648    588.279    588.279
 68.270   1998.555   1934.667     63.888    588.265   1902.239    620.688    588.265    588.265
 68.370   2175.346   2171.997      3.350    588.249   2134.734    625.542    588.249    588.249
 68.470   2359.000   2367.701     -8.701    588.232   2326.485    629.527    588.232    588.232
 68.570   2503.534   2487.186     16.347    588.214   2443.631    631.907    588.214    588.214
 68.670   2488.000   2504.800    -16.800    588.195   2461.055    632.133    588.195    588.195
 68.770   2324.937   2416.293    -91.355    588.175   2374.586    630.115    588.175    588.175
 68.870   2158.680   2241.330    -82.650    588.153   2203.464    626.268    588.153    588.153
 68.970   2023.000   2013.258      9.742    588.130   1980.331    621.301    588.130    588.130
 69.070   1768.514   1766.005      2.509    588.106   1738.400    615.933    588.106    588.106
 69.170   1563.928   1526.596     37.332    588.081   1504.127    610.739    588.081    588.081
 69.270   1365.000   1313.118     51.882    588.054   1295.224    606.103    588.054    588.054
 69.370   1098.585   1135.184    -36.598    588.027   1121.104    602.225    588.027    588.027
 69.470   1016.000    995.354     20.646    587.998    984.279    599.161    587.998    587.998
 69.570    927.000    891.076     35.924    587.968    882.245    596.861    587.968    587.968
 69.670    895.000    816.776     78.224    587.936    809.552    595.204    587.936    587.936
 69.770    726.279    765.783    -39.504    587.904    759.669    594.046    587.904    587.904
 69.870    814.000    731.712     82.288    587.870    726.348    593.253    587.870    587.870
 69.970    749.311    709.260     40.051    587.835    704.397    592.710    587.835    587.835
 70.070    649.723    694.451    -44.729    587.799    689.924    592.334    587.799    587.799
 70.170    677.890    684.556     -6.665    587.761    680.256    592.066    587.761    587.761
 70.270    733.000    677.825     55.175    587.723    673.682    591.869    587.723    587.723
 70.370    674.000    673.211      0.789    587.683    669.173    591.720    587.683    587.683
 70.470    679.000    670.117      8.883    587.641    666.148    591.609    587.641    587.641
 70.570    633.960    668.232    -34.272    587.599    664.301    591.527    587.599    587.599
 70.670    689.000    667.425     21.575    587.555    663.503    591.473    587.555    587.555
 70.770    686.000    667.702     18.298    587.510    663.758    591.449    587.510    587.510
 70.870    653.000    669.204    -16.204    587.464    665.203    591.458    587.464    587.464
 70.970    705.158    672.254     32.904    587.416    668.151    591.510    587.416    587.416
 71.070    707.084    677.438     29.646    587.368    673.171    591.623    587.368    587.368
 71.170    720.000    685.730     34.270    587.318    681.207    591.824    587.318    587.318
 71.270    755.000    698.633     56.367    587.266    693.720    592.158    587.266    587.266
 71.370    685.697    718.321    -32.624    587.214    712.820    592.685    587.214    587.214
 71.470    786.000    747.709     38.291    587.160    741.336    593.491    587.160    587.160
 71.570    794.000    790.378      3.622    587.105    782.748    594.678    587.105    587.105
 71.670    851.000    850.270      0.730    587.048    840.883    596.358    587.048    587.048
 71.770    924.000    931.096     -7.096    586.990    919.344    598.638    586.990    586.990
 71.870    983.000   1035.457    -52.457    586.931   1020.658    601.594    586.931    586.931
 71.970   1179.000   1163.788     15.212    586.871   1145.247    605.239    586.871    586.871
 72.070   1370.000   1313.286     56.714    586.809   1290.389    609.494    586.809    586.809
 72.170   1461.000   1476.984    -15.984    586.747   1449.319    614.163    586.747    586.747
 72.270   1632.000   1643.120    -11.120    586.682   1610.613    618.910    586.682    586.682
 72.370   1733.000   1795.045    -62.045    586.617   1758.098    623.265    586.617    586.617
 72.470   1934.000   1912.503     21.497    586.550   1872.102    626.652    586.550    586.550
 72.570   1990.646   1975.718     14.927    586.482   1933.410    628.508    586.482    586.482
 72.670   1937.093   1972.263    -35.170    586.412   1929.944    628.484    586.412    586.412
 72.770   1891.500   1902.814    -11.313    586.342   1862.353    626.598    586.342    586.342
 72.870   1746.724   1780.789    -34.065    586.270   1743.664    623.235    586.270    586.270
 72.970   1681.298   1626.235     55.062    586.196   1593.349    618.964    586.196    586.196
 73.070   1454.494   1459.153     -4.659    586.122   1430.843    614.347    586.122    586.122
 73.170   1338.568   1295.730     42.838    586.046   1271.882    609.835    586.046    586.046
 73.270   1118.000   1147.232    -29.232    585.968   1127.430    605.732    585.968    585.968
 73.370    996.552   1020.169    -23.617    585.890   1003.829    602.204    585.890    585.890
 73.470    877.000    916.969    -39.969    585.810    903.456    599.305    585.810    585.810
 73.570    870.000    836.944     33.056    585.729    825.646    597.014    585.729    585.729
 73.670    732.000    777.380    -45.380    585.646    767.749    595.266    585.646    585.646
 73.770    700.000    734.571    -34.571    585.562    726.141    593.983    585.562    585.562
 73.870    695.296    704.664     -9.367    585.477    697.044    593.089    585.477    585.477
 73.970    661.000    684.212    -23.212    585.390    677.078    592.518    585.390    585.390
 74.070    682.000    670.456     11.544    585.303    663.528    592.226    585.303    585.303
 74.170    652.104    661.376     -9.272    585.213    654.397    592.189    585.213    585.213
 74.270    665.000    655.607      9.393    585.123    648.327    592.402    585.123    585.123
 74.370    608.732    652.281    -43.548    585.031    644.447    592.866    585.031    585.031
 74.470    668.149    650.862     17.287    584.938    642.219    593.586    584.938    584.938
 74.570    656.943    651.000      5.943    584.843    641.295    594.558    584.843    584.843
 74.670    669.000    652.413     16.587    584.748    641.417    595.758    584.748    584.748
 74.770    669.206    654.802     14.404    584.650    642.335    597.138    584.650    584.650
 74.870    639.000    657.801    -18.801    584.552    643.762    598.617    584.552    584.552
 74.970    655.767    660.942     -5.175    584.452    645.344    600.081    584.452    584.452
 75.070    702.000    663.661     38.339    584.351    646.662    601.386    584.351    584.351
 75.170    668.000    665.361      2.639    584.248    647.272    602.377    584.248    584.248
 75.270    679.173    665.574     13.598    584.145    646.824    602.937    584.145    584.145
 75.370    652.356    664.166    -11.810    584.039    645.202    603.044    584.039    584.039
 75.470    745.000    661.436     83.564    583.933    642.599    602.807    583.933    583.933
 75.570    685.000    658.026     26.974    583.825    639.445    602.438    583.825    583.825
 75.670    612.897    654.746    -41.848    583.716    636.275    602.213    583.716    583.716
 75.770    680.142    652.446     27.696    583.605    633.633    602.436    583.605    583.605
 75.870    656.000    651.985      4.015    583.493    632.048    603.441    583.493    583.493
 75.970    645.000    654.232     -9.232    583.380    632.025    605.590    583.380    583.380
 76.070    663.000    660.066      2.934    583.266    634.055    609.270    583.266    583.266
 76.170    680.000    670.336      9.664    583.150    638.595    614.875    583.150    583.150
 76.270    689.000    685.794      3.206    583.033    646.034    622.766    583.033    583.033
 76.370    695.868    706.966    -11.098    582.914    656.632    633.208    582.914    582.914
 76.470    710.000    734.000    -24.000    582.794    670.448    646.293    582.794    582.794
 76.570    758.000    766.497     -8.497    582.673    687.248    661.855    582.673    582.673
 76.670    841.000    803.336     37.664    582.551    706.417    679.387    582.551    582.551
 76.770    868.000    842.551     25.449    582.427    726.896    697.986    582.427    582.427
 76.870    881.000    881.258     -0.258    582.302    747.139    716.313    582.302    582.302
 76.970    914.000    915.694     -1.694    582.175    765.141    732.612    582.175    582.175
 77.070    906.000    941.556    -35.556    582.047    778.610    744.873    582.047    582.047
 77.170    946.428    954.862     -8.434    581.918    785.427    751.236    581.918    581.918
 77.270    948.000    953.237     -5.237    581.788    784.327    750.587    581.788    581.788
 77.370    915.836    936.896    -21.060    581.656    775.422    743.031    581.656    581.656
 77.470    865.500    908.538    -43.038    581.523    760.143    729.833    581.523    581.523
 77.570    867.977    872.247     -4.270    581.388    740.657    712.908    581.388    581.388
 77.670    860.000    832.240     27.760    581.252    719.203    694.233    581.252    581.252
 77.770    820.494    792.104     28.390    581.115    697.683    675.492    581.115    581.115
 77.870    768.000    754.514     13.486    580.977    677.519    657.938    580.977    580.977
 77.970    670.411    721.211    -50.800    580.837    659.634    642.388    580.837    580.837
 78.070    687.000    693.092     -6.092    580.696    644.505    629.265    580.696    580.696
 78.170    669.047    670.353     -1.306    580.554    632.233    618.660    580.554    580.554
 78.270    623.686    652.668    -28.982    580.410    622.646    610.422    580.410    580.410
 78.370    599.582    639.385    -39.804    580.265    615.396    604.246    580.265    580.265
 78.470    663.798    629.704     34.094    580.119    610.058    599.757    580.119    580.119
 78.570    585.000    622.817    -37.817    579.971    606.203    596.579    579.971    579.971
 78.670    568.875    618.005    -49.130    579.822    603.446    594.375    579.822    579.822
 78.770    584.000    614.679    -30.679    579.672    601.476    592.870    579.672    579.672
 78.870    595.000    612.393    -17.393    579.520    600.053    591.856    579.520    579.520
 78.970    573.000    610.834    -37.834    579.368    599.010    591.187    579.368    579.368
 79.070    619.000    609.791      9.209    579.213    598.234    590.766    579.213    579.213
 79.170    566.748    609.136    -42.388    579.058    597.657    590.533    579.058    579.058
 79.270    599.000    608.800     -9.800    578.901    597.239    590.459    578.901    578.901
 79.370    560.847    608.758    -47.911    578.743    596.964    590.533    578.743    578.743
 79.470    580.103    609.018    -28.915    578.584    596.832    590.766    578.584    578.584
 79.570    596.581    609.623    -13.042    578.423    596.858    591.184    578.423    578.423
 79.670    608.000    610.651     -2.651    578.261    597.066    591.841    578.261    578.261
 79.770    624.389    612.223     12.166    578.098    597.491    592.825    578.098    578.098
 79.870    620.047    614.526      5.520    577.934    598.183    594.271    577.934    577.934
 79.970    638.000    617.831     20.169    577.768    599.204    596.388    577.768    577.768
 80.070    665.625    622.524     43.100    577.601    600.634    599.482    577.601    577.601
 80.170    584.000    629.140    -45.140    577.433    602.576    603.985    577.433    577.433
 80.270    657.000    638.390     18.610    577.263    605.163    610.476    577.263    577.263
 80.370    622.835    651.172    -28.337    577.093    608.557    619.688    577.093    577.093
 80.470    683.000    668.550     14.450    576.921    612.955    632.490    576.921    576.921
 80.570    695.000    691.685      3.315    576.747    618.582    649.819    576.747    576.747
 80.670    725.000    721.716      3.284    576.573    625.675    672.575    576.573    576.573
 80.770    762.000    759.598      2.402    576.397    634.480    701.467    576.397    576.397
 80.870    784.000    805.894    -21.894    576.220    645.228    736.830    576.220    576.220
 80.970    852.000    860.559     -8.559    576.042    658.106    778.431    576.042    576.042
 81.070    957.000    922.688     34.312    575.862    673.199    825.280    575.862    575.862
 81.170   1035.000    990.305     44.695    575.681    690.408    875.503    575.681    575.681
 81.270   1097.033   1060.245     36.788    575.499    709.376    926.291    575.499    575.499
 81.370   1191.000   1128.211     62.789    575.316    729.457    973.996    575.316    575.316
 81.470   1293.000   1189.130    103.870    575.131    749.725   1014.470    575.131    575.131
 81.570   1174.855   1237.882    -63.027    574.946    769.076   1043.697    574.946    574.946
 81.670   1245.929   1270.446    -24.517    574.759    786.493   1058.675    574.759    574.759
 81.770   1304.848   1284.426     20.423    574.571    800.996   1057.983    574.571    574.571
 81.870   1349.866   1279.465     70.401    574.381    811.867   1041.981    574.381    574.381
 81.970   1351.000   1257.001     93.999    574.191    818.673   1012.539    574.191    574.191
 82.070   1256.000   1219.902     36.098    573.999    821.278    972.659    573.999    573.999
 82.170   1227.000   1171.982     55.018    573.806    819.795    926.043    573.806    573.806
 82.270   1125.000   1117.337      7.663    573.612    814.465    876.543    573.612    573.612
 82.370   1045.640   1059.716    -14.076    573.417    805.581    827.618    573.417    573.417
 82.470   1049.731   1002.210     47.521    573.220    793.546    781.954    573.220    573.220
 82.570    981.000    947.209     33.791    573.023    778.970    741.332    573.023    573.023
 82.670    883.000    896.422    -13.422    572.824    762.651    706.662    572.824    572.824
 82.770    847.000    850.851     -3.851    572.624    745.416    678.122    572.624    572.624
 82.870    759.000    810.820    -51.820    572.423    727.955    655.347    572.423    572.423
 82.970    771.000    776.137     -5.137    572.220    710.780    637.632    572.220    572.220
 83.070    704.562    746.356    -41.794    572.017    694.292    624.130    572.017    572.017
 83.170    704.000    721.008    -17.008    571.812    678.864    613.998    571.812    571.812
 83.270    639.000    699.720    -60.720    571.607    664.866    606.494    571.607    571.607
 83.370    664.661    682.219    -17.558    571.400    652.632    601.014    571.400    571.400
 83.470    605.000    668.304    -63.304    571.192    642.416    597.099    571.192    571.192
 83.570    620.291    657.802    -37.511    570.982    634.381    594.415    570.982    570.982
 83.670    632.000    650.546    -18.546    570.772    628.587    592.735    570.772    570.772
 83.770    684.519    646.340     38.178    570.561    625.001    591.895    570.561    570.561
 83.870    616.000    644.935    -28.935    570.348    623.494    591.775    570.348    570.348
 83.970    606.000    645.994    -39.994    570.135    623.845    592.261    570.135    570.135
 84.070    612.713    649.079    -36.366    569.920    625.736    593.233    569.920    569.920
 84.170    638.000    653.641    -15.641    569.704    628.761    594.546    569.704    569.704
 84.270    629.000    659.020    -30.020    569.487    632.435    596.027    569.487    569.487
 84.370    639.000    664.461    -25.461    569.269    636.205    597.474    569.269    569.269
 84.470    657.000    669.158    -12.158    569.050    639.486    598.667    569.050    569.050
 84.570    627.354    672.320    -44.966    568.830    641.705    599.388    568.830    568.830
 84.670    682.000    673.304      8.696    568.609    642.397    599.458    568.609    568.609
 84.770    617.000    671.760    -54.760    568.387    641.308    598.784    568.387    568.387
 84.870    707.898    667.726     40.172    568.163    638.456    597.382    568.163    568.163
 84.970    605.000    661.586    -56.586    567.939    634.106    595.373    567.939    567.939
 85.070    623.000    653.943    -30.943    567.714    628.674    592.942    567.714    567.714
 85.170    635.000    645.468    -10.468    567.487    622.625    590.296    567.487    567.487
 85.270    591.000    636.795    -45.795    567.260    616.391    587.634    567.260    567.260
 85.370    618.000    628.462    -10.462    567.032    610.335    585.134    567.032    567.032
 85.470    597.000    620.893    -23.893    566.802    604.733    582.942    566.802    566.802
 85.570    644.964    614.391     30.574    566.572    599.767    581.178    566.572    566.572
 85.670    571.705    609.148    -37.443    566.340    595.539    579.934    566.340    566.340
 85.770    573.000    605.261    -32.261    566.108    592.076    579.279    566.108    566.108
 85.870    664.000    602.751     61.249    565.874    589.349    579.262    565.874    565.874
 85.970    649.185    601.582     47.603    565.640    587.297    579.910    565.640    565.640
 86.070    624.000    601.684     22.316    565.405    585.840    581.233    565.405    565.405
 86.170    586.236    602.962    -16.726    565.168    584.898    583.215    565.168    565.168
 86.270    613.000    605.305      7.695    564.931    584.406    585.810    564.931    564.931
 86.370    628.000    608.589     19.411    564.693    584.325    588.934    564.693    564.693
 86.470    563.416    612.675    -49.259    564.454    584.642    592.460    564.454    564.454
 86.570    618.000    617.407      0.593    564.214    585.378    596.212    564.214    564.214
 86.670    660.964    622.616     38.348    563.973    586.590    599.963    563.973    563.973
 86.770    625.000    628.115     -3.115    563.731    588.365    603.440    563.731    563.731
 86.870    620.000    633.713    -13.713    563.488    590.817    606.339    563.488    563.488
 86.970    633.000    639.239     -6.239    563.244    594.077    608.356    563.244    563.244
 87.070    666.000    644.584     21.416    563.000    598.285    609.243    563.000    563.000
 87.170    610.504    649.746    -39.243    562.754    603.566    608.872    562.754    562.754
 87.270    643.980    654.846    -10.865    562.508    610.013    607.270    562.508    562.508
 87.370    697.000    660.084     36.916    562.261    617.663    604.604    562.261    562.261
 87.470    692.000    665.664     26.336    562.013    626.464    601.126    562.013    562.013
 87.570    683.000    671.706     11.294    561.764    636.255    597.118    561.764    561.764
 87.670    687.041    678.186      8.855    561.514    646.749    592.844    561.514    561.514
 87.770    722.000    684.902     37.098    561.264    657.516    588.533    561.264    561.264
 87.870    670.000    691.467    -21.467    561.012    667.984    584.370    561.012    561.012
 87.970    709.960    697.323     12.637    560.760    677.455    580.495    560.760    560.760
 88.070    653.000    701.796    -48.796    560.507    685.163    577.003    560.507    560.507
 88.170    677.000    704.222    -27.222    560.253    690.395    573.943    560.253    560.253
 88.270    721.000    704.110     16.890    559.999    692.650    571.325    559.999    559.999
 88.370    735.209    701.307     33.902    559.743    691.792    569.132    559.743    559.743
 88.470    715.000    696.047     18.953    559.487    688.094    567.325    559.487    559.487
 88.570    734.000    688.874     45.126    559.231    682.147    565.855    559.231    559.231
 88.670    703.000    680.504     22.496    558.973    674.719    564.672    558.973    558.973
 88.770    666.000    671.692     -5.692    558.715    666.609    563.726    558.715    558.715
 88.870    644.730    663.154    -18.424    558.456    658.578    562.976    558.456    558.456
 88.970    684.000    655.524     28.476    558.196    651.294    562.384    558.196    558.196
 89.070    634.000    649.316    -15.316    557.935    645.301    561.922    557.935    557.935
 89.170    619.000    644.894    -25.894    557.674    640.985    561.566    557.674    557.674
 89.270    606.000    642.450    -36.450    557.412    638.561    561.296    557.412    557.412
 89.370    611.000    642.002    -31.002    557.150    638.060    561.097    557.150    557.150
 89.470    603.000    643.393    -40.393    556.886    639.343    560.951    556.886    556.886
 89.570    618.000    646.309    -28.309    556.623    642.112    560.843    556.623    556.623
 89.670    654.368    650.298      4.070    556.358    645.932    560.756    556.358    556.358
 89.770    642.000    654.796    -12.796    556.093    650.259    560.670    556.093    556.093
 89.870    653.588    659.159     -5.571    555.827    654.467    560.566    555.827    555.827
 89.970    658.000    662.707     -4.707    555.561    657.899    560.422    555.561    555.561
 90.070    697.000    664.810     32.190    555.294    659.943    560.219    555.294    555.294
 90.170    688.000    664.989     23.011    555.026    660.133    559.942    555.026    555.026
 90.270    681.000    663.016     17.984    554.758    658.249    559.587    554.758    554.758
 90.370    653.000    658.962     -5.962    554.489    654.357    559.156    554.489    554.489
 90.470    635.718    653.148    -17.430    554.220    648.765    558.662    554.220    554.220
 90.570    628.907    646.046    -17.139    553.950    641.927    558.123    553.950    553.950
 90.670    644.000    638.169      5.831    553.679    634.341    557.557    553.679    553.679
 90.770    624.269    630.003     -5.734    553.409    626.474    556.982    553.409    553.409
 90.870    577.000    621.964    -44.964    553.137    618.728    556.411    553.137    553.137
 90.970    637.831    614.383     23.449    552.865    611.422    555.858    552.865    552.865
 91.070    606.000    607.499     -1.499    552.593    604.789    555.329    552.593    552.593
 91.170    660.000    601.468     58.532    552.320    598.977    554.831    552.320    552.320
 91.270    620.383    596.365     24.017    552.046    594.061    554.367    552.046    552.046
 91.370    588.880    592.201     -3.322    551.773    590.050    553.936    551.773    551.773
 91.470    591.000    588.939      2.061    551.498    586.908    553.537    551.498    551.498
 91.570    629.000    586.510     42.490    551.223    584.570    553.168    551.223    551.223
 91.670    552.000    584.836    -32.836    550.948    582.960    552.827    550.948    550.948
 91.770    606.000    583.842     22.158    550.673    582.005    552.510    550.673    550.673
 91.870    552.000    583.469    -31.469    550.397    581.648    552.216    550.397    550.397
 91.970    577.096    583.686     -6.590    550.120    581.859    551.943    550.120    550.120
 92.070    592.000    584.493      7.507    549.844    582.640    551.692    549.844    549.844
 92.170    596.000    585.930     10.070    549.567    584.025    551.465    549.567    549.567
 92.270    629.038    588.071     40.967    549.289    586.088    551.263    549.289    549.289
 92.370    562.434    591.023    -28.590    549.011    588.933    551.091    549.011    549.011
 92.470    623.000    594.923     28.077    548.733    592.691    550.952    548.733    548.733
 92.570    617.778    599.928     17.851    548.455    597.513    550.853    548.455    548.455
 92.670    608.000    606.200      1.800    548.176    603.558    550.797    548.176    548.176
 92.770    631.306    613.899     17.406    547.897    610.981    550.789    547.897    547.897
 92.870    600.000    623.161    -23.161    547.618    619.915    550.832    547.618    547.618
 92.970    605.000    634.083    -29.083    547.338    630.456    550.927    547.338    547.338
 93.070    657.000    646.705     10.295    547.059    642.646    551.073    547.059    547.059
 93.170    622.000    660.984    -38.984    546.779    656.445    551.266    546.779    546.779
 93.270    676.000    676.860     -0.860    546.499    671.797    551.502    546.499    546.499
 93.370    667.000    694.114    -27.114    546.218    688.495    551.771    546.218    546.218
 93.470    726.427    712.453     13.974    545.938    706.252    552.064    545.938    545.938
 93.570    694.000    731.493    -37.493    545.657    724.694    552.374    545.657    545.657
 93.670    731.000    750.777    -19.777    545.376    743.371    552.694    545.376    545.376
 93.770    757.000    769.828    -12.828    545.095    761.807    553.024    545.095    545.095
 93.870    777.000    788.233    -11.233    544.813    779.577    553.373    544.813    544.813
 93.970    779.000    805.746    -26.746    544.532    796.411    553.767    544.532    544.532
 94.070    818.120    822.355     -4.235    544.251    812.257    554.248    544.251    544.251
 94.170    784.888    838.280    -53.392    543.969    827.273    554.875    543.969    543.969
 94.270    802.479    853.881    -51.402    543.688    841.748    555.719    543.688    543.688
 94.370    874.117    869.513      4.604    543.406    855.966    556.852    543.406    543.406
 94.470    850.032    885.417    -35.385    543.124    870.100    558.340    543.124    543.124
 94.570    879.000    901.657    -22.657    542.842    884.165    560.233    542.842    542.842
 94.670    917.000    918.138     -1.138    542.561    898.043    562.556    542.561    542.561
 94.770    958.638    934.684     23.954    542.279    911.563    565.301    542.279    542.279
 94.870    953.000    951.096      1.904    541.997    924.571    568.424    541.997    541.997
 94.970    981.244    967.154     14.090    541.715    936.935    571.839    541.715    541.715
 95.070    977.000    982.549     -5.549    541.434    948.470    575.419    541.434    541.434
 95.170   1009.793    996.766     13.027    541.152    958.832    578.996    541.152    541.152
 95.270   1008.000   1009.017     -1.017    540.870    967.434    582.368    540.870    540.870
 95.370   1080.580   1018.252     62.328    540.589    973.450    585.311    540.589    540.589
 95.470   1010.000   1023.262    -13.262    540.307    975.901    587.596    540.307    540.307
 95.570   1067.000   1022.879     44.121    540.026    973.825    589.016    540.026    540.026
 95.670    969.078   1016.252    -47.175    539.745    966.525    589.419    539.745    539.745
 95.770    993.000   1003.113    -10.113    539.464    953.791    588.742    539.464    539.464
 95.870   1029.000    983.904     45.096    539.183    936.026    587.027    539.183    539.183
 95.970    995.000    959.725     35.275    538.902    914.196    584.407    538.902    538.902
 96.070    936.000    932.147      3.853    538.622    889.673    581.079    538.622    538.622
 96.170    911.000    902.977      8.023    538.342    864.037    577.270    538.342    538.342
 96.270    962.000    874.072     87.928    538.062    838.918    573.208    538.062    538.062
 96.370    857.000    847.226      9.774    537.782    815.899    569.102    537.782    537.782
 96.470    790.135    824.093    -33.959    537.502    796.457    565.132    537.502    537.502
 96.570    872.000    806.160     65.840    537.223    781.932    561.441    537.223    537.223
 96.670    848.000    794.717     53.283    536.944    773.511    558.136    536.944    536.944
 96.770    790.000    790.843     -0.843    536.666    772.206    555.281    536.666    536.666
 96.870    788.000    795.369     -7.369    536.387    778.819    552.908    536.387    536.387
 96.970    852.000    809.002     42.998    536.109    794.050    551.021    536.109    536.109
 97.070    875.000    832.161     42.839    535.832    818.341    549.601    535.832    535.832
 97.170    920.589    864.975     55.614    535.555    851.854    548.613    535.555    535.555
 97.270    942.000    907.306     34.694    535.278    894.496    548.013    535.278    535.278
 97.370    933.913    958.687    -24.774    535.001    945.846    547.753    535.001    535.001
 97.470   1081.000   1018.279     62.721    534.725   1005.120    547.783    534.725    534.725
 97.570   1135.605   1084.820     50.785    534.450   1071.107    548.049    534.450    534.450
 97.670   1239.000   1156.562     82.438    534.175   1142.116    548.496    534.175    534.175
 97.770   1192.000   1231.255    -39.255    533.900   1215.959    549.062    533.900    533.900
 97.870   1315.000   1306.138      8.862    533.626   1289.940    549.684    533.626    533.626
 97.970   1293.000   1377.963    -84.963    533.353   1360.882    550.292    533.353    533.353
 98.070   1431.911   1443.101    -11.190    533.080   1425.228    550.813    533.080    533.080
 98.170   1544.967   1497.757     47.210    532.807   1479.258    551.172    532.807    532.807
 98.270   1610.084   1538.358     71.726    532.535   1519.469    551.302    532.535    532.535
 98.370   1551.585   1562.071    -10.487    532.264   1543.080    551.150    532.264    532.264
 98.470   1543.000   1567.328    -24.328    531.993   1548.548    550.686    531.993    531.993
 98.570   1525.000   1554.138    -29.138    531.723   1535.883    549.912    531.723    531.723
 98.670   1474.013   1524.064    -50.051    531.454   1506.617    548.855    531.454    531.454
 98.770   1518.000   1479.876     38.124    531.185   1463.466    547.568    531.185    531.185
 98.870   1492.642   1425.059     67.583    530.917   1409.853    546.111    530.917    530.917
 98.970   1302.000   1363.358    -61.358    530.650   1349.457    544.551    530.650    530.650
 99.070   1279.000   1298.448    -19.448    530.383   1285.889    542.951    530.383    530.383
 99.170   1226.000   1233.719     -7.719    530.117   1222.485    541.366    530.117    530.117
 99.270   1157.000   1172.171    -15.171    529.852   1162.196    539.843    529.852    529.852
 99.370   1139.000   1116.366     22.634    529.588   1107.546    538.423    529.588    529.588
 99.470   1067.000   1068.429     -1.429    529.324   1060.632    537.134    529.324    529.324
 99.570   1018.579   1030.075    -11.496    529.062   1023.148    535.996    529.062    529.062
 99.670    983.000   1002.650    -19.650    528.800    996.429    535.022    528.800    528.800
 99.770   1016.434    987.158     29.276    528.539    981.474    534.217    528.539    528.539
 99.870    983.000    984.286     -1.286    528.279    978.972    533.579    528.279    528.279
 99.970   1010.566    994.415     16.151    528.019    989.314    533.100    528.019    528.019
100.070   1017.000   1017.632     -0.632    527.761   1012.596    532.769    527.761    527.761
100.170   1049.000   1053.733     -4.733    527.504   1048.632    532.572    527.504    527.504
100.270   1119.000   1102.223     16.777    527.247   1096.943    532.489    527.247    527.247
100.370   1221.442   1162.304     59.138    526.992   1156.753    532.501    526.992    526.992
100.470   1254.295   1232.840     21.455    526.737   1226.948    532.587    526.737    526.737
100.570   1306.000   1312.384     -6.384    526.484   1306.103    532.724    526.484    526.484
100.670   1437.456   1399.081     38.375    526.231   1392.388    532.887    526.231    526.231
100.770   1502.000   1490.664     11.336    525.980   1483.563    533.051    525.980    525.980
100.870   1590.908   1584.490      6.418    525.730   1577.007    533.192    525.730    525.730
100.970   1747.083   1677.620     69.463    525.481   1669.806    533.287    525.481    525.481
101.070   1839.000   1766.993     72.007    525.233   1758.920    533.315    525.233    525.233
101.170   1931.000   1849.685     81.315    524.986   1841.437    533.261    524.986    524.986
101.270   1886.777   1923.160    -36.384    524.740   1914.829    533.118    524.740    524.740
101.370   2065.000   1985.437     79.563    524.496   1977.108    532.890    524.496    524.496
101.470   1969.113   2035.064    -65.951    524.252   2026.813    532.588    524.252    524.252
101.570   2012.168   2070.959    -58.792    524.010   2062.841    532.231    524.010    524.010
101.670   2084.000   2092.212     -8.212    523.769   2084.260    531.840    523.769    523.769
101.770   2022.594   2098.007    -75.413    523.530   2090.230    531.439    523.530    523.530
101.870   2133.730   2087.756     45.973    523.291   2080.143    531.049    523.291    523.291
101.970   2132.000   2061.417     70.583    523.054   2053.938    530.687    523.054    523.054
102.070   2046.000   2019.853     26.147    522.819   2012.462    530.369    522.819    522.819
102.170   1942.000   1965.028    -23.028    522.585   1957.670    530.104    522.585    522.585
102.270   1924.156   1899.914     24.242    522.352   1892.530    529.897    522.352    522.352
102.370   1775.000   1828.117    -53.117    522.120   1820.648    529.747    522.120    522.120
102.470   1720.030   1753.389    -33.359    521.890   1745.781    529.649    521.890    521.890
102.570   1621.000   1679.178    -58.178    521.662   1671.392    529.590    521.662    521.662
102.670   1607.000   1608.336     -1.336    521.434   1600.345    529.557    521.434    521.434
102.770   1613.418   1542.962     70.456    521.209   1534.761    529.532    521.209    521.209
102.870   1410.000   1484.363    -74.363    520.985   1475.962    529.497    520.985    520.985
102.970   1392.000   1433.070    -41.070    520.762   1424.498    529.436    520.762    520.762
103.070   1425.095   1388.912     36.184    520.541   1380.211    529.335    520.541    520.541
103.170   1315.248   1351.062    -35.814    520.322   1342.286    529.184    520.322    520.322
103.270   1288.266   1318.169    -29.903    520.104   1309.381    528.973    520.104    520.104
103.370   1237.000   1288.512    -51.512    519.888   1279.784    528.694    519.888    519.888
103.470   1224.000   1260.206    -36.206    519.673   1251.616    528.340    519.673    519.673
103.570   1266.000   1231.464     34.536    519.460   1223.092    527.908    519.460    519.460
103.670   1140.000   1200.845    -60.845    519.249   1192.773    527.397    519.249    519.249
103.770   1119.000   1167.447    -48.447    519.040   1159.750    526.813    519.040    519.040
103.870   1078.000   1130.971    -52.971    518.832   1123.713    526.165    518.832    518.832
103.970   1070.000   1091.656    -21.656    518.626   1084.888    525.469    518.626    518.626
104.070    974.000   1050.133    -76.133    518.422   1043.887    524.740    518.422    518.422
104.170    977.543   1007.252    -29.709    518.220   1001.545    523.996    518.220    518.220
104.270    958.000    963.940     -5.940    518.019    958.773    523.253    518.019    518.019
104.370    937.000    921.104     15.896    517.821    916.463    522.523    517.821    517.821
104.470    871.000    879.570     -8.570    517.624    875.433    521.818    517.624    517.624
104.570    872.000    840.048     31.952    517.430    836.383    521.146    517.430    517.430
104.670    783.000    803.106    -20.106    517.237    799.877    520.511    517.237    517.237
104.770    731.415    769.171    -37.756    517.046    766.340    519.917    517.046    517.046
104.870    773.000    738.563     34.437    516.857    736.081    519.374    516.857    516.857
104.970    752.700    711.400     41.300    516.670    709.223    518.877    516.670    516.670
105.070    658.357    687.690    -29.333    516.486    685.776    518.424    516.486    516.486
105.170    628.000    667.333    -39.333    516.303    665.642    518.015    516.303    516.303
105.270    654.000    650.144      3.856    516.122    648.638    517.644    516.122    516.122
105.370    673.000    635.877     37.123    515.944    634.524    517.310    515.944    515.944
105.470    611.943    624.253    -12.310    515.768    623.022    517.008    515.768    515.768
105.570    630.491    614.981     15.510    515.594    613.846    516.735    515.594    515.594
105.670    649.000    607.777     41.223    515.422    606.715    516.487    515.422    515.422
105.770    645.000    602.383     42.617    515.252    601.375    516.262    515.252    515.252
105.870    630.739    598.573     32.166    515.084    597.600    516.056    515.084    515.084
105.970    618.000    596.159     21.841    514.919    595.207    515.869    514.919    514.919
106.070    593.000    594.999     -1.999    514.756    594.053    515.697    514.756    514.756
106.170    625.000    594.989     30.011    514.596    594.036    515.541    514.596    514.596
106.270    635.000    596.061     38.939    514.438    595.089    515.400    514.438    514.438
106.370    644.583    598.181     46.402    514.282    597.178    515.272    514.282    514.282
106.470    632.000    601.337     30.663    514.128    600.291    515.160    514.128    514.128
106.570    626.000    605.537     20.463    513.978    604.435    515.062    513.978    513.978
106.670    670.000    610.796     59.204    513.829    609.626    514.979    513.829    513.829
106.770    584.724    617.135    -32.410    513.683    615.883    514.911    513.683    513.683
106.870    631.000    624.563      6.437    513.540    623.217    514.859    513.540    513.540
106.970    660.519    633.077     27.443    513.399    631.623    514.822    513.399    513.399
107.070    660.000    642.645     17.355    513.260    641.071    514.799    513.260    513.260
107.170    690.000    653.202     36.798    513.124    651.497    514.791    513.124    513.124
107.270    678.000    664.638     13.362    512.991    662.792    514.795    512.991    512.991
107.370    657.000    676.797    -19.797    512.861    674.802    514.810    512.861    512.861
107.470    688.000    689.471     -1.471    512.733    687.322    514.832    512.733    512.733
107.570    692.000    702.403    -10.403    512.608    700.100    514.858    512.608    512.608
107.670    776.000    715.289     60.711    512.486    712.834    514.884    512.486    512.486
107.770    747.000    727.785     19.215    512.366    725.188    514.905    512.366    512.366
107.870    776.000    739.521     36.479    512.249    736.794    514.917    512.249    512.249
107.970    724.000    750.117    -26.117    512.135    747.279    514.913    512.135    512.135
108.070    759.000    759.220     -0.220    512.024    756.296    514.888    512.024    512.024
108.170    712.000    766.543    -54.543    511.916    763.561    514.839    511.916    511.916
108.270    754.000    771.908    -17.908    511.811    768.900    514.762    511.811    511.811
108.370    756.000    775.285    -19.285    511.708    772.283    514.656    511.708    511.708
108.470    747.000    776.802    -29.802    511.609    773.839    514.523    511.609    511.609
108.570    810.000    776.737     33.263    511.512    773.840    514.364    511.512    511.512
108.670    764.107    775.472    -11.365    511.419    772.666    514.185    511.419    511.419
108.770    756.000    773.443    -17.443    511.329    770.746    513.990    511.329    511.329
108.870    779.000    771.092      7.908    511.241    768.517    513.784    511.241    511.241
108.970    751.000    768.817    -17.817    511.157    766.373    513.574    511.157    511.157
109.070    752.000    766.950    -14.950    511.076    764.639    513.365    511.076    511.076
109.170    763.000    765.732     -2.732    510.998    763.553    513.160    510.998    510.998
109.270    766.000    765.304      0.696    510.924    763.251    512.962    510.924    510.924
109.370    775.000    765.698      9.302    510.852    763.764    512.775    510.852    510.852
109.470    736.000    766.842    -30.842    510.784    765.018    512.601    510.784    510.784
109.570    688.000    768.556    -80.556    510.719    766.832    512.439    510.719    510.719
109.670    757.000    770.563    -13.563    510.658    768.929    512.291    510.658    510.658
109.770    733.000    772.506    -39.506    510.600    770.953    512.155    510.600    510.600
109.870    700.000    773.970    -73.970    510.545    772.489    512.031    510.545    510.545
109.970    716.000    774.519    -58.519    510.494    773.104    511.917    510.494    510.494
110.070    730.399    773.735    -43.335    510.446    772.388    511.803    510.446    510.446
110.170    761.074    771.305    -10.231    510.401    770.019    511.700    510.401    510.401
110.270    736.000    767.026    -31.026    510.360    765.795    511.606    510.360    510.360
110.370    795.623    760.842     34.781    510.323    759.664    511.516    510.323    510.323
110.470    773.358    752.853     20.505    510.289    751.728    511.431    510.289    510.289
110.570    744.572    743.284      1.288    510.259    742.212    511.349    510.259    510.259
110.670    694.000    732.448    -38.448    510.232    731.427    511.270    510.232    510.232
110.770    735.000    720.697     14.303    510.209    719.727    511.197    510.209    510.209
110.870    674.000    708.388    -34.388    510.190    707.467    511.128    510.190    510.190
110.970    678.000    695.882    -17.882    510.175    695.007    511.065    510.175    510.175
111.070    720.000    683.492     36.508    510.163    682.661    511.008    510.163    510.163
111.170    698.000    671.490     26.510    510.155    670.700    510.958    510.155    510.155
111.270    676.468    660.108     16.360    510.151    659.355    510.915    510.151    510.151
111.370    667.469    649.532     17.937    510.150    648.811    510.879    510.150    510.150
111.470    636.000    639.899     -3.899    510.154    639.208    510.852    510.154    510.154
111.570    587.436    631.305    -43.869    510.161    630.638    510.833    510.161    510.161
111.670    667.000    623.803     43.197    510.173    623.156    510.822    510.173    510.173
111.770    654.552    617.406     37.145    510.188    616.777    510.819    510.188    510.188
111.870    607.000    612.098     -5.098    510.208    611.480    510.825    510.208    510.208
111.970    620.926    607.832     13.095    510.231    607.223    510.838    510.231    510.231
112.070    608.000    604.543      3.457    510.259    603.939    510.858    510.259    510.259
112.170    566.000    602.151    -36.151    510.291    601.550    510.886    510.291    510.291
112.270    625.063    600.570     24.493    510.327    599.968    510.921    510.327    510.327
112.370    629.511    599.707     29.804    510.367    599.104    510.962    510.367    510.367
112.470    576.607    599.474    -22.867    510.411    598.866    511.009    510.411    510.411
112.570    599.000    599.785     -0.785    510.459    599.172    511.062    510.459    510.459
112.670    605.633    600.563      5.070    510.512    599.944    511.121    510.512    510.512
112.770    636.749    601.740     35.009    510.569    601.115    511.184    510.569    510.569
112.870    625.906    603.261     22.645    510.631    602.628    511.251    510.631    510.631
112.970    605.000    605.081     -0.081    510.697    604.441    511.324    510.697    510.697
113.070    616.000    607.172      8.828    510.767    606.525    511.401    510.767    510.767
113.170    580.896    609.519    -28.623    510.842    608.865    511.482    510.842    510.842
113.270    636.550    612.124     24.426    510.921    611.462    511.568    510.921    510.921
113.370    577.000    615.002    -38.002    511.005    614.333    511.660    511.005    511.005
113.470    598.000    618.187    -20.187    511.093    617.509    511.756    511.093    511.093
113.570    654.595    621.729     32.866    511.186    621.040    511.859    511.186    511.186
113.670    629.276    625.696      3.580    511.284    624.995    511.969    511.284    511.284
113.770    589.000    630.180    -41.180    511.386    629.464    512.086    511.386    511.386
113.870    682.873    635.302     47.571    511.493    634.566    512.211    511.493    511.493
113.970    620.866    641.215    -20.349    511.604    640.455    512.345    511.604    511.604
114.070    641.000    648.117     -7.117    511.721    647.327    512.490    511.721    511.721
114.170    654.000    656.260     -2.260    511.842    655.433    512.646    511.842    511.842
114.270    693.965    665.961     28.004    511.968    665.089    512.815    511.968    511.968
114.370    630.923    677.621    -46.698    512.099    676.692    512.999    512.099    512.099
114.470    683.312    691.736     -8.425    512.235    690.740    513.198    512.235    512.235
114.570    701.000    708.919     -7.919    512.376    707.840    513.415    512.376    512.376
114.670    685.221    729.913    -44.692    512.522    728.737    513.651    512.522    512.522
114.770    755.768    755.615      0.154    512.672    754.324    513.908    512.672    512.672
114.870    747.000    787.085    -40.085    512.828    785.659    514.188    512.828    512.828
114.970    829.000    825.565      3.435    512.989    823.982    514.493    512.989    512.989
115.070    836.914    872.481    -35.567    513.155    870.716    514.825    513.155    513.155
115.170    945.000    929.444     15.556    513.327    927.470    515.186    513.327    513.327
115.270    983.000    998.239    -15.239    513.503    996.029    515.577    513.503    513.503
115.370   1064.000   1080.805    -16.805    513.685   1078.327    515.999    513.685    513.685
115.470   1115.235   1179.193    -63.958    513.872   1176.416    516.455    513.872    513.872
115.570   1323.000   1295.517     27.483    514.064   1292.409    516.944    514.064    514.064
115.670   1498.782   1431.883     66.899    514.262   1428.410    517.468    514.262    514.262
115.770   1595.000   1590.301      4.699    514.465   1586.431    518.025    514.465    514.465
115.870   1685.000   1772.585    -87.585    514.673   1768.286    518.616    514.673    514.673
115.970   1925.000   1980.236    -55.236    514.887   1975.478    519.239    514.887    514.887
116.070   2278.000   2214.318     63.682    515.107   2209.074    519.891    515.107    515.107
116.170   2436.000   2475.332    -39.332    515.332   2469.580    520.570    515.332    515.332
116.270   2727.000   2763.089    -36.089    515.562   2756.810    521.272    515.562    515.562
116.370   3005.408   3076.577    -71.169    515.799   3069.760    521.992    515.799    515.799
116.470   3528.472   3413.909    114.564    516.040   3406.549    522.724    516.040    516.040
116.570   3660.228   3772.271   -112.043    516.288   3764.370    523.464    516.288    516.288
116.670   4098.000   4147.743    -49.743    516.541   4139.311    524.206    516.541    516.541
116.770   4308.000   4535.397   -227.397    516.800   4526.452    524.943    516.800    516.800
116.870   4825.000   4929.299   -104.299    517.065   4919.866    525.670    517.065    517.065
116.970   5206.000   5322.559   -116.559    517.336   5312.669    526.383    517.336    517.336
117.070   5851.804   5707.427    144.377    517.613   5697.118    527.077    517.613    517.613
117.170   6050.000   6075.436    -25.436    517.895   6064.751    527.748    517.895    517.895
117.270   6313.000   6417.607   -104.607    518.184   6406.594    528.392    518.184    518.184
117.370   6669.000   6724.728    -55.728    518.478   6713.439    529.006    518.478    518.478
117.470   7030.000   6987.736     42.264    518.779   6976.227    529.586    518.779    518.779
117.570   7184.000   7198.211    -14.211    519.086   7186.543    530.126    519.086    519.086
117.670   7455.000   7348.953    106.047    519.399   7337.187    530.623    519.399    519.399
117.770   7454.875   7434.580     20.296    519.718   7422.778    531.074    519.718    519.718
117.870   7464.000   7452.048     11.952    520.043   7440.272    531.475    520.043    520.043
117.970   7501.282   7400.973    100.309    520.374   7389.281    531.826    520.374    520.374
118.070   7410.000   7283.667    126.333    520.712   7272.114    532.127    520.712    520.712
118.170   7177.000   7104.885     72.115    521.056   7093.519    532.378    521.056    521.056
118.270   7014.062   6871.344    142.718    521.407   6860.210    532.581    521.407    521.407
118.370   6467.191   6591.129   -123.938    521.763   6580.268    532.740    521.763    521.763
118.470   6131.000   6273.098   -142.098    522.127   6262.545    532.856    522.127    522.127
118.570   5882.000   5926.363    -44.363    522.497   5916.151    532.935    522.497    522.497
118.670   5609.000   5559.874     49.126    522.873   5550.030    532.979    522.873    522.873
118.770   5171.000   5182.114    -11.114    523.256   5172.663    532.993    523.256    523.256
118.870   4930.978   4800.880    130.098    523.645   4791.842    532.982    523.645    523.645
118.970   4417.392   4423.123     -5.732    524.042   4414.513    532.953    524.042    524.042
119.070   4136.000   4054.850     81.150    524.444   4046.677    532.912    524.444    524.444
119.170   3727.068   3701.060     26.008    524.854   3693.327    532.867    524.854    524.854
119.270   3294.041   3365.724    -71.683    525.271   3358.431    532.825    525.271    525.271
119.370   2993.826   3051.807    -57.980    525.694   3044.945    532.793    525.694    525.694
119.470   2839.000   2761.316     77.684    526.124   2754.873    532.777    526.124    526.124
119.570   2503.000   2495.389      7.611    526.561   2489.347    532.785    526.561    526.561
119.670   2288.000   2254.395     33.605    527.005   2248.731    532.822    527.005    527.005
119.770   2097.078   2038.052     59.027    527.456   2032.741    532.893    527.456    527.456
119.870   1801.061   1845.551    -44.489    527.914   1840.564    533.001    527.914    527.914
119.970   1725.000   1675.674     49.326    528.379   1670.979    533.151    528.379    528.379
120.070   1515.574   1526.903    -11.328    528.851   1522.465    533.345    528.851    528.851
120.170   1444.000   1397.522     46.478    529.331   1393.305    533.586    529.331    529.331
120.270   1311.902   1285.709     26.193    529.818   1281.673    533.876    529.818    529.818
120.370   1234.000   1189.610     44.390    530.311   1185.715    534.216    530.311    530.311
120.470   1070.736   1107.404    -36.668    530.813   1103.610    534.608    530.813    530.813
120.570   1061.000   1037.357     23.643    531.321   1033.619    535.052    531.321    531.321
120.670    962.808    977.854    -15.046    531.837    974.129    535.549    531.837    531.837
120.770    962.000    927.426     34.574    532.361    923.670    536.101    532.361    532.361
120.870    881.000    884.764     -3.764    532.891    880.930    536.707    532.891    532.891
120.970    821.162    848.717    -27.555    533.430    844.759    537.369    533.430    533.430
121.070    761.742    818.294    -56.552    533.976    814.164    538.087    533.976    533.976
121.170    831.000    792.647     38.353    534.529    788.296    538.863    534.529    534.529
121.270    754.000    771.064    -17.064    535.090    766.441    539.697    535.090    535.090
121.370    761.000    752.950      8.050    535.659    748.003    540.592    535.659    535.659
121.470    733.000    737.810     -4.810    536.236    732.486    541.548    536.236    536.236
121.570    677.432    725.239    -47.807    536.820    719.481    542.567    536.820    536.820
121.670    705.684    714.901     -9.217    537.413    708.654    543.651    537.413    537.413
121.770    739.553    706.523     33.031    538.013    699.727    544.802    538.013    538.013
121.870    688.846    699.878    -11.032    538.621    692.472    546.021    538.621    538.621
121.970    638.000    694.780    -56.780    539.237    686.702    547.311    539.237    539.237
122.070    712.894    691.071     21.823    539.861    682.257    548.672    539.861    539.861
122.170    666.000    688.619    -22.619    540.493    679.003    550.107    540.493    540.493
122.270    650.812    687.309    -36.497    541.133    676.825    551.617    541.133    541.133
122.370    689.000    687.039      1.961    541.781    675.619    553.203    541.781    541.781
122.470    645.000    687.716    -42.716    542.438    675.293    554.865    542.438    542.438
122.570    654.513    689.254    -34.741    543.103    675.759    556.603    543.103    543.103
122.670    667.000    691.567    -24.567    543.776    676.935    558.414    543.776    543.776
122.770    745.585    694.570     51.015    544.457    678.740    560.296    544.457    544.457
122.870    691.000    698.177     -7.177    545.147    681.092    562.243    545.147    545.147
122.970    690.000    702.296    -12.296    545.845    683.907    564.247    545.845    545.845
123.070    720.000    706.830     13.170    546.552    687.097    566.300    546.552    546.552
123.170    695.000    711.678    -16.678    547.267    690.574    568.388    547.267    547.267
123.270    709.000    716.729     -7.729    547.991    694.242    570.497    547.991    547.991
123.370    664.000    721.869    -57.869    548.724    698.003    572.611    548.724    548.724
123.470    678.000    726.974    -48.974    549.465    701.753    574.710    549.465    549.465
123.570    769.324    731.918     37.406    550.215    705.386    576.773    550.215    550.215
123.670    736.000    736.571     -0.571    550.973    708.796    578.778    550.973    550.973
123.770    694.040    740.799    -46.759    551.741    711.872    580.700    551.741    551.741
123.870    751.000    744.457      6.543    552.517    714.493    582.516    552.517    552.517
123.970    759.000    747.454     11.546    553.302    716.590    584.204    553.302    553.302
124.070    735.000    749.706    -14.706    554.096    718.097    585.744    554.096    554.096
124.170    783.359    751.112     32.247    554.899    718.933    587.119    554.899    554.899
124.270    705.106    751.616    -46.510    555.712    719.054    588.316    555.712    555.712
124.370    761.561    751.191     10.370    556.533    718.439    589.328    556.533    556.533
124.470    742.000    749.839     -7.839    557.363    717.095    590.151    557.363    557.363
124.570    773.413    747.588     25.825    558.203    715.048    590.788    558.203    558.203
124.670    802.000    744.491     57.509    559.052    712.342    591.245    559.052    559.052
124.770    813.000    740.616     72.384    559.910    709.039    591.531    559.910    559.910
124.870    731.007    736.048     -5.041    560.778    705.209    591.660    560.778    560.778
124.970    806.000    730.877     75.123    561.655    700.929    591.645    561.655    561.655
