neutron_powder_diffraction_0100
R_wp: 4.061
Temperature (K): 889.497
Counts: 82949.00
Wavelength (Ã…): 2.52098
COMMENTS
Test file for demonstrating the .xyy file format in Reel1.0
END OF HEADER
   tth       Y_obs     Y_calc      Y_res    Background    Phase_1_Nuc    Phase_1_Mag    Phase_2_Nuc    Phase_2_Mag
  9.970    583.000    546.030     36.970    544.928    545.954    544.928    545.004    544.928
 10.070    524.740    546.616    -21.876    545.428    546.539    545.428    545.505    545.428
 10.170    624.000    547.203     76.797    545.918    547.126    545.918    545.995    545.918
 10.270    597.000    547.794     49.206    546.398    547.717    546.398    546.475    546.398
 10.370    590.000    548.393     41.607    546.867    548.315    546.867    546.944    546.867
 10.470    652.000    549.002    102.998    547.325    548.924    547.325    547.403    547.325
 10.570    562.000    549.628     12.372    547.773    549.549    547.773    547.851    547.773
 10.670    602.000    550.277     51.723    548.211    550.197    548.211    548.289    548.211
 10.770    550.000    550.957     -0.957    548.638    550.878    548.638    548.717    548.638
 10.870    584.000    551.682     32.318    549.056    551.602    549.056    549.134    549.056
 10.970    555.000    552.468      2.532    549.463    552.387    549.463    549.542    549.463
 11.070    565.000    553.338     11.662    549.860    553.257    549.860    549.940    549.860
 11.170    529.000    554.327    -25.327    550.248    554.245    550.248    550.327    550.248
 11.270    552.000    555.485     -3.485    550.625    555.402    550.625    550.705    550.625
 11.370    596.000    556.903     39.097    550.993    556.820    550.993    551.074    550.993
 11.470    588.481    558.772     29.709    551.352    558.687    551.352    551.432    551.352
 11.570    570.000    561.545      8.455    551.700    561.458    551.700    551.782    551.700
 11.670    565.000    566.278     -1.278    552.040    566.189    552.040    552.121    552.040
 11.770    596.000    575.052     20.948    552.370    574.957    552.370    552.451    552.370
 11.870    630.000    590.892     39.108    552.690    590.788    552.690    552.772    552.690
 11.970    568.565    616.256    -47.690    553.001    616.138    553.001    553.084    553.001
 12.070    645.000    649.577     -4.577    553.304    649.441    553.304    553.387    553.304
 12.170    690.000    680.899      9.101    553.597    680.745    553.597    553.680    553.597
 12.270    706.909    692.339     14.571    553.881    692.177    553.881    553.965    553.881
 12.370    638.811    674.693    -35.882    554.156    674.542    554.156    554.240    554.156
 12.470    647.270    641.513      5.757    554.422    641.380    554.422    554.507    554.422
 12.570    547.000    610.104    -63.104    554.680    609.989    554.680    554.765    554.680
 12.670    603.000    587.899     15.101    554.929    587.795    554.929    555.014    554.929
 12.770    551.000    574.873    -23.873    555.169    574.777    555.169    555.255    555.169
 12.870    597.857    568.090     29.767    555.401    567.997    555.401    555.487    555.401
 12.970    533.896    564.661    -30.765    555.624    564.569    555.624    555.711    555.624
 13.070    541.000    562.800    -21.800    555.839    562.710    555.839    555.926    555.839
 13.170    577.098    561.665     15.433    556.046    561.575    556.046    556.133    556.046
 13.270    537.856    560.908    -23.052    556.244    560.818    556.244    556.332    556.244
 13.370    537.000    560.380    -23.380    556.435    560.290    556.435    556.523    556.435
 13.470    515.000    560.006    -45.006    556.617    559.916    556.617    556.705    556.617
 13.570    528.000    559.741    -31.741    556.791    559.651    556.791    556.880    556.791
 13.670    597.131    559.555     37.576    556.957    559.464    556.957    557.047    556.957
 13.770    571.000    559.427     11.573    557.116    559.336    557.116    557.205    557.116
 13.870    607.000    559.341     47.659    557.266    559.250    557.266    557.356    557.266
 13.970    544.000    559.287    -15.287    557.409    559.196    557.409    557.500    557.409
 14.070    526.000    559.257    -33.257    557.544    559.165    557.544    557.635    557.544
 14.170    576.000    559.247     16.753    557.672    559.154    557.672    557.764    557.672
 14.270    584.985    559.251     25.735    557.792    559.158    557.792    557.884    557.792
 14.370    562.000    559.268      2.732    557.905    559.175    557.905    557.997    557.905
 14.470    517.000    559.306    -42.306    558.010    559.212    558.010    558.103    558.010
 14.570    544.000    559.330    -15.330    558.109    559.236    558.109    558.202    558.109
 14.670    519.369    559.354    -39.985    558.199    559.259    558.199    558.293    558.199
 14.770    527.000    559.378    -32.378    558.283    559.283    558.283    558.378    558.283
 14.870    586.000    559.402     26.598    558.360    559.307    558.360    558.455    558.360
 14.970    512.000    559.433    -47.433    558.430    559.338    558.430    558.525    558.430
 15.070    582.076    559.537     22.538    558.493    559.441    558.493    558.588    558.493
 15.170    557.000    559.614     -2.614    558.548    559.517    558.548    558.645    558.548
 15.270    520.000    559.635    -39.635    558.598    559.538    558.598    558.694    558.598
 15.370    548.000    559.649    -11.649    558.640    559.551    558.640    558.737    558.640
 15.470    540.000    559.659    -19.659    558.676    559.561    558.676    558.774    558.676
 15.570    552.438    559.665     -7.227    558.705    559.566    558.705    558.803    558.705
 15.670    573.000    559.667     13.333    558.727    559.568    558.727    558.827    558.727
 15.770    529.343    559.665    -30.321    558.744    559.565    558.744    558.843    558.744
 15.870    549.000    559.658    -10.658    558.753    559.558    558.753    558.854    558.753
 15.970    571.000    559.647     11.353    558.757    559.546    558.757    558.858    558.757
 16.070    556.584    559.631     -3.047    558.754    559.530    558.754    558.855    558.754
 16.170    517.565    559.610    -42.045    558.745    559.508    558.745    558.847    558.745
 16.270    559.000    559.585     -0.585    558.730    559.482    558.730    558.833    558.730
 16.370    534.000    559.555    -25.555    558.709    559.451    558.709    558.812    558.709
 16.470    592.781    559.519     33.261    558.682    559.416    558.682    558.785    558.682
 16.570    568.734    559.480      9.255    558.649    559.375    558.649    558.753    558.649
 16.670    593.844    559.439     34.405    558.610    559.334    558.610    558.715    558.610
 16.770    516.000    559.392    -43.392    558.565    559.286    558.565    558.670    558.565
 16.870    596.000    559.337     36.663    558.514    559.231    558.514    558.621    558.514
 16.970    560.038    559.277      0.761    558.458    559.170    558.458    558.565    558.458
 17.070    506.000    559.213    -53.213    558.396    559.105    558.396    558.504    558.396
 17.170    568.000    559.143      8.857    558.329    559.035    558.329    558.437    558.329
 17.270    577.496    559.068     18.427    558.256    558.959    558.256    558.365    558.256
 17.370    571.000    558.989     12.011    558.178    558.880    558.178    558.288    558.178
 17.470    593.424    558.909     34.515    558.094    558.799    558.094    558.205    558.094
 17.570    543.000    558.863    -15.863    558.005    558.752    558.005    558.116    558.005
 17.670    525.300    558.809    -33.510    557.911    558.698    557.911    558.023    557.911
 17.770    596.918    558.715     38.202    557.812    558.603    557.812    557.924    557.812
 17.870    529.000    558.613    -29.613    557.707    558.500    557.707    557.821    557.707
 17.970    559.000    558.506      0.494    557.598    558.392    557.598    557.712    557.598
 18.070    540.444    558.394    -17.950    557.483    558.280    557.483    557.598    557.483
 18.170    532.000    558.278    -26.278    557.364    558.163    557.364    557.479    557.364
 18.270    602.571    558.158     44.413    557.239    558.042    557.239    557.356    557.239
 18.370    572.000    558.033     13.967    557.110    557.916    557.110    557.227    557.110
 18.470    512.000    557.904    -45.904    556.976    557.786    556.976    557.094    556.976
 18.570    588.908    557.771     31.137    556.837    557.652    556.837    556.956    556.837
 18.670    566.000    557.636      8.364    556.694    557.516    556.694    556.814    556.694
 18.770    580.793    557.527     23.266    556.546    557.407    556.546    556.667    556.546
 18.870    511.000    557.437    -46.437    556.394    557.315    556.394    556.515    556.394
 18.970    534.068    557.293    -23.226    556.237    557.171    556.237    556.359    556.237
 19.070    554.000    557.146     -3.146    556.075    557.022    556.075    556.199    556.075
 19.170    571.271    556.997     14.274    555.910    556.872    555.910    556.034    555.910
 19.270    569.000    556.837     12.163    555.740    556.712    555.740    555.865    555.740
 19.370    546.618    556.677    -10.059    555.565    556.551    555.565    555.692    555.565
 19.470    524.042    556.517    -32.475    555.387    556.390    555.387    555.514    555.387
 19.570    526.811    556.346    -29.535    555.204    556.218    555.204    555.332    555.204
 19.670    522.000    556.171    -34.171    555.017    556.041    555.017    555.147    555.017
 19.770    555.830    555.992     -0.162    554.827    555.861    554.827    554.957    554.827
 19.870    544.730    555.810    -11.080    554.632    555.679    554.632    554.763    554.632
 19.970    545.000    555.627    -10.627    554.433    555.494    554.433    554.566    554.433
 20.070    546.249    555.438     -9.190    554.231    555.304    554.231    554.364    554.231
 20.170    586.000    555.247     30.753    554.024    555.112    554.024    554.159    554.024
 20.270    582.532    555.053     27.479    553.814    554.917    553.814    553.950    553.814
 20.370    579.000    554.868     24.132    553.600    554.731    553.600    553.738    553.600
 20.470    563.000    554.685      8.315    553.383    554.546    553.383    553.521    553.383
 20.570    560.656    554.486      6.169    553.161    554.346    553.161    553.302    553.161
 20.670    582.800    554.304     28.495    552.937    554.163    552.937    553.078    552.937
 20.770    547.000    554.110     -7.110    552.709    553.968    552.709    552.851    552.709
 20.870    521.630    553.901    -32.271    552.477    553.757    552.477    552.621    552.477
 20.970    595.124    553.696     41.428    552.242    553.550    552.242    552.387    552.242
 21.070    561.000    553.540      7.460    552.003    553.393    552.003    552.150    552.003
 21.170    581.000    553.334     27.666    551.762    553.185    551.762    551.910    551.762
 21.270    530.000    553.125    -23.125    551.517    552.975    551.517    551.667    551.517
 21.370    557.000    552.937      4.063    551.269    552.786    551.269    551.420    551.269
 21.470    564.000    552.724     11.276    551.017    552.571    551.017    551.171    551.017
 21.570    545.000    552.529     -7.529    550.763    552.374    550.763    550.918    550.763
 21.670    551.672    552.327     -0.655    550.505    552.170    550.505    550.662    550.505
 21.770    540.000    552.106    -12.106    550.245    551.948    550.245    550.403    550.245
 21.870    519.000    551.884    -32.884    549.981    551.724    549.981    550.142    549.981
 21.970    537.000    551.662    -14.662    549.715    551.500    549.715    549.877    549.715
 22.070    516.682    551.448    -34.766    549.446    551.284    549.446    549.610    549.446
 22.170    507.739    551.245    -43.505    549.174    551.079    549.174    549.340    549.174
 22.270    549.359    551.035     -1.676    548.899    550.867    548.899    549.067    548.899
 22.370    544.000    550.825     -6.825    548.621    550.655    548.621    548.792    548.621
 22.470    506.000    550.613    -44.613    548.341    550.440    548.341    548.514    548.341
 22.570    506.809    550.404    -43.595    548.058    550.229    548.058    548.233    548.058
 22.670    541.000    550.201     -9.201    547.773    550.024    547.773    547.950    547.773
 22.770    522.000    550.008    -28.008    547.485    549.828    547.485    547.665    547.485
 22.870    563.052    549.820     13.232    547.195    549.638    547.195    547.377    547.195
 22.970    509.000    549.643    -40.643    546.902    549.459    546.902    547.087    546.902
 23.070    595.000    549.480     45.520    546.606    549.292    546.606    546.794    546.606
 23.170    535.000    549.333    -14.333    546.309    549.143    546.309    546.500    546.309
 23.270    544.444    549.209     -4.765    546.009    549.016    546.009    546.203    546.009
 23.370    566.000    549.112     16.888    545.707    548.916    545.707    545.903    545.707
 23.470    538.000    549.051    -11.051    545.402    548.853    545.402    545.602    545.402
 23.570    532.000    549.038    -17.038    545.096    548.836    545.096    545.299    545.096
 23.670    545.437    549.090     -3.653    544.787    548.885    544.787    544.994    544.787
 23.770    560.000    549.227     10.773    544.476    549.018    544.476    544.687    544.476
 23.870    557.686    549.481      8.205    544.163    549.269    544.163    544.378    544.163
 23.970    521.000    549.913    -28.913    543.848    549.697    543.848    544.067    543.848
 24.070    570.000    550.645     19.355    543.532    550.426    543.532    543.754    543.532
 24.170    586.642    551.963     34.679    543.213    551.741    543.213    543.440    543.213
 24.270    605.000    554.527     50.473    542.892    554.302    542.892    543.123    542.892
 24.370    580.000    559.613     20.387    542.570    559.387    542.570    542.806    542.570
 24.470    590.000    569.085     20.915    542.245    568.861    542.245    542.487    542.245
 24.570    596.111    584.536     11.575    541.919    584.318    541.919    542.166    541.919
 24.670    610.267    605.387      4.880    541.592    605.178    541.592    541.844    541.592
 24.770    618.000    626.216     -8.216    541.262    626.017    541.262    541.520    541.262
 24.870    639.000    635.805      3.195    540.931    635.607    540.931    541.195    540.931
 24.970    599.000    626.549    -27.549    540.598    626.338    540.598    540.869    540.598
 25.070    603.000    605.537     -2.537    540.264    605.304    540.264    540.542    540.264
 25.170    598.000    584.042     13.958    539.929    583.786    539.929    540.214    539.929
 25.270    608.104    567.779     40.326    539.591    567.504    539.591    539.884    539.591
 25.370    613.000    557.526     55.474    539.253    557.236    539.253    539.554    539.253
 25.470    561.000    551.761      9.239    538.913    551.457    538.913    539.223    538.913
 25.570    570.000    548.614     21.386    538.571    548.299    538.571    538.891    538.571
 25.670    600.000    546.775     53.225    538.229    546.449    538.229    538.558    538.229
 25.770    585.000    545.563     39.437    537.885    545.225    537.885    538.225    537.885
 25.870    559.000    544.676     14.324    537.539    544.326    537.539    537.891    537.539
 25.970    518.602    543.991    -25.389    537.193    543.628    537.193    537.557    537.193
 26.070    546.305    543.447      2.858    536.845    543.071    536.845    537.223    536.845
 26.170    531.257    543.015    -11.758    536.496    542.624    536.496    536.888    536.496
 26.270    505.487    542.676    -37.189    536.147    542.270    536.147    536.554    536.147
 26.370    565.000    542.421     22.579    535.796    541.997    535.796    536.219    535.796
 26.470    515.516    542.245    -26.729    535.444    541.803    535.444    535.886    535.444
 26.570    572.615    542.149     30.466    535.091    541.687    535.091    535.552    535.091
 26.670    521.268    542.139    -20.870    534.737    541.656    534.737    535.220    534.737
 26.770    546.000    542.226      3.774    534.382    541.719    534.382    534.889    534.382
 26.870    527.677    542.426    -14.749    534.026    541.893    534.026    534.559    534.026
 26.970    524.370    542.760    -18.390    533.670    542.199    533.670    534.230    533.670
 27.070    607.000    543.266     63.734    533.312    542.674    533.312    533.904    533.312
 27.170    529.000    543.995    -14.995    532.954    543.368    532.954    533.581    532.954
 27.270    586.000    545.018     40.982    532.595    544.353    532.595    533.260    532.595
 27.370    598.000    546.445     51.555    532.236    545.736    532.236    532.943    532.236
 27.470    522.742    548.491    -25.748    531.876    547.733    531.876    532.630    531.876
 27.570    569.000    551.659     17.341    531.515    550.847    531.515    532.323    531.515
 27.670    547.686    557.362     -9.676    531.153    556.487    531.153    532.022    531.153
 27.770    521.219    569.274    -48.055    530.791    568.326    530.791    531.729    530.791
 27.870    576.001    594.947    -18.946    530.428    593.911    530.428    531.446    530.428
 27.970    669.505    644.902     24.603    530.065    643.758    530.065    531.174    530.065
 28.070    706.848    725.099    -18.251    529.701    723.826    529.701    530.916    529.701
 28.170    893.000    823.061     69.939    529.337    821.644    529.337    530.675    529.337
 28.270    880.288    898.499    -18.211    528.973    896.933    528.973    530.457    528.973
 28.370    912.620    905.740      6.881    528.608    904.020    528.608    530.264    528.608
 28.470    811.000    846.121    -35.121    528.242    844.221    528.242    530.104    528.242
 28.570    790.000    770.893     19.107    527.877    768.763    527.877    529.984    527.877
 28.670    733.000    728.022      4.978    527.511    725.603    527.511    529.910    527.511
 28.770    761.636    733.291     28.345    527.145    730.523    527.145    529.893    527.145
 28.870    743.000    771.764    -28.764    526.778    768.582    526.778    529.940    526.778
 28.970    832.000    806.958     25.042    526.412    803.296    526.412    530.060    526.412
 29.070    788.511    802.393    -13.882    526.045    798.179    526.045    530.258    526.045
 29.170    717.217    753.697    -36.480    525.678    748.851    525.678    530.533    525.678
 29.270    709.000    687.871     21.129    525.311    682.321    525.311    530.871    525.311
 29.370    666.000    630.816     35.184    524.944    624.527    524.944    531.241    524.944
 29.470    604.089    592.253     11.836    524.577    585.252    524.577    531.583    524.577
 29.570    565.356    570.267     -4.911    524.209    562.668    524.209    531.810    524.209
 29.670    586.653    558.842     27.811    523.842    550.857    523.842    531.828    523.842
 29.770    626.000    552.736     73.264    523.475    544.652    523.475    531.559    523.475
 29.870    557.830    548.930      8.900    523.108    541.055    523.108    530.982    523.108
 29.970    504.122    546.121    -41.999    522.741    538.718    522.741    530.142    522.741
 30.070    597.000    543.882     53.118    522.374    537.127    522.374    529.127    522.374
 30.170    530.000    542.151    -12.151    522.007    536.124    522.007    528.033    522.007
 30.270    504.458    541.059    -36.600    521.640    535.760    521.640    526.937    521.640
 30.370    565.122    540.969     24.154    521.274    536.351    521.274    525.887    521.274
 30.470    559.000    542.626     16.374    520.907    538.617    520.907    524.909    520.907
 30.570    592.000    547.199     44.801    520.541    543.720    520.541    524.010    520.541
 30.670    558.000    555.920      2.080    520.175    552.889    520.175    523.188    520.175
 30.770    646.000    569.064     76.936    519.810    566.409    519.810    522.437    519.810
 30.870    557.324    584.425    -27.101    519.445    582.085    519.445    521.747    519.445
 30.970    584.955    596.183    -11.228    519.080    594.108    519.080    521.111    519.080
 31.070    651.000    597.305     53.695    518.715    595.459    518.715    520.519    518.715
 31.170    629.000    586.437     42.563    518.351    584.789    518.351    519.965    518.351
 31.270    610.000    569.781     40.219    517.988    568.304    517.988    519.442    517.988
 31.370    573.000    554.109     18.891    517.625    552.775    517.625    518.944    517.625
 31.470    532.000    542.538    -10.538    517.262    541.325    517.262    518.466    517.262
 31.570    602.000    535.255     66.745    516.900    534.143    516.900    518.006    516.900
 31.670    595.000    531.112     63.888    516.538    530.086    516.538    517.560    516.538
 31.770    572.876    528.824     44.052    516.177    527.872    516.177    517.126    516.177
 31.870    573.000    527.497     45.503    515.816    526.609    515.816    516.701    515.816
 31.970    500.021    526.661    -26.640    515.456    525.830    515.456    516.285    515.456
 32.070    558.000    526.112     31.888    515.097    525.330    515.097    515.877    515.097
 32.170    531.000    525.768      5.232    514.738    525.031    514.738    515.474    514.738
 32.270    547.000    525.600     21.400    514.380    524.901    514.380    515.077    514.380
 32.370    579.000    525.600     53.400    514.022    524.936    514.022    514.685    514.022
 32.470    558.000    525.774     32.226    513.665    525.142    513.665    514.297    513.665
 32.570    556.000    526.142     29.858    513.309    525.537    513.309    513.912    513.309
 32.670    505.000    526.733    -21.733    512.954    526.154    512.954    513.532    512.954
 32.770    526.922    527.596     -0.674    512.599    527.039    512.599    513.155    512.599
 32.870    577.000    528.799     48.201    512.245    528.263    512.245    512.780    512.245
 32.970    567.000    530.443     36.557    511.892    529.926    511.892    512.408    511.892
 33.070    563.034    532.691     30.343    511.540    532.190    511.540    512.039    511.540
 33.170    550.000    535.829     14.171    511.189    535.343    511.189    511.672    511.189
 33.270    541.588    540.454      1.134    510.839    539.982    510.839    511.308    510.839
 33.370    594.000    547.889     46.111    510.489    547.428    510.489    510.945    510.489
 33.470    575.898    560.930     14.968    510.140    560.478    510.140    510.585    510.140
 33.570    564.000    584.681    -20.681    509.793    584.236    509.793    510.226    509.793
 33.670    578.654    626.547    -47.893    509.446    626.104    509.446    509.869    509.446
 33.770    700.000    693.862      6.138    509.100    693.419    509.100    509.514    509.100
 33.870    785.000    788.257     -3.257    508.755    787.812    508.755    509.161    508.755
 33.970    933.428    897.434     35.995    508.411    896.991    508.411    508.810    508.411
 34.070    950.000    988.059    -38.059    508.068    987.630    508.068    508.460    508.068
 34.170   1025.000   1014.436     10.564    507.726   1014.029    507.726    508.112    507.726
 34.270    967.000    958.541      8.459    507.386    958.155    507.386    507.765    507.386
 34.370    836.000    853.973    -17.973    507.046    853.600    507.046    507.420    507.046
 34.470    689.000    746.364    -57.364    506.707    745.998    506.707    507.077    506.707
 34.570    641.000    660.898    -19.898    506.370    660.536    506.370    506.734    506.370
 34.670    594.000    603.316     -9.316    506.034    602.957    506.034    506.394    506.034
 34.770    557.560    568.791    -11.231    505.698    568.435    505.698    506.055    505.698
 34.870    566.000    549.358     16.642    505.364    549.005    505.364    505.718    505.364
 34.970    565.000    538.311     26.689    505.031    537.960    505.031    505.382    505.031
 35.070    508.000    531.499    -23.499    504.700    531.151    504.700    505.047    504.700
 35.170    485.000    526.816    -41.816    504.369    526.471    504.369    504.714    504.369
 35.270    541.292    523.306     17.986    504.040    522.964    504.040    504.382    504.040
 35.370    513.560    520.535     -6.974    503.712    520.194    503.712    504.052    503.712
 35.470    558.294    518.278     40.016    503.385    517.939    503.385    503.724    503.385
 35.570    504.000    516.400    -12.400    503.060    516.063    503.060    503.397    503.060
 35.670    477.000    514.812    -37.812    502.736    514.476    502.736    503.071    502.736
 35.770    517.000    513.448      3.552    502.413    513.114    502.413    502.747    502.413
 35.870    513.000    512.263      0.737    502.091    511.930    502.091    502.425    502.091
 35.970    490.195    511.221    -21.026    501.771    510.889    501.771    502.104    501.771
 36.070    491.000    510.296    -19.296    501.452    509.964    501.452    501.784    501.452
 36.170    475.704    509.469    -33.765    501.135    509.137    501.135    501.466    501.135
 36.270    503.629    508.723     -5.095    500.818    508.392    500.818    501.149    500.818
 36.370    502.000    508.050     -6.050    500.504    507.719    500.504    500.835    500.504
 36.470    514.000    507.439      6.561    500.190    507.109    500.190    500.521    500.190
 36.570    513.000    506.888      6.112    499.878    506.557    499.878    500.209    499.878
 36.670    514.009    506.392      7.616    499.568    506.061    499.568    499.899    499.568
 36.770    505.513    505.956     -0.443    499.259    505.625    499.259    499.590    499.259
 36.870    474.000    505.590    -31.590    498.951    505.259    498.951    499.283    498.951
 36.970    514.738    505.326      9.412    498.645    504.994    498.645    498.978    498.645
 37.070    448.000    505.230    -57.230    498.341    504.898    498.341    498.674    498.341
 37.170    491.000    505.433    -14.433    498.037    505.100    498.037    498.372    498.037
 37.270    464.000    506.131    -42.131    497.736    505.797    497.736    498.071    497.736
 37.370    475.000    507.547    -32.547    497.436    507.212    497.436    497.772    497.436
 37.470    542.000    509.814     32.186    497.137    509.479    497.137    497.474    497.137
 37.570    489.000    512.788    -23.788    496.840    512.452    496.840    497.179    496.840
 37.670    547.000    515.825     31.175    496.545    515.490    496.545    496.885    496.545
 37.770    532.016    517.750     14.266    496.251    517.415    496.251    496.592    496.251
 37.870    546.000    517.533     28.467    495.959    517.198    495.959    496.301    495.959
 37.970    502.000    515.303    -13.303    495.668    514.968    495.668    496.012    495.668
 38.070    472.836    512.062    -39.225    495.379    511.726    495.379    495.725    495.379
 38.170    501.000    508.714     -7.714    495.091    508.377    495.091    495.439    495.091
 38.270    516.000    505.748     10.252    494.805    505.407    494.805    495.156    494.805
 38.370    498.063    503.381     -5.318    494.521    503.036    494.521    494.873    494.521
 38.470    463.581    501.636    -38.055    494.239    501.287    494.239    494.593    494.239
 38.570    528.000    500.397     27.603    493.958    500.044    493.958    494.314    493.958
 38.670    457.000    499.516    -42.516    493.678    499.159    493.678    494.037    493.678
 38.770    481.000    498.865    -17.865    493.401    498.505    493.401    493.762    493.401
 38.870    507.000    498.357      8.643    493.125    497.994    493.125    493.489    493.125
 38.970    450.000    497.933    -47.933    492.851    497.567    492.851    493.218    492.851
 39.070    493.000    497.562     -4.562    492.578    497.193    492.578    492.948    492.578
 39.170    470.000    497.224    -27.224    492.307    496.853    492.307    492.680    492.307
 39.270    482.000    496.911    -14.911    492.038    496.536    492.038    492.414    492.038
 39.370    499.000    496.618      2.382    491.771    496.240    491.771    492.150    491.771
 39.470    467.663    496.341    -28.677    491.505    495.959    491.505    491.887    491.505
 39.570    496.000    496.078     -0.078    491.241    495.693    491.241    491.627    491.241
 39.670    448.000    495.828    -47.828    490.979    495.440    490.979    491.368    490.979
 39.770    501.000    495.591      5.409    490.719    495.199    490.719    491.111    490.719
 39.870    466.057    495.366    -29.309    490.460    494.971    490.460    490.856    490.460
 39.970    473.000    495.154    -22.154    490.203    494.754    490.203    490.603    490.203
 40.070    465.445    494.953    -29.508    489.948    494.550    489.948    490.352    489.948
 40.170    488.000    494.765     -6.765    489.695    494.358    489.695    490.103    489.695
 40.270    442.000    494.591    -52.591    489.444    494.179    489.444    489.856    489.444
 40.370    475.000    494.430    -19.430    489.194    494.014    489.194    489.611    489.194
 40.470    491.000    494.286     -3.286    488.946    493.866    488.946    489.367    488.946
 40.570    506.000    494.159     11.841    488.700    493.734    488.700    489.126    488.700
 40.670    466.070    494.051    -27.982    488.456    493.622    488.456    488.887    488.456
 40.770    478.000    493.966    -15.966    488.214    493.532    488.214    488.649    488.214
 40.870    460.488    493.907    -33.419    487.973    493.467    487.973    488.414    487.973
 40.970    492.040    493.878     -1.838    487.735    493.433    487.735    488.181    487.735
 41.070    456.000    493.885    -37.885    487.498    493.435    487.498    487.949    487.498
 41.170    501.958    493.936      8.022    487.263    493.480    487.263    487.720    487.263
 41.270    476.945    494.041    -17.095    487.030    493.579    487.030    487.493    487.030
 41.370    512.907    494.212     18.695    486.799    493.745    486.799    487.268    486.799
 41.470    485.410    494.469     -9.059    486.569    493.996    486.569    487.044    486.569
 41.570    485.000    494.840     -9.840    486.342    494.360    486.342    486.823    486.342
 41.670    483.000    495.372    -12.372    486.116    494.886    486.116    486.604    486.116
 41.770    520.540    496.156     24.384    485.893    495.665    485.893    486.387    485.893
 41.870    470.000    497.380    -27.380    485.671    496.882    485.671    486.173    485.671
 41.970    484.000    499.411    -15.411    485.451    498.907    485.451    485.960    485.451
 42.070    461.000    502.912    -41.912    485.233    502.401    485.233    485.750    485.233
 42.170    470.000    508.904    -38.904    485.017    508.389    485.017    485.541    485.017
 42.270    543.000    518.653     24.347    484.803    518.134    484.803    485.335    484.803
 42.370    594.000    533.232     60.768    484.590    532.712    484.590    485.131    484.590
 42.470    545.000    552.756     -7.756    484.380    552.237    484.380    484.930    484.380
 42.570    540.000    575.376    -35.376    484.172    574.861    484.172    484.730    484.172
 42.670    585.000    596.288    -11.288    483.965    595.775    483.965    484.533    483.965
 42.770    581.000    608.084    -27.084    483.760    607.570    483.760    484.338    483.760
 42.870    573.000    605.159    -32.159    483.558    604.636    483.558    484.146    483.558
 42.970    592.000    589.021      2.979    483.357    588.481    483.357    483.955    483.357
 43.070    534.000    566.583    -32.583    483.158    566.021    483.158    483.767    483.158
 43.170    552.667    544.466      8.201    482.961    543.880    482.961    483.582    482.961
 43.270    495.000    526.346    -31.346    482.767    525.738    482.767    483.399    482.767
 43.370    461.000    513.273    -52.273    482.574    512.645    482.574    483.218    482.574
 43.470    527.717    504.703     23.014    482.383    504.057    482.383    483.040    482.383
 43.570    494.000    499.434     -5.434    482.194    498.771    482.194    482.864    482.194
 43.670    511.000    496.263     14.737    482.006    495.584    482.006    482.690    482.006
 43.770    472.714    494.298    -21.584    481.821    493.604    481.821    482.520    481.821
 43.870    486.288    492.991     -6.703    481.638    492.281    481.638    482.351    481.638
 43.970    506.000    492.048     13.952    481.457    491.322    481.457    482.186    481.457
 44.070    500.562    491.324      9.237    481.278    490.581    481.278    482.023    481.278
 44.170    485.000    490.746     -5.746    481.100    489.985    481.100    481.863    481.100
 44.270    451.412    490.274    -38.861    480.925    489.495    480.925    481.705    480.925
 44.370    487.000    489.884     -2.884    480.751    489.086    480.751    481.551    480.751
 44.470    533.286    489.561     43.725    480.580    488.743    480.580    481.399    480.580
 44.570    476.825    489.293    -12.468    480.410    488.455    480.410    481.250    480.410
 44.670    503.000    489.072     13.928    480.243    488.211    480.243    481.105    480.243
 44.770    505.000    488.891     16.109    480.077    488.007    480.077    480.962    480.077
 44.870    459.681    488.745    -29.063    479.914    487.837    479.914    480.823    479.914
 44.970    463.000    488.631    -25.631    479.752    487.697    479.752    480.687    479.752
 45.070    491.000    488.547      2.453    479.592    487.586    479.592    480.554    479.592
 45.170    495.000    488.491      6.509    479.435    487.501    479.435    480.425    479.435
 45.270    510.000    488.462     21.538    479.279    487.442    479.279    480.300    479.279
 45.370    519.000    488.459     30.541    479.125    487.406    479.125    480.178    479.125
 45.470    507.000    488.482     18.518    478.973    487.395    478.973    480.060    478.973
 45.570    484.000    488.532     -4.532    478.824    487.409    478.824    479.947    478.824
 45.670    543.000    488.610     54.390    478.676    487.448    478.676    479.838    478.676
 45.770    446.082    488.717    -42.635    478.530    487.514    478.530    479.733    478.530
 45.870    490.000    488.856      1.144    478.386    487.608    478.386    479.633    478.386
 45.970    501.601    489.028     12.573    478.244    487.733    478.244    479.538    478.244
 46.070    456.100    489.238    -33.138    478.104    487.892    478.104    479.449    478.104
 46.170    496.000    489.489      6.511    477.965    488.089    477.965    479.365    477.965
 46.270    513.290    489.787     23.503    477.829    488.328    477.829    479.288    477.829
 46.370    510.000    490.139     19.861    477.695    488.616    477.695    479.217    477.695
 46.470    531.375    490.554     40.821    477.563    488.962    477.563    479.153    477.563
 46.570    453.180    491.043    -37.863    477.432    489.377    477.432    479.098    477.432
 46.670    499.000    491.624      7.376    477.304    489.877    477.304    479.050    477.304
 46.770    460.821    492.324    -31.503    477.178    490.489    477.178    479.012    477.178
 46.870    507.000    493.193     13.807    477.053    491.260    477.053    478.984    477.053
 46.970    456.797    494.321    -37.524    476.931    492.283    476.931    478.967    476.931
 47.070    481.000    495.883    -14.883    476.810    493.727    476.810    478.963    476.810
 47.170    531.657    498.183     33.474    476.691    495.897    476.691    478.973    476.691
 47.270    466.324    501.694    -35.370    476.575    499.263    476.575    478.999    476.575
 47.370    550.118    507.043     43.076    476.460    504.449    476.460    479.043    476.460
 47.470    539.094    514.876     24.218    476.347    512.099    476.347    479.109    476.347
 47.570    545.519    525.586     19.933    476.236    522.600    476.236    479.199    476.236
 47.670    560.816    538.925     21.891    476.127    535.702    476.127    479.318    476.127
 47.770    562.000    553.565      8.435    476.020    550.071    476.020    479.472    476.020
 47.870    587.000    566.739     20.261    475.915    562.937    475.915    479.668    475.915
 47.970    611.000    574.633     36.367    475.811    570.477    475.811    479.914    475.811
 48.070    586.000    574.545     11.455    475.710    569.983    475.710    480.222    475.710
 48.170    553.258    567.235    -13.978    475.610    562.198    475.610    480.605    475.610
 48.270    554.000    556.188     -2.188    475.513    550.589    475.513    481.079    475.513
 48.370    538.000    545.012     -7.012    475.417    538.742    475.417    481.663    475.417
 48.470    560.000    536.019     23.981    475.323    528.945    475.323    482.381    475.323
 48.570    492.000    530.201    -38.201    475.231    522.167    475.231    483.255    475.231
 48.670    547.253    527.646     19.607    475.141    518.469    475.141    484.312    475.141
 48.770    493.420    527.965    -34.546    475.053    517.437    475.053    485.578    475.053
 48.870    552.000    530.656     21.344    474.967    518.547    474.967    487.073    474.967
 48.970    568.534    535.346     33.188    474.882    521.414    474.882    488.813    474.882
 49.070    539.000    541.929     -2.929    474.800    525.932    474.800    490.795    474.800
 49.170    540.000    550.706    -10.706    474.719    532.434    474.719    492.990    474.719
 49.270    602.073    562.726     39.346    474.640    542.039    474.640    495.326    474.640
 49.370    541.883    580.582    -38.699    474.563    557.476    474.563    497.666    474.563
 49.470    572.800    609.878    -37.078    474.488    584.557    474.488    499.800    474.488
 49.570    657.000    661.149     -4.149    474.415    634.083    474.415    501.462    474.415
 49.670    711.000    751.020    -40.020    474.343    722.943    474.343    502.382    474.343
 49.770    870.873    900.198    -29.325    474.273    872.024    474.273    502.383    474.273
 49.870   1139.000   1125.905     13.095    474.205   1098.563    474.205    501.453    474.205
 49.970   1452.000   1428.829     23.171    474.139   1403.097    474.139    499.754    474.139
 50.070   1719.000   1778.789    -59.789    474.075   1755.198    474.075    497.548    474.075
 50.170   2127.000   2106.215     20.785    474.013   2085.040    474.013    495.107    474.013
 50.270   2232.000   2312.100    -80.100    473.952   2293.402    473.952    492.650    473.952
 50.370   2328.000   2315.111     12.889    473.893   2298.782    473.893    490.321    473.893
 50.470   2140.000   2113.746     26.254    473.836   2099.552    473.836    488.200    473.836
 50.570   1836.846   1788.167     48.679    473.781   1775.822    473.781    486.319    473.781
 50.670   1392.000   1438.750    -46.750    473.727   1427.970    473.727    484.684    473.727
 50.770   1085.000   1137.189    -52.189    473.676   1127.725    473.676    483.282    473.676
 50.870    880.835    915.337    -34.502    473.626    906.978    473.626    482.091    473.626
 50.970    787.000    773.030     13.970    473.577    765.598    473.577    481.086    473.577
 51.070    736.000    692.033     43.967    473.531    685.381    473.531    480.241    473.531
 51.170    645.000    649.146     -4.146    473.486    643.148    473.486    479.532    473.486
 51.270    640.000    624.620     15.380    473.443    619.169    473.443    478.937    473.443
 51.370    626.000    606.135     19.865    473.402    601.140    473.402    478.435    473.402
 51.470    581.000    588.988     -7.988    473.362    584.371    473.362    478.011    473.362
 51.570    601.000    572.938     28.062    473.324    568.637    473.324    477.650    473.324
 51.670    600.000    558.958     41.042    473.288    554.924    473.288    477.341    473.288
 51.770    544.918    547.776     -2.858    473.254    543.968    473.254    477.076    473.254
 51.870    522.092    539.597    -17.506    473.221    535.982    473.221    476.847    473.221
 51.970    586.000    534.189     51.811    473.190    530.739    473.190    476.648    473.190
 52.070    495.849    531.095    -35.247    473.160    527.787    473.160    476.475    473.160
 52.170    573.000    529.849     43.151    473.133    526.662    473.133    476.325    473.133
 52.270    564.675    530.129     34.546    473.107    527.047    473.107    476.194    473.107
 52.370    573.000    531.858     41.142    473.082    528.865    473.082    476.080    473.082
 52.470    528.000    535.291     -7.291    473.059    532.374    473.059    475.981    473.059
 52.570    562.893    541.167     21.726    473.038    538.313    473.038    475.897    473.038
 52.670    584.696    550.936     33.760    473.019    548.133    473.019    475.825    473.019
 52.770    590.000    567.026     22.974    473.001    564.266    473.001    475.764    473.001
 52.870    546.000    592.982    -46.982    472.984    590.255    472.984    475.715    472.984
 52.970    619.619    633.187    -13.568    472.969    630.484    472.969    475.675    472.969
 53.070    715.889    691.915     23.974    472.956    689.230    472.956    475.645    472.956
 53.170    797.952    771.618     26.334    472.945    768.945    472.945    475.624    472.945
 53.270    931.000    870.673     60.327    472.935    868.008    472.935    475.612    472.935
 53.370   1036.465    980.970     55.495    472.926    978.309    472.926    475.607    472.926
 53.470   1132.238   1085.869     46.370    472.919   1083.209    472.919    475.611    472.919
 53.570   1161.000   1160.695      0.305    472.914   1158.032    472.914    475.623    472.914
 53.670   1241.000   1181.078     59.922    472.910   1178.403    472.910    475.642    472.910
 53.770   1049.000   1139.090    -90.090    472.908   1136.391    472.908    475.670    472.908
 53.870   1014.779   1050.347    -35.568    472.907   1047.609    472.907    475.705    472.907
 53.970    892.863    941.380    -48.517    472.908    938.593    472.908    475.747    472.908
 54.070    835.431    834.511      0.921    472.910    831.665    472.910    475.798    472.910
 54.170    696.318    743.012    -46.694    472.914    740.102    472.914    475.856    472.914
 54.270    722.000    672.236     49.764    472.919    669.256    472.919    475.922    472.919
 54.370    590.026    621.953    -31.926    472.926    618.898    472.926    475.997    472.926
 54.470    625.000    588.755     36.245    472.934    585.620    472.934    476.081    472.934
 54.570    571.000    568.143      2.857    472.944    564.922    472.944    476.174    472.944
 54.670    549.892    555.966     -6.074    472.955    552.653    472.955    476.276    472.955
 54.770    558.000    549.092      8.908    472.967    545.678    472.967    476.388    472.967
 54.870    566.000    545.481     20.519    472.981    541.957    472.981    476.511    472.981
 54.970    532.847    543.952    -11.106    472.997    540.310    472.997    476.644    472.997
 55.070    563.000    543.895     19.105    473.013    540.123    473.013    476.790    473.013
 55.170    590.000    545.030     44.970    473.032    541.118    473.032    476.949    473.032
 55.270    574.000    547.267     26.733    473.051    543.202    473.051    477.121    473.051
 55.370    561.896    550.634     11.261    473.072    546.403    473.072    477.308    473.072
 55.470    556.354    555.265      1.089    473.094    550.854    473.094    477.511    473.094
 55.570    551.000    561.438    -10.438    473.118    556.830    473.118    477.731    473.118
 55.670    571.000    569.697      1.303    473.143    564.874    473.143    477.970    473.143
 55.770    530.000    581.096    -51.096    473.169    576.040    473.169    478.231    473.169
 55.870    586.000    597.654    -11.654    473.197    592.341    473.197    478.514    473.197
 55.970    687.000    623.025     63.975    473.226    617.431    473.226    478.823    473.226
 56.070    682.000    663.315     18.685    473.256    657.411    473.256    479.160    473.256
 56.170    707.000    727.674    -20.674    473.287    721.429    473.287    479.528    473.287
 56.270    812.909    828.016    -15.107    473.320    821.395    473.320    479.933    473.320
 56.370    967.000    977.104    -10.104    473.354    970.067    473.354    480.377    473.354
 56.470   1188.820   1184.554      4.266    473.390   1177.062    473.390    480.868    473.390
 56.570   1454.000   1451.155      2.845    473.426   1443.164    473.426    481.411    473.426
 56.670   1704.293   1762.646    -58.353    473.464   1754.109    473.464    482.015    473.464
 56.770   2110.049   2084.302     25.748    473.503   2075.167    473.503    482.692    473.503
 56.870   2384.674   2358.966     25.708    473.543   2349.171    473.543    483.453    473.543
 56.970   2569.142   2517.227     51.915    473.585   2506.687    473.585    484.317    473.585
 57.070   2527.000   2509.156     17.844    473.627   2497.743    473.627    485.304    473.627
 57.170   2282.840   2338.416    -55.577    473.671   2325.950    473.671    486.440    473.671
 57.270   2111.093   2059.268     51.825    473.716   2045.528    473.716    487.757    473.716
 57.370   1716.000   1740.766    -24.766    473.762   1725.502    473.762    489.295    473.762
 57.470   1433.699   1437.743     -4.044    473.809   1420.672    473.809    491.101    473.809
 57.570   1126.000   1182.610    -56.610    473.858   1163.408    473.858    493.229    473.858
 57.670    949.044    987.938    -38.893    473.907    966.226    473.907    495.740    473.907
 57.770    839.000    852.101    -13.101    473.958    827.438    473.958    498.704    473.958
 57.870    732.812    765.637    -32.824    474.009    737.509    474.009    502.191    474.009
 57.970    739.000    716.944     22.056    474.062    684.764    474.062    506.276    474.062
 58.070    727.950    696.178     31.772    474.116    659.285    474.116    511.028    474.116
 58.170    760.000    696.968     63.032    474.171    654.642    474.171    516.505    474.171
 58.270    734.000    716.337     17.663    474.227    667.821    474.227    522.742    474.227
 58.370    726.000    753.516    -27.516    474.284    698.054    474.284    529.736    474.284
 58.470    775.000    808.283    -33.283    474.342    745.187    474.342    537.422    474.342
 58.570    870.000    879.271     -9.271    474.401    808.018    474.401    545.632    474.401
 58.670    885.000    962.499    -77.499    474.461    882.877    474.461    554.060    474.461
 58.770   1032.182   1050.694    -18.513    474.522    962.975    474.522    562.223    474.522
 58.870   1124.000   1134.540    -10.540    474.584   1039.660    474.584    569.457    474.584
 58.970   1164.972   1205.643    -40.671    474.647   1105.308    474.647    574.988    474.647
 59.070   1309.000   1257.691     51.309    474.711   1154.327    474.711    578.096    474.711
 59.170   1302.000   1284.860     17.140    474.776   1181.344    474.776    578.328    474.776
 59.270   1363.000   1283.095     79.905    474.842   1182.325    474.842    575.658    474.842
 59.370   1291.000   1255.494     35.506    474.909   1159.949    474.909    570.499    474.909
 59.470   1277.000   1213.886     63.114    474.976   1125.341    474.976    563.552    474.976
 59.570   1282.000   1173.196    108.804    475.045   1092.651    475.045    555.595    475.045
 59.670   1161.252   1145.914     15.338    475.114   1073.688    475.114    547.310    475.114
 59.770   1143.685   1141.365      2.320    475.185   1077.276    475.185    539.202    475.185
 59.870   1148.000   1166.379    -18.379    475.256   1109.923    475.256    531.596    475.256
 59.970   1256.000   1223.368     32.632    475.328   1173.863    475.328    524.670    475.328
 60.070   1327.000   1306.738     20.262    475.401   1263.435    475.401    518.499    475.401
 60.170   1461.659   1400.678     60.981    475.474   1362.825    475.474    513.094    475.474
 60.270   1530.000   1479.824     50.176    475.549   1446.709    475.549    508.421    475.549
 60.370   1536.000   1515.091     20.909    475.624   1486.064    475.624    504.425    475.624
 60.470   1547.436   1486.634     60.802    475.700   1461.110    475.700    501.039    475.700
 60.570   1418.189   1395.872     22.317    475.777   1373.323    475.777    498.190    475.777
 60.670   1327.710   1263.440     64.270    475.854   1243.400    475.854    495.805    475.854
 60.770   1053.628   1116.106    -62.478    475.932   1098.166    475.932    493.818    475.932
 60.870    991.000    976.155     14.845    476.011    959.970    476.011    492.167    476.011
 60.970    881.357    857.785     23.573    476.091    843.064    476.091    490.796    476.091
 61.070    794.000    767.514     26.486    476.171    754.017    476.171    489.659    476.171
 61.170    689.980    706.164    -16.185    476.252    693.691    476.252    488.715    476.252
 61.270    657.256    671.500    -14.245    476.334    659.888    476.334    487.933    476.334
 61.370    673.000    660.773     12.227    476.417    649.885    476.417    487.282    476.417
 61.470    670.000    672.462     -2.462    476.500    662.187    476.500    486.741    476.500
 61.570    693.000    706.797    -13.797    476.583    697.045    476.583    486.287    476.583
 61.670    745.973    765.031    -19.057    476.668    755.730    476.668    485.902    476.668
 61.770    811.141    847.737    -36.596    476.753    838.835    476.753    485.567    476.753
 61.870    953.000    952.667      0.333    476.838    944.132    476.838    485.265    476.838
 61.970   1007.000   1072.712    -65.712    476.924   1064.530    476.924    484.979    476.924
 62.070   1164.000   1194.445    -30.445    477.011   1186.620    477.011    484.699    477.011
 62.170   1258.000   1298.006    -40.006    477.098   1290.553    477.098    484.418    477.098
 62.270   1361.163   1360.376      0.787    477.186   1353.314    477.186    484.136    477.186
 62.370   1314.229   1364.169    -49.940    477.274   1357.507    477.274    483.855    477.274
 62.470   1324.908   1307.719     17.190    477.363   1301.451    477.363    483.583    477.363
 62.570   1151.109   1206.252    -55.143    477.452   1200.360    477.452    483.324    477.452
 62.670    977.000   1082.604   -105.604    477.542   1077.061    477.542    483.084    477.542
 62.770    921.000    957.443    -36.443    477.632    952.219    477.632    482.865    477.632
 62.870    755.000    845.065    -90.065    477.723    840.131    477.723    482.670    477.723
 62.970    743.757    753.072     -9.316    477.814    748.401    477.814    482.497    477.814
 63.070    681.000    683.507     -2.507    477.906    679.075    477.906    482.347    477.906
 63.170    592.830    634.551    -41.721    477.998    630.335    477.998    482.218    477.998
 63.270    586.000    602.370    -16.370    478.090    598.352    478.090    482.109    478.090
 63.370    576.000    582.724     -6.724    478.183    578.887    478.183    482.019    478.183
 63.470    580.000    572.078      7.922    478.277    568.405    478.277    481.946    478.277
 63.570    601.905    568.044     33.862    478.370    564.519    478.370    481.887    478.370
 63.670    585.000    569.539     15.461    478.464    566.150    478.464    481.843    478.464
 63.770    594.000    576.646     17.354    478.558    573.379    478.558    481.811    478.558
 63.870    589.000    590.349     -1.349    478.653    587.191    478.653    481.791    478.653
 63.970    615.000    612.178      2.822    478.748    609.117    478.748    481.780    478.748
 64.070    628.767    643.731    -14.965    478.843    640.756    478.843    481.778    478.843
 64.170    689.000    686.068      2.932    478.939    683.169    478.939    481.785    478.939
 64.270    780.574    739.006     41.568    479.035    736.174    479.035    481.799    479.035
 64.370    787.000    800.407    -13.407    479.131    797.636    479.131    481.819    479.131
 64.470    890.000    865.551     24.449    479.227    862.838    479.227    481.845    479.227
 64.570    896.324    926.884    -30.560    479.324    924.230    479.324    481.877    479.324
 64.670    972.000    974.871     -2.871    479.420    972.278    479.420    481.915    479.420
 64.770   1032.658   1000.732     31.926    479.517    998.205    479.517    481.956    479.517
 64.870   1007.000   1000.063      6.937    479.614    997.606    479.614    482.002    479.614
 64.970    943.662    974.526    -30.864    479.712    972.137    479.712    482.053    479.712
 65.070    933.000    930.584      2.416    479.809    928.261    479.809    482.107    479.809
 65.170    815.000    876.851    -61.851    479.907    874.588    479.907    482.164    479.907
 65.270    837.000    821.372     15.628    480.005    819.162    480.005    482.225    480.005
 65.370    728.813    769.747    -40.934    480.103    767.583    480.103    482.289    480.103
 65.470    721.000    724.671     -3.671    480.201    722.545    480.201    482.357    480.201
 65.570    680.000    686.635     -6.635    480.299    684.541    480.299    482.427    480.299
 65.670    638.000    655.110    -17.110    480.397    653.040    480.397    482.499    480.397
 65.770    626.000    629.427     -3.427    480.495    627.376    480.495    482.575    480.495
 65.870    611.442    608.996      2.445    480.594    606.961    480.594    482.653    480.594
 65.970    593.313    593.213      0.099    480.692    591.191    480.692    482.734    480.692
 66.070    622.574    581.452     41.122    480.790    579.440    480.790    482.817    480.790
 66.170    580.413    573.130      7.283    480.889    571.128    480.889    482.902    480.889
 66.270    575.000    567.760      7.240    480.987    565.766    480.987    482.989    480.987
 66.370    512.000    564.956    -52.956    481.086    562.969    481.086    483.079    481.086
 66.470    604.000    564.435     39.565    481.184    562.454    481.184    483.171    481.184
 66.570    565.000    566.050     -1.050    481.282    564.073    481.282    483.265    481.282
 66.670    545.938    569.856    -23.918    481.381    567.881    481.381    483.361    481.381
 66.770    542.056    576.246    -34.189    481.479    574.271    481.479    483.460    481.479
 66.870    601.091    586.130     14.960    481.577    584.153    481.577    483.560    481.577
 66.970    562.624    601.201    -38.577    481.675    599.219    481.675    483.663    481.675
 67.070    593.000    624.232    -31.232    481.773    622.243    481.773    483.768    481.773
 67.170    701.000    659.352     41.648    481.871    657.352    481.871    483.875    481.871
 67.270    637.000    712.130    -75.130    481.969    710.118    481.969    483.984    481.969
 67.370    787.000    789.273     -2.273    482.066    787.247    482.066    484.096    482.066
 67.470    848.000    897.716    -49.716    482.164    895.677    482.164    484.210    482.164
 67.570   1014.000   1043.037    -29.037    482.261   1040.989    482.261    484.326    482.261
 67.670   1179.000   1227.333    -48.333    482.358   1225.282    482.358    484.445    482.358
 67.770   1428.000   1446.905    -18.905    482.455   1444.861    482.455    484.567    482.455
 67.870   1671.000   1690.201    -19.201    482.551   1688.175    482.551    484.691    482.551
 67.970   1962.000   1936.324     25.676    482.648   1934.329    482.648    484.818    482.648
 68.070   2155.000   2154.667      0.333    482.744   2152.712    482.744    484.949    482.744
 68.170   2354.000   2307.933     46.067    482.840   2306.018    482.840    485.082    482.840
 68.270   2481.000   2362.491    118.509    482.935   2360.599    482.935    485.219    482.935
 68.370   2269.134   2304.577    -35.442    483.031   2302.676    483.031    485.360    483.031
 68.470   2262.000   2148.821    113.179    483.126   2146.873    483.126    485.504    483.126
 68.570   1905.065   1929.272    -24.208    483.220   1927.240    483.220    485.653    483.220
 68.670   1700.000   1683.165     16.835    483.315   1681.024    483.315    485.806    483.315
 68.770   1369.107   1440.807    -71.699    483.409   1438.542    483.409    485.964    483.409
 68.870   1222.544   1222.753     -0.209    483.503   1220.359    483.503    486.127    483.503
 68.970   1046.000   1040.246      5.754    483.596   1037.722    483.596    486.296    483.596
 69.070    827.000    896.739    -69.739    483.689    894.086    483.689    486.471    483.689
 69.170    791.000    789.969      1.031    483.781    787.190    483.781    486.653    483.781
 69.270    733.000    714.264     18.736    483.874    711.361    483.874    486.842    483.874
 69.370    695.000    662.661     32.339    483.965    659.633    483.965    487.040    483.965
 69.470    601.303    628.461    -27.159    484.057    625.306    484.057    487.246    484.057
 69.570    625.653    606.114     19.539    484.148    602.824    484.148    487.462    484.148
 69.670    629.124    591.493     37.631    484.238    588.061    484.238    487.690    484.238
 69.770    589.000    581.795      7.205    484.328    578.210    484.328    487.929    484.328
 69.870    570.000    575.252     -5.252    484.418    571.500    484.418    488.182    484.418
 69.970    554.000    570.815    -16.815    484.507    566.881    484.507    488.451    484.507
 70.070    557.000    567.896    -10.896    484.595    563.764    484.595    488.737    484.595
 70.170    596.000    566.188     29.812    484.683    561.837    484.683    489.042    484.683
 70.270    529.000    565.557    -36.557    484.771    560.964    484.771    489.370    484.771
 70.370    598.202    565.995     32.207    484.858    561.133    484.858    489.724    484.858
 70.470    570.000    567.614      2.386    484.944    562.452    484.944    490.109    484.944
 70.570    589.000    570.689     18.311    485.030    565.191    485.030    490.530    485.030
 70.670    578.000    575.735      2.265    485.115    569.856    485.115    490.994    485.115
 70.770    588.000    583.623      4.377    485.199    577.311    485.199    491.510    485.199
 70.870    630.813    595.734     35.078    485.283    588.922    485.283    492.091    485.283
 70.970    636.587    614.108     22.478    485.367    606.714    485.367    492.751    485.367
 71.070    617.000    641.544    -24.544    485.450    633.467    485.450    493.510    485.450
 71.170    700.090    681.565     18.524    485.532    672.678    485.532    494.393    485.532
 71.270    692.429    738.156    -45.727    485.613    728.302    485.613    495.430    485.613
 71.370    787.433    815.196    -27.764    485.694    804.181    485.694    496.657    485.694
 71.470    950.438    915.589     34.849    485.774    903.176    485.774    498.118    485.774
 71.570   1006.000   1040.171    -34.171    485.853   1026.074    485.853    499.862    485.853
 71.670   1170.443   1186.569    -16.126    485.932   1170.450    485.932    501.945    485.932
 71.770   1386.000   1348.192     37.808    486.010   1329.659    486.010    504.423    486.010
 71.870   1539.143   1513.489     25.654    486.087   1492.094    486.087    507.353    486.087
 71.970   1749.000   1665.746     83.254    486.164   1640.992    486.164    510.790    486.164
 72.070   1745.000   1784.334    -39.334    486.239   1755.687    486.239    514.773    486.239
 72.170   1867.000   1849.028     17.972    486.314   1815.928    486.314    519.327    486.314
 72.270   1891.569   1847.398     44.171    486.388   1809.285    486.388    524.449    486.388
 72.370   1850.882   1780.827     70.055    486.462   1737.175    486.462    530.095    486.462
 72.470   1689.000   1663.691     25.309    486.534   1614.071    486.534    536.165    486.534
 72.570   1527.000   1516.568     10.432    486.606   1460.723    486.606    542.481    486.606
 72.670   1411.487   1359.275     52.211    486.677   1297.229    486.677    548.765    486.677
 72.770   1203.172   1207.231     -4.059    486.747   1139.401    486.747    554.623    486.747
 72.870   1046.000   1070.575    -24.575    486.816    997.873    486.816    559.564    486.816
 72.970    994.245    954.568     39.677    486.885    878.434    486.885    563.061    486.885
 73.070    828.000    860.515    -32.515    486.952    782.831    486.952    564.673    486.952
 73.170    823.000    786.950     36.050    487.019    709.818    487.019    564.182    487.019
 73.270    733.543    730.862      2.681    487.084    656.302    487.084    561.670    487.084
 73.370    716.000    688.716     27.284    487.149    618.399    487.149    557.488    487.149
 73.470    653.000    657.153     -4.153    487.213    592.248    487.213    552.135    487.213
 73.570    640.000    633.358      6.642    487.276    574.518    487.276    546.132    487.276
 73.670    597.000    615.187    -18.187    487.338    562.618    487.338    539.921    487.338
 73.770    591.477    601.129     -9.651    487.399    554.706    487.399    533.835    487.399
 73.870    601.463    590.188     11.275    487.459    549.564    487.459    528.098    487.459
 73.970    543.000    581.736    -38.736    487.518    546.427    487.518    522.844    487.518
 74.070    599.000    575.369     23.631    487.576    544.824    487.576    518.141    487.576
 74.170    569.028    570.795     -1.767    487.633    544.440    487.633    514.012    487.633
 74.270    556.000    567.741    -11.741    487.689    545.015    487.689    510.443    487.689
 74.370    586.000    565.902     20.098    487.744    546.278    487.744    507.401    487.744
 74.470    578.000    564.903     13.097    487.798    547.901    487.798    504.838    487.798
 74.570    631.000    564.289     66.711    487.851    549.485    487.851    502.697    487.851
 74.670    586.000    563.552     22.448    487.903    550.579    487.903    500.922    487.903
 74.770    573.028    562.215     10.813    487.953    550.763    487.953    499.455    487.953
 74.870    620.000    559.978     60.022    488.003    549.786    488.003    498.245    488.003
 74.970    564.879    556.832      8.046    488.052    547.686    488.052    497.244    488.052
 75.070    665.000    553.056    111.944    488.099    544.783    488.099    496.414    488.099
 75.170    587.000    549.102     37.898    488.146    541.564    488.146    495.721    488.146
 75.270    572.000    545.481     26.519    488.191    538.565    488.191    495.137    488.191
 75.370    535.120    542.694     -7.575    488.235    536.311    488.235    494.641    488.235
 75.470    559.366    541.229     18.137    488.278    535.308    488.278    494.216    488.278
 75.570    561.009    541.564     19.445    488.320    536.045    488.320    493.848    488.320
 75.670    504.000    544.166    -40.166    488.360    539.003    488.360    493.526    488.360
 75.770    561.000    549.476     11.524    488.400    544.629    488.400    493.243    488.400
 75.870    554.550    557.859     -3.310    488.438    553.295    488.438    492.993    488.438
 75.970    591.060    569.535     21.525    488.475    565.224    488.475    492.769    488.475
 76.070    604.000    584.481     19.519    488.511    580.398    488.511    492.569    488.511
 76.170    590.000    602.339    -12.339    488.546    598.464    488.546    492.389    488.546
 76.270    633.879    622.319     11.560    488.579    618.632    488.579    492.227    488.579
 76.370    684.788    643.142     41.646    488.612    639.628    488.612    492.080    488.612
 76.470    679.000    662.996     16.004    488.643    659.643    488.643    491.946    488.643
 76.570    670.000    679.604     -9.604    488.672    676.399    488.672    491.825    488.672
 76.670    639.242    690.514    -51.272    488.701    687.449    488.701    491.714    488.701
 76.770    683.119    693.750    -10.630    488.728    690.816    488.728    491.612    488.728
 76.870    709.000    688.593     20.407    488.754    685.784    488.754    491.519    488.754
 76.970    715.000    675.936     39.064    488.778    673.243    488.778    491.433    488.778
 77.070    688.704    657.846     30.858    488.802    655.262    488.802    491.353    488.802
 77.170    597.122    636.764    -39.641    488.824    634.282    488.824    491.280    488.824
 77.270    612.000    614.890     -2.890    488.844    612.503    488.844    491.212    488.844
 77.370    581.000    593.928    -12.928    488.864    591.629    488.864    491.148    488.864
 77.470    565.000    575.038    -10.038    488.882    572.819    488.882    491.089    488.882
 77.570    593.078    558.874     34.204    488.898    556.731    488.898    491.034    488.898
 77.670    493.000    545.664    -52.664    488.913    543.590    488.913    490.981    488.913
 77.770    531.000    535.303     -4.303    488.927    533.294    488.927    490.932    488.927
 77.870    509.000    527.468    -18.468    488.940    525.520    488.940    490.886    488.940
 77.970    537.000    521.725     15.275    488.951    519.833    488.951    490.841    488.951
 78.070    501.000    517.616    -16.616    488.961    515.777    488.961    490.799    488.961
 78.170    527.000    514.724     12.276    488.969    512.933    488.969    490.759    488.969
 78.270    515.076    512.702      2.374    488.976    510.957    488.976    490.720    488.976
 78.370    513.000    511.286      1.714    488.982    509.584    488.982    490.683    488.982
 78.470    517.000    510.287      6.713    488.986    508.626    488.986    490.647    488.986
 78.570    505.000    509.581     -4.581    488.988    507.957    488.988    490.612    488.988
 78.670    502.000    509.089     -7.089    488.990    507.500    488.990    490.579    488.990
 78.770    507.000    508.768     -1.768    488.989    507.212    488.989    490.546    488.989
 78.870    524.321    508.599     15.723    488.988    507.072    488.988    490.514    488.988
 78.970    539.000    508.577     30.423    488.985    507.079    488.985    490.483    488.985
 79.070    491.000    508.712    -17.712    488.980    507.240    488.980    490.453    488.980
 79.170    495.000    509.022    -14.022    488.974    507.573    488.974    490.423    488.974
 79.270    515.000    509.531      5.469    488.966    508.103    488.966    490.394    488.966
 79.370    467.000    510.270    -43.270    488.957    508.861    488.957    490.366    488.957
 79.470    473.645    511.276    -37.631    488.947    509.883    488.947    490.338    488.947
 79.570    544.000    512.596     31.404    488.935    511.218    488.935    490.312    488.935
 79.670    551.511    514.291     37.220    488.921    512.925    488.921    490.285    488.921
 79.770    506.000    516.445    -10.445    488.906    515.088    488.906    490.260    488.906
 79.870    509.521    519.172     -9.651    488.889    517.824    488.889    490.235    488.889
 79.970    528.000    522.627      5.373    488.871    521.286    488.871    490.210    488.871
 80.070    506.806    527.014    -20.207    488.851    525.677    488.851    490.186    488.851
 80.170    529.000    532.585     -3.585    488.830    531.251    488.830    490.161    488.830
 80.270    555.277    539.651     15.626    488.807    538.320    488.807    490.137    488.807
 80.370    536.000    548.571    -12.571    488.783    547.242    488.783    490.111    488.783
 80.470    551.000    559.709     -8.709    488.757    558.383    488.757    490.085    488.757
 80.570    589.000    573.359     15.641    488.729    572.037    488.729    490.056    488.729
 80.670    547.000    589.638    -42.638    488.700    588.322    488.700    490.025    488.700
 80.770    568.307    608.396    -40.089    488.669    607.088    488.669    489.990    488.669
 80.870    621.000    629.144     -8.144    488.637    627.848    488.637    489.951    488.637
 80.970    656.406    651.030      5.376    488.603    649.750    488.603    489.907    488.603
 81.070    689.793    672.886     16.908    488.567    671.626    488.567    489.857    488.567
 81.170    610.000    693.380    -83.380    488.530    692.143    488.530    489.804    488.530
 81.270    758.000    711.229     46.771    488.491    710.019    488.491    489.746    488.491
 81.370    751.000    725.367     25.633    488.451    724.185    488.451    489.684    488.451
 81.470    724.000    735.023    -11.023    488.409    733.870    488.409    489.620    488.409
 81.570    724.000    739.764    -15.764    488.365    738.641    488.365    489.554    488.365
 81.670    783.517    739.527     43.990    488.320    738.431    488.320    489.486    488.320
 81.770    672.000    734.562    -62.562    488.273    733.492    488.273    489.417    488.273
 81.870    750.000    725.321     24.679    488.224    724.274    488.224    489.348    488.224
 81.970    731.858    712.507     19.351    488.174    711.481    488.174    489.278    488.174
 82.070    653.466    697.051    -43.585    488.122    696.043    488.122    489.208    488.122
 82.170    678.000    679.973     -1.973    488.068    678.979    488.068    489.138    488.068
 82.270    623.182    662.263    -39.081    488.013    661.281    488.013    489.067    488.013
 82.370    633.000    644.670    -11.670    487.956    643.697    487.956    488.996    487.956
 82.470    660.320    627.651     32.670    487.898    626.686    487.898    488.925    487.898
 82.570    613.000    611.469      1.531    487.837    610.510    487.837    488.853    487.837
 82.670    601.000    596.340      4.660    487.775    595.385    487.775    488.781    487.775
 82.770    592.000    582.515      9.485    487.712    581.562    487.712    488.708    487.712
 82.870    516.000    570.279    -54.279    487.646    569.327    487.646    488.635    487.646
 82.970    573.000    559.892     13.108    487.579    558.939    487.579    488.561    487.579
 83.070    546.000    551.549     -5.549    487.510    550.594    487.510    488.486    487.510
 83.170    551.000    545.363      5.637    487.440    544.406    487.440    488.410    487.440
 83.270    542.000    541.364      0.636    487.368    540.403    487.368    488.333    487.368
 83.370    559.000    539.491     19.509    487.294    538.526    487.294    488.255    487.294
 83.470    502.000    539.589    -37.589    487.218    538.620    487.218    488.176    487.218
 83.570    520.707    541.401    -20.694    487.141    540.426    487.141    488.096    487.141
 83.670    534.000    544.565    -10.565    487.062    543.586    487.062    488.014    487.062
 83.770    503.000    548.620    -45.620    486.981    547.636    486.981    487.932    486.981
 83.870    565.000    553.013     11.987    486.898    552.024    486.898    487.848    486.898
 83.970    594.157    557.120     37.037    486.814    556.127    486.814    487.762    486.814
 84.070    590.000    560.291     29.709    486.728    559.296    486.728    487.676    486.728
 84.170    540.000    561.948    -21.948    486.641    560.953    486.641    487.588    486.641
 84.270    524.463    561.704    -37.240    486.551    560.709    486.551    487.499    486.551
 84.370    514.090    559.466    -45.376    486.460    558.473    486.460    487.408    486.460
 84.470    558.583    555.458      3.125    486.367    554.469    486.367    487.316    486.367
 84.570    555.657    550.125      5.532    486.272    549.139    486.272    487.222    486.272
 84.670    562.000    543.995     18.005    486.176    543.013    486.176    487.127    486.176
 84.770    581.000    537.575     43.425    486.078    536.596    486.078    487.031    486.078
 84.870    535.000    531.290      3.710    485.978    530.314    485.978    486.933    485.978
 84.970    539.000    525.465     13.535    485.876    524.491    485.876    486.834    485.876
 85.070    540.362    520.316     20.046    485.773    519.342    485.773    486.734    485.773
 85.170    547.696    515.961     31.735    485.668    514.986    485.668    486.632    485.668
 85.270    481.175    512.433    -31.258    485.561    511.457    485.561    486.528    485.561
 85.370    500.000    509.701     -9.701    485.452    508.722    485.452    486.423    485.452
 85.470    491.694    507.694    -15.999    485.341    506.712    485.341    486.317    485.341
 85.570    538.000    506.323     31.677    485.229    505.337    485.229    486.209    485.229
 85.670    526.256    505.500     20.755    485.115    504.510    485.115    486.100    485.115
 85.770    482.000    505.156    -23.156    485.000    504.160    485.000    485.990    485.000
 85.870    524.191    505.246     18.945    484.882    504.244    484.882    485.878    484.882
 85.970    527.000    505.761     21.239    484.763    504.752    484.763    485.765    484.763
 86.070    524.000    506.727     17.273    484.642    505.710    484.642    485.650    484.642
 86.170    476.420    508.204    -31.784    484.519    507.178    484.519    485.534    484.519
 86.270    509.940    510.286     -0.346    484.395    509.250    484.395    485.417    484.395
 86.370    529.000    513.089     15.911    484.269    512.042    484.269    485.298    484.269
 86.470    543.487    516.744     26.744    484.141    515.684    484.141    485.178    484.141
 86.570    513.000    521.380     -8.380    484.011    520.307    484.011    485.057    484.011
 86.670    555.000    527.106     27.894    483.879    526.018    483.879    484.934    483.879
 86.770    527.000    533.987     -6.987    483.746    532.882    483.746    484.810    483.746
 86.870    581.000    542.018     38.982    483.611    540.894    483.611    484.684    483.611
 86.970    519.252    551.096    -31.843    483.474    549.952    483.474    484.558    483.474
 87.070    598.000    560.997     37.003    483.336    559.833    483.336    484.430    483.336
 87.170    601.000    571.362     29.638    483.195    570.176    483.195    484.301    483.195
 87.270    568.741    581.681    -12.940    483.053    580.474    483.053    484.171    483.053
 87.370    604.000    591.307     12.693    482.910    590.080    482.910    484.040    482.910
 87.470    595.000    599.487     -4.487    482.764    598.241    482.764    483.907    482.764
 87.570    646.000    605.460     40.540    482.617    604.198    482.617    483.773    482.617
 87.670    637.000    608.614     28.386    482.468    607.338    482.468    483.639    482.468
 87.770    635.000    608.661     26.339    482.317    607.375    482.317    483.503    482.317
 87.870    606.000    605.731      0.269    482.165    604.438    482.165    483.366    482.165
 87.970    575.594    600.325    -24.731    482.011    599.026    482.011    483.228    482.011
 88.070    601.000    593.173      7.827    481.855    591.869    481.855    483.090    481.855
 88.170    542.362    585.092    -42.730    481.697    583.782    481.697    482.950    481.697
 88.270    576.151    576.874     -0.724    481.538    575.558    481.538    482.810    481.538
 88.370    556.422    569.237    -12.815    481.377    567.912    481.377    482.668    481.377
 88.470    591.000    562.775     28.225    481.214    561.441    481.214    482.527    481.214
 88.570    562.000    557.938      4.062    481.050    556.591    481.050    482.384    481.050
 88.670    570.000    555.007     14.993    480.883    553.647    480.883    482.241    480.883
 88.770    608.000    554.093     53.907    480.715    552.717    480.715    482.097    480.715
 88.870    582.000    555.136     26.864    480.546    553.743    480.546    481.953    480.546
 88.970    520.380    557.918    -37.537    480.375    556.506    480.375    481.809    480.375
 89.070    565.000    562.072      2.928    480.202    560.641    480.202    481.664    480.202
 89.170    571.000    567.109      3.891    480.027    565.655    480.027    481.520    480.027
 89.270    587.000    572.430     14.570    479.851    570.952    479.851    481.375    479.851
 89.370    612.573    577.367     35.206    479.673    575.862    479.673    481.230    479.673
 89.470    572.000    581.229     -9.229    479.493    579.695    479.493    481.086    479.493
 89.570    591.000    583.399      7.601    479.311    581.832    479.311    480.942    479.311
 89.670    587.000    583.445      3.555    479.128    581.841    479.128    480.800    479.128
 89.770    559.056    581.224    -22.168    478.944    579.578    478.944    480.658    478.944
 89.870    573.586    576.906     -3.320    478.757    575.212    478.757    480.517    478.757
 89.970    569.291    570.902     -1.611    478.569    569.155    478.569    480.378    478.569
 90.070    529.000    563.745    -34.745    478.380    561.941    478.380    480.241    478.380
 90.170    530.000    555.982    -25.982    478.189    554.115    478.189    480.106    478.189
 90.270    540.000    548.104     -8.104    477.996    546.169    477.996    479.975    477.996
 90.370    498.317    540.514    -42.197    477.801    538.505    477.801    479.847    477.801
 90.470    565.308    533.516     31.792    477.605    531.428    477.605    479.724    477.605
 90.570    512.000    527.317    -15.317    477.407    525.144    477.407    479.606    477.407
 90.670    522.000    522.033     -0.033    477.208    519.766    477.208    479.495    477.208
 90.770    506.000    517.703    -11.703    477.007    515.334    477.007    479.391    477.007
 90.870    518.000    514.303      3.697    476.805    511.823    476.805    479.297    476.805
 90.970    481.000    511.771    -30.771    476.601    509.167    476.601    479.213    476.601
 91.070    491.596    510.022    -18.427    476.395    507.282    476.395    479.142    476.395
 91.170    496.000    508.971    -12.971    476.188    506.078    476.188    479.085    476.188
 91.270    519.911    508.541     11.370    475.979    505.478    475.979    479.045    475.979
 91.370    477.271    508.684    -31.413    475.769    505.429    475.769    479.024    475.769
 91.470    493.000    509.381    -16.381    475.557    505.912    475.557    479.025    475.557
 91.570    553.717    510.650     43.067    475.343    506.942    475.343    479.050    475.343
 91.670    499.000    512.551    -13.551    475.128    508.573    475.128    479.103    475.128
 91.770    497.310    515.178    -17.869    474.912    510.901    474.912    479.185    474.912
 91.870    497.000    518.664    -21.664    474.694    514.052    474.694    479.299    474.694
 91.970    558.000    523.168     34.832    474.475    518.185    474.475    479.449    474.475
 92.070    487.000    528.868    -41.868    474.254    523.474    474.254    479.635    474.254
 92.170    584.000    535.947     48.053    474.031    530.102    474.031    479.860    474.031
 92.270    564.640    544.577     20.063    473.807    538.239    473.807    480.126    473.807
 92.370    570.164    554.898     15.265    473.582    548.024    473.582    480.431    473.582
 92.470    562.633    567.001     -4.369    473.355    559.550    473.355    480.777    473.355
 92.570    568.000    580.905    -12.905    473.127    572.835    473.127    481.161    473.127
 92.670    553.000    596.537    -43.537    472.897    587.814    472.897    481.579    472.897
 92.770    601.000    613.721    -12.721    472.666    604.313    472.666    482.027    472.666
 92.870    597.000    632.153    -35.153    472.434    622.038    472.434    482.496    472.434
 92.970    672.744    651.401     21.343    472.200    640.568    472.200    482.976    472.200
 93.070    645.000    670.956    -25.956    471.965    659.408    471.965    483.451    471.965
 93.170    693.594    690.177      3.417    471.728    677.936    471.728    483.904    471.728
 93.270    698.194    708.442    -10.247    471.490    695.552    471.490    484.312    471.490
 93.370    706.000    725.253    -19.253    471.251    711.785    471.251    484.651    471.251
 93.470    755.434    740.352     15.082    471.010    726.401    471.010    484.894    471.010
 93.570    671.000    753.753    -82.753    470.768    739.439    470.768    485.016    470.768
 93.670    795.000    765.686     29.314    470.525    751.148    470.525    484.998    470.525
 93.770    817.470    776.466     41.003    470.280    761.856    470.280    484.827    470.280
 93.870    789.000    786.381      2.619    470.034    771.855    470.034    484.500    470.034
 93.970    797.000    795.649      1.351    469.787    781.355    469.787    484.023    469.787
 94.070    831.000    804.451     26.549    469.538    790.521    469.538    483.414    469.538
 94.170    848.000    812.991     35.009    469.289    799.535    469.289    482.694    469.289
 94.270    808.000    821.525    -13.525    469.038    808.626    469.038    481.889    469.038
 94.370    780.771    830.295    -49.524    468.785    818.010    468.785    481.025    468.785
 94.470    862.000    839.404     22.596    468.532    827.768    468.532    480.126    468.532
 94.570    870.779    848.684     22.095    468.277    837.710    468.277    479.214    468.277
 94.670    846.574    857.615    -11.042    468.022    847.299    468.022    478.305    468.022
 94.770    912.683    865.324     47.359    467.765    855.650    467.765    477.412    467.765
 94.870    890.000    870.663     19.337    467.506    861.604    467.506    476.545    467.506
 94.970    871.000    872.381     -1.381    467.247    863.904    467.247    475.711    467.247
 95.070    853.516    869.373    -15.857    466.987    861.439    466.987    474.915    466.987
 95.170    863.831    860.968      2.863    466.725    853.536    466.725    474.159    466.725
 95.270    909.000    847.147     61.853    466.463    840.172    466.463    473.446    466.463
 95.370    863.000    828.584     34.416    466.199    822.023    466.199    472.775    466.199
 95.470    821.000    806.520     14.480    465.934    800.328    465.934    472.146    465.934
 95.570    793.000    782.537     10.463    465.668    776.669    465.668    471.557    465.668
 95.670    772.000    758.326     13.674    465.401    752.742    465.401    471.008    465.401
 95.770    808.000    735.557     72.443    465.134    730.217    465.134    470.494    465.134
 95.870    667.887    715.797    -47.910    464.865    710.665    464.865    470.015    464.865
 95.970    745.000    700.465     44.535    464.595    695.507    464.595    469.568    464.595
 96.070    730.180    690.817     39.363    464.324    686.000    464.324    469.150    464.324
 96.170    705.000    687.926     17.074    464.052    683.223    464.052    468.760    464.052
 96.270    711.000    692.682     18.318    463.779    688.067    463.779    468.393    463.779
 96.370    705.000    705.777     -0.777    463.506    701.226    463.506    468.049    463.506
 96.470    678.000    727.660    -49.660    463.231    723.151    463.231    467.726    463.231
 96.570    799.000    758.627     40.373    462.956    754.140    462.956    467.421    462.956
 96.670    810.000    798.678     11.322    462.679    794.196    462.679    467.133    462.679
 96.770    865.000    847.432     17.568    462.402    842.939    462.402    466.862    462.402
 96.870    894.000    904.146    -10.146    462.124    899.627    462.124    466.605    462.124
 96.970    909.000    967.632    -58.632    461.845    963.073    461.845    466.362    461.845
 97.070   1066.002   1036.201     29.801    461.566   1031.589    461.566    466.132    461.566
 97.170   1086.000   1107.625    -21.625    461.285   1102.948    461.285    465.916    461.285
 97.270   1208.000   1179.131     28.869    461.004   1174.379    461.004    465.714    461.004
 97.370   1288.360   1247.442     40.918    460.722   1242.603    460.722    465.525    460.722
 97.470   1263.845   1308.851    -45.005    460.440   1303.913    460.440    465.350    460.440
 97.570   1401.000   1359.500     41.500    460.156   1354.452    460.156    465.190    460.156
 97.670   1468.038   1395.818     72.220    459.872   1390.646    459.872    465.047    459.872
 97.770   1351.000   1415.106    -64.106    459.588   1409.793    459.588    464.921    459.588
 97.870   1438.779   1416.087     22.692    459.303   1410.613    459.303    464.816    459.303
 97.970   1382.000   1399.172    -17.172    459.017   1393.514    459.017    464.733    459.017
 98.070   1298.748   1366.311    -67.563    458.730   1360.441    458.730    464.674    458.730
 98.170   1326.000   1320.532      5.468    458.443   1314.416    458.443    464.645    458.443
 98.270   1243.000   1265.408    -22.408    458.155   1259.010    458.155    464.648    458.155
 98.370   1245.055   1204.625     40.429    457.867   1197.904    457.867    464.688    457.867
 98.470   1201.175   1141.710     59.464    457.579   1134.618    457.579    464.770    457.579
 98.570   1121.805   1079.873     41.933    457.289   1072.356    457.289    464.902    457.289
 98.670   1084.077   1021.934     62.143    457.000   1013.936    457.000    465.088    457.000
 98.770    999.961    970.308     29.653    456.710    961.763    456.710    465.337    456.710
 98.870    915.000    927.007    -12.007    456.419    917.843    456.419    465.656    456.419
 98.970    906.000    893.664     12.336    456.128    883.800    456.128    466.055    456.128
 99.070    883.000    871.559     11.441    455.837    860.907    455.837    466.543    455.837
 99.170    893.667    861.644     32.023    455.545    850.107    455.545    467.128    455.545
 99.270    872.823    864.570      8.253    455.253    852.040    455.253    467.820    455.253
 99.370    923.000    880.703     42.297    454.961    867.066    454.961    468.630    454.961
 99.470    898.000    910.139    -12.139    454.669    895.270    454.669    469.565    454.669
 99.570    976.000    952.696     23.304    454.376    936.464    454.376    470.634    454.376
 99.670    994.000   1007.892    -13.892    454.083    990.157    454.083    471.844    454.083
 99.770   1056.500   1074.908    -18.408    453.789   1055.526    453.789    473.201    453.789
 99.870   1128.174   1152.538    -24.363    453.496   1131.362    453.496    474.709    453.496
 99.970   1262.000   1239.139     22.861    453.202   1216.020    453.202    476.369    453.202
100.070   1288.491   1332.578    -44.088    452.908   1307.371    452.908    478.179    452.908
100.170   1400.000   1430.200    -30.200    452.615   1402.763    452.615    480.133    452.615
100.270   1552.000   1528.902     23.098    452.321   1499.105    452.321    482.221    452.321
100.370   1582.883   1625.201    -42.317    452.027   1592.930    452.027    484.426    452.027
100.470   1758.588   1715.471     43.117    451.732   1680.635    451.732    486.726    451.732
100.570   1801.000   1796.297      4.703    451.438   1758.835    451.438    489.089    451.438
100.670   1886.000   1864.782     21.218    451.144   1824.672    451.144    491.473    451.144
100.770   1943.000   1918.721     24.279    450.850   1875.990    450.850    493.828    450.850
100.870   2009.000   1956.566     52.434    450.556   1911.306    450.556    496.090    450.556
100.970   1928.938   1977.273    -48.334    450.262   1929.647    450.262    498.184    450.262
101.070   1903.019   1980.195    -77.176    449.969   1930.448    449.969    500.029    449.969
101.170   2021.000   1965.166     55.834    449.675   1913.628    449.675    501.539    449.675
101.270   1912.000   1932.770    -20.770    449.382   1879.851    449.382    502.633    449.382
101.370   1913.156   1884.621     28.535    449.089   1830.802    449.089    503.241    449.089
101.470   1776.000   1823.447    -47.447    448.796   1769.256    448.796    503.314    448.796
101.570   1746.995   1752.858     -5.863    448.503   1698.843    448.503    502.834    448.503
101.670   1654.000   1676.888    -22.888    448.210   1623.588    448.210    501.811    448.210
101.770   1620.104   1599.492     20.611    447.918   1547.407    447.918    500.287    447.918
101.870   1468.822   1524.144    -55.322    447.627   1473.709    447.627    498.324    447.627
101.970   1505.000   1453.596     51.404    447.335   1405.171    447.335    496.003    447.335
102.070   1361.000   1389.784    -28.784    447.044   1343.643    447.044    493.408    447.044
102.170   1332.000   1333.812     -1.812    446.754   1290.145    446.754    490.624    446.754
102.270   1284.258   1285.989     -1.732    446.464   1244.914    446.464    487.727    446.464
102.370   1311.730   1245.899     65.831    446.174   1207.464    446.174    484.783    446.174
102.470   1240.000   1212.486     27.514    445.885   1176.686    445.885    481.848    445.885
102.570   1156.000   1184.173    -28.173    445.597   1150.958    445.597    478.965    445.597
102.670   1166.000   1159.029      6.971    445.309   1128.316    445.309    476.169    445.309
102.770   1197.373   1134.990     62.383    445.022   1106.669    445.022    473.486    445.022
102.870   1069.144   1110.136    -40.991    444.735   1084.078    444.735    470.933    444.735
102.970   1097.315   1082.949     14.366    444.449   1059.014    444.449    468.522    444.449
103.070   1068.000   1052.513     15.487    444.164   1030.551    444.164    466.261    444.164
103.170   1040.348   1018.574     21.774    443.880    998.433    443.880    464.153    443.880
103.270   1032.000    981.461     50.539    443.596    962.988    443.596    462.196    443.596
103.370    970.817    941.911     28.905    443.313    924.957    443.313    460.389    443.313
103.470    882.000    900.874    -18.874    443.031    885.294    443.031    458.726    443.031
103.570    814.396    859.361    -44.965    442.750    845.017    442.750    457.200    442.750
103.670    782.987    818.337    -35.350    442.470    805.101    442.470    455.804    442.470
103.770    742.764    778.667    -35.903    442.191    766.418    442.191    454.528    442.191
103.870    763.000    741.076     21.924    441.913    729.704    441.913    453.363    441.913
103.970    752.660    706.136     46.524    441.636    695.541    441.636    452.300    441.636
104.070    716.000    674.258     41.742    441.359    664.349    441.359    451.329    441.359
104.170    693.000    645.689     47.311    441.084    636.385    441.084    450.441    441.084
104.270    624.000    620.519      3.481    440.810    611.746    440.810    449.628    440.810
104.370    669.000    598.721     70.279    440.538    590.416    440.538    448.881    440.538
104.470    553.000    580.172    -27.172    440.266    572.278    440.266    448.192    440.266
104.570    522.613    564.636    -42.023    439.996    557.103    439.996    447.555    439.996
104.670    551.000    551.834     -0.834    439.727    544.619    439.727    446.964    439.727
104.770    572.000    541.466     30.534    439.459    534.531    439.459    446.412    439.459
104.870    533.000    533.228     -0.228    439.192    526.539    439.192    445.896    439.192
104.970    531.667    526.832      4.835    438.927    520.361    438.927    445.410    438.927
105.070    551.000    522.021     28.979    438.664    515.743    438.664    444.951    438.664
105.170    529.000    518.577     10.423    438.402    512.470    438.402    444.516    438.402
105.270    511.000    516.328     -5.328    438.141    510.371    438.141    444.102    438.141
105.370    553.000    515.143     37.857    437.882    509.319    437.882    443.708    437.882
105.470    539.000    514.937     24.063    437.624    509.232    437.624    443.330    437.624
105.570    518.000    515.664      2.336    437.368    510.062    437.368    442.968    437.368
105.670    550.000    517.310     32.690    437.114    511.800    437.114    442.620    437.114
105.770    527.000    519.892      7.108    436.861    514.462    436.861    442.285    436.861
105.870    552.000    523.445     28.555    436.610    518.085    436.610    441.962    436.610
105.970    558.000    528.018     29.982    436.361    522.718    436.361    441.651    436.361
106.070    535.000    533.662      1.338    436.113    528.413    436.113    441.350    436.113
106.170    530.000    540.420    -10.420    435.868    535.213    435.868    441.059    435.868
106.270    567.809    548.313     19.496    435.624    543.141    435.624    440.778    435.624
106.370    565.000    557.329      7.671    435.382    552.184    435.382    440.506    435.382
106.470    606.000    567.418     38.582    435.142    562.293    435.142    440.243    435.142
106.570    578.000    578.477     -0.477    434.904    573.366    434.904    439.989    434.904
106.670    635.114    590.352     44.761    434.669    585.248    434.669    439.743    434.669
106.770    629.000    602.834     26.166    434.435    597.731    434.435    439.506    434.435
106.870    597.000    615.658    -18.658    434.203    610.550    434.203    439.277    434.203
106.970    630.000    628.505      1.495    433.974    623.388    433.974    439.056    433.974
107.070    673.000    641.016     31.984    433.747    635.883    433.747    438.843    433.747
107.170    617.000    652.795    -35.795    433.522    647.642    433.522    438.638    433.522
107.270    685.679    663.442     22.237    433.299    658.264    433.299    438.442    433.299
107.370    663.000    672.582     -9.582    433.079    667.374    433.079    438.253    433.079
107.470    696.000    679.916     16.084    432.861    674.673    432.861    438.072    432.861
107.570    717.295    685.272     32.024    432.645    679.989    432.645    437.900    432.645
107.670    723.390    688.638     34.753    432.432    683.310    432.432    437.735    432.432
107.770    656.000    690.176    -34.176    432.222    684.797    432.222    437.579    432.222
107.870    650.000    690.194    -40.194    432.014    684.759    432.014    437.432    432.014
107.970    659.000    689.093    -30.093    431.808    683.597    431.808    437.293    431.808
108.070    722.217    687.311     34.906    431.606    681.746    431.606    437.162    431.606
108.170    662.674    685.262    -22.588    431.406    679.623    431.406    437.041    431.406
108.270    684.683    683.302      1.380    431.208    677.582    431.208    436.929    431.208
108.370    687.895    681.699      6.197    431.014    675.891    431.014    436.826    431.014
108.470    676.077    680.618     -4.541    430.822    674.715    430.822    436.733    430.822
108.570    643.453    680.117    -36.663    430.633    674.113    430.633    436.650    430.633
108.670    613.000    680.144    -67.144    430.447    674.030    430.447    436.577    430.447
108.770    674.710    680.539     -5.829    430.264    674.309    430.264    436.515    430.264
108.870    660.000    681.050    -21.050    430.084    674.694    430.084    436.464    430.084
108.970    650.000    681.344    -31.344    429.908    674.854    429.908    436.424    429.908
109.070    705.163    681.046     24.117    429.734    674.413    429.734    436.397    429.734
109.170    671.000    679.778     -8.778    429.563    672.991    429.563    436.383    429.563
109.270    683.000    677.207      5.793    429.396    670.256    429.396    436.382    429.396
109.370    717.567    673.097     44.469    429.232    665.972    429.232    436.395    429.232
109.470    653.895    667.356    -13.461    429.071    660.043    429.071    436.423    429.071
109.570    656.000    660.021     -4.021    428.914    652.506    428.914    436.467    428.914
109.670    640.000    651.260    -11.260    428.760    643.530    428.760    436.528    428.760
109.770    675.000    641.334     33.666    428.609    633.374    428.609    436.607    428.609
109.870    651.656    630.558     21.098    428.462    622.350    428.462    436.706    428.462
109.970    642.000    619.261     22.739    428.318    610.788    428.318    436.826    428.318
110.070    655.799    607.761     48.038    428.178    599.002    428.178    436.970    428.178
110.170    572.000    596.356    -24.356    428.042    587.289    428.042    437.139    428.042
110.270    594.106    585.316      8.789    427.910    575.918    427.910    437.335    427.910
110.370    567.000    574.859     -7.859    427.781    565.102    427.781    437.562    427.781
110.470    588.000    565.162     22.838    427.656    555.018    427.656    437.822    427.656
110.570    589.398    556.365     33.034    427.535    545.799    427.535    438.119    427.535
110.670    542.000    548.563     -6.563    427.418    537.540    427.418    438.457    427.418
110.770    571.722    541.814     29.907    427.304    530.293    427.304    438.840    427.304
110.870    587.000    536.142     50.858    427.195    524.075    427.195    439.273    427.195
110.970    550.000    531.537     18.463    427.090    518.874    427.090    439.762    427.090
111.070    585.000    527.967     57.033    426.989    514.651    426.989    440.313    426.989
111.170    545.000    525.379     19.621    426.892    511.344    426.892    440.932    426.892
111.270    498.382    523.706    -25.324    426.800    508.882    426.800    441.627    426.800
111.370    531.441    522.877      8.565    426.711    507.184    426.711    442.406    426.711
111.470    527.000    522.814      4.186    426.627    506.164    426.627    443.278    426.627
111.570    528.954    523.441      5.512    426.548    505.738    426.548    444.251    426.548
111.670    523.000    524.688     -1.688    426.473    505.823    426.473    445.337    426.473
111.770    552.000    526.490     25.510    426.402    506.346    426.402    446.544    426.402
111.870    529.000    528.791      0.209    426.336    507.240    426.336    447.884    426.336
111.970    574.000    531.543     42.457    426.275    508.447    426.275    449.368    426.275
112.070    547.913    534.713     13.200    426.218    509.920    426.218    451.007    426.218
112.170    515.000    538.275    -23.275    426.166    511.625    426.166    452.812    426.166
112.270    506.000    542.218    -36.218    426.119    513.537    426.119    454.795    426.119
112.370    513.745    546.540    -32.795    426.077    515.647    426.077    456.965    426.077
112.470    547.000    551.255     -4.255    426.039    517.955    426.039    459.334    426.039
112.570    543.000    556.385    -13.385    426.007    520.476    426.007    461.910    426.007
112.670    507.000    561.963    -54.963    425.980    523.236    425.980    464.701    425.980
112.770    551.102    568.034    -16.932    425.957    526.272    425.957    467.713    425.957
112.870    610.891    574.652     36.238    425.940    529.635    425.940    470.951    425.940
112.970    571.000    581.886    -10.886    425.928    533.392    425.928    474.417    425.928
113.070    551.000    589.820    -38.820    425.922    537.625    425.922    478.109    425.922
113.170    595.000    598.559     -3.559    425.920    542.446    425.920    482.026    425.920
113.270    594.000    608.236    -14.236    425.924    547.995    425.924    486.158    425.924
113.370    553.000    619.021    -66.021    425.934    554.452    425.934    490.494    425.934
113.470    624.356    631.129     -6.773    425.949    562.050    425.949    495.018    425.949
113.570    601.000    644.837    -43.837    425.969    571.088    425.969    499.706    425.969
113.670    640.676    660.495    -19.819    425.996    581.947    425.996    504.530    425.996
113.770    605.000    678.546    -73.546    426.027    595.104    426.027    509.452    426.027
113.870    724.965    699.544     25.421    426.065    611.161    426.065    514.428    426.065
113.970    698.000    724.174    -26.174    426.108    630.855    426.108    519.402    426.108
114.070    741.239    753.273    -12.034    426.158    655.088    426.158    524.311    426.158
114.170    750.000    787.846    -37.846    426.213    684.941    426.213    529.080    426.213
114.270    831.000    829.085      1.915    426.274    721.689    426.274    533.624    426.274
114.370    844.000    878.382    -34.382    426.342    766.815    426.342    537.851    426.342
114.470    934.000    937.326     -3.326    426.415    822.005    426.415    541.666    426.415
114.570    969.787   1007.701    -37.915    426.495    889.142    426.495    544.970    426.495
114.670   1126.000   1091.467     34.533    426.581    970.275    426.581    547.670    426.581
114.770   1218.000   1190.716     27.284    426.673   1067.581    426.673    549.687    426.673
114.870   1245.000   1307.625    -62.625    426.772   1183.298    426.772    550.954    426.772
114.970   1491.000   1444.371     46.629    426.877   1319.646    426.877    551.434    426.877
115.070   1579.776   1603.037    -23.260    426.988   1478.719    426.988    551.111    426.988
115.170   1755.656   1785.487    -29.831    427.107   1662.368    427.107    550.002    427.107
115.270   2051.000   1993.232     57.768    427.231   1872.062    427.231    548.148    427.231
115.370   2307.000   2227.280     79.720    427.363   2108.745    427.363    545.615    427.363
115.470   2633.000   2487.974    145.026    427.501   2372.680    427.501    542.485    427.501
115.570   2830.000   2774.818     55.182    427.647   2663.277    427.647    538.852    427.647
115.670   2979.944   3086.528   -106.584    427.799   2979.156    427.799    534.812    427.799
115.770   3433.905   3420.626     13.279    427.958   3317.743    427.958    530.463    427.958
115.870   3767.000   3773.556     -6.556    428.124   3675.395    428.124    525.897    428.124
115.970   4022.000   4140.612   -118.612    428.298   4047.321    428.298    521.197    428.298
116.070   4441.000   4515.929    -74.929    428.478   4427.586    428.478    516.436    428.478
116.170   4843.960   4892.532    -48.572    428.666   4809.150    428.666    511.680    428.666
116.270   5309.000   5262.420     46.580    428.861   5183.960    428.861    506.982    428.861
116.370   5563.000   5616.712    -53.712    429.064   5543.092    429.064    502.388    429.064
116.470   5850.000   5945.868    -95.868    429.274   5876.968    429.274    497.932    429.274
116.570   6222.000   6240.004    -18.004    429.492   6175.678    429.492    493.646    429.492
116.670   6575.000   6489.347     85.653    429.717   6429.423    429.717    489.549    429.717
116.770   6536.540   6684.824   -148.283    429.950   6629.113    429.950    485.660    429.950
116.870   6719.528   6818.774    -99.246    430.191   6767.074    430.191    481.990    430.191
116.970   6967.000   6885.680     81.320    430.439   6837.775    430.439    478.546    430.439
117.070   6943.000   6882.774     60.226    430.696   6838.443    430.696    475.333    430.696
117.170   6864.000   6810.368     53.632    430.960   6769.382    430.960    472.349    430.960
117.270   6679.000   6671.804      7.196    431.233   6633.932    431.233    469.594    431.233
117.370   6425.000   6473.050    -48.050    431.513   6438.064    431.513    467.063    431.513
117.470   6269.000   6222.045     46.955    431.802   6189.721    431.802    464.750    431.802
117.570   5720.000   5927.966   -207.966    432.099   5898.085    432.099    462.646    432.099
117.670   5421.000   5600.535   -179.535    432.405   5572.887    432.405    460.744    432.405
117.770   5176.000   5249.462    -73.462    432.719   5223.849    432.719    459.032    432.719
117.870   4968.303   4884.027     84.276    433.041   4860.264    433.041    457.501    433.041
117.970   4435.309   4512.791    -77.482    433.372   4490.703    433.372    456.139    433.372
118.070   4174.329   4143.397     30.932    433.712   4122.823    433.712    454.935    433.712
118.170   3865.000   3782.446     82.554    434.060   3763.240    434.060    453.879    434.060
118.270   3398.878   3435.430    -36.552    434.417   3417.456    434.417    452.959    434.417
118.370   3137.000   3106.706     30.294    434.783   3089.843    434.783    452.165    434.783
118.470   2879.000   2799.523     79.477    435.158   2783.662    435.158    451.487    435.158
118.570   2436.000   2516.081    -80.081    435.542   2501.124    435.542    450.915    435.542
118.670   2167.345   2257.628    -90.283    435.936   2243.487    435.936    450.439    435.936
118.770   2034.000   2024.569      9.431    436.338   2011.168    436.338    450.053    436.338
118.870   1783.000   1816.597    -33.597    436.750   1803.867    436.750    449.746    436.750
118.970   1656.000   1632.825     23.175    437.171   1620.705    437.171    449.514    437.171
119.070   1507.975   1471.911     36.064    437.601   1460.349    437.601    449.348    437.601
119.170   1378.000   1332.193     45.807    438.041   1321.141    438.041    449.244    438.041
119.270   1230.675   1211.794     18.881    438.491   1201.211    438.491    449.196    438.491
119.370   1081.000   1108.739    -27.739    438.950   1098.587    438.950    449.199    438.950
119.470    970.251   1021.035    -50.784    439.419   1011.282    439.419    449.248    439.419
119.570    948.000    946.750      1.250    439.898    937.365    439.898    449.342    439.898
119.670    925.000    884.062     40.938    440.387    875.019    440.387    449.475    440.387
119.770    836.000    831.303      4.697    440.885    822.578    440.885    449.646    440.885
119.870    743.813    786.976    -43.163    441.394    778.546    441.394    449.851    441.394
119.970    716.000    749.765    -33.765    441.913    741.611    441.913    450.089    441.913
120.070    706.634    718.535    -11.901    442.442    710.637    442.442    450.358    442.442
120.170    712.000    692.320     19.680    442.982    684.660    442.982    450.656    442.982
120.270    646.000    670.308    -24.308    443.532    662.870    443.532    450.982    443.532
120.370    674.000    651.827     22.173    444.092    644.596    444.092    451.335    444.092
120.470    614.067    636.326    -22.259    444.664    629.286    444.664    451.714    444.664
120.570    591.785    623.354    -31.569    445.245    616.492    445.245    452.117    445.245
120.670    640.671    612.547     28.123    445.838    605.850    445.838    452.545    445.838
120.770    576.000    603.611    -27.611    446.441    597.066    446.441    452.996    446.441
120.870    538.000    596.308    -58.308    447.055    589.904    447.055    453.471    447.055
120.970    600.000    590.447      9.553    447.681    584.171    447.681    453.967    447.681
121.070    551.994    585.871    -33.876    448.317    579.714    448.317    454.486    448.317
121.170    618.518    582.453     36.066    448.964    576.404    448.964    455.027    448.964
121.270    635.000    580.086     54.914    449.623    574.135    449.623    455.588    449.623
121.370    552.000    578.680    -26.680    450.293    572.817    450.293    456.171    450.293
121.470    562.000    578.154    -16.154    450.975    572.371    450.975    456.775    450.975
121.570    560.000    578.438    -18.438    451.668    572.725    451.668    457.399    451.668
121.670    542.000    579.461    -37.461    452.373    573.810    452.373    458.043    452.373
121.770    577.000    581.157     -4.157    453.089    575.561    453.089    458.706    453.089
121.870    543.380    583.457    -40.076    453.818    577.908    453.818    459.389    453.818
121.970    580.000    586.290     -6.290    454.558    580.782    454.558    460.091    454.558
122.070    606.145    589.581     16.564    455.310    584.106    455.310    460.812    455.310
122.170    593.000    593.247     -0.247    456.074    587.801    456.074    461.551    456.074
122.270    543.000    597.202    -54.202    456.850    591.778    456.850    462.308    456.850
122.370    613.000    601.352     11.648    457.639    595.946    457.639    463.081    457.639
122.470    621.000    605.596     15.404    458.440    600.203    458.440    463.871    458.440
122.570    617.000    609.828      7.172    459.253    604.446    459.253    464.677    459.253
122.670    627.000    613.936     13.064    460.079    608.562    460.079    465.498    460.079
122.770    631.649    617.805     13.844    460.918    612.437    460.918    466.333    460.918
122.870    663.051    621.299     41.751    461.769    615.938    461.769    467.180    461.769
122.970    598.000    624.343    -26.343    462.633    618.988    462.633    468.040    462.633
123.070    600.000    626.848    -26.848    463.510    621.502    463.510    468.910    463.510
123.170    603.000    628.719    -25.719    464.400    623.384    464.400    469.790    464.400
123.270    666.000    629.892     36.108    465.303    624.573    465.303    470.679    465.303
123.370    627.487    630.336     -2.848    466.219    625.038    466.219    471.575    466.219
123.470    663.094    630.042     33.052    467.149    624.771    467.149    472.478    467.149
123.570    644.853    629.030     15.823    468.091    623.794    468.091    473.386    468.091
123.670    676.060    627.341     48.719    469.048    622.148    469.048    474.299    469.048
123.770    624.000    625.035     -1.035    470.018    619.893    470.018    475.216    470.018
123.870    645.490    622.183     23.308    471.001    617.100    471.001    476.138    471.001
123.970    647.119    618.862     28.257    471.999    613.848    471.999    477.064    471.999
124.070    662.000    615.154     46.846    473.010    610.218    473.010    477.995    473.010
124.170    634.000    611.140     22.860    474.035    606.290    474.035    478.932    474.035
124.270    651.564    606.899     44.665    475.074    602.142    475.074    479.875    475.074
124.370    593.000    602.505     -9.505    476.127    597.848    476.127    480.825    476.127
124.470    632.000    598.027     33.973    477.195    593.475    477.195    481.784    477.195
124.570    634.969    593.526     41.443    478.277    589.085    478.277    482.753    478.277
124.670    565.631    589.057    -23.426    479.373    584.730    479.373    483.732    479.373
124.770    562.000    584.667    -22.667    480.484    580.457    480.484    484.723    480.484
124.870    624.000    580.395     43.605    481.610    576.303    481.610    485.728    481.610
124.970    604.000    576.273     27.727    482.750    572.299    482.750    486.746    482.750
