neutron_powder_diffraction_0092
R_wp: 4.086
Temperature (K): 850.209
Counts: 84234.00
Wavelength (Ã…): 2.52098
COMMENTS
Test file for demonstrating the .xyy file format in Reel1.0
END OF HEADER
   tth       Y_obs     Y_calc      Y_res    Background    Phase_1_Nuc    Phase_1_Mag    Phase_2_Nuc    Phase_2_Mag
  9.970    634.000    548.316     85.684    546.716    547.905    546.716    547.051    546.791
 10.070    591.108    549.050     42.058    547.349    548.638    547.349    547.685    547.424
 10.170    634.000    549.787     84.213    547.968    549.372    547.968    548.306    548.045
 10.270    572.000    550.528     21.472    548.576    550.111    548.576    548.915    548.653
 10.370    563.000    551.278     11.722    549.171    550.859    549.171    549.511    549.249
 10.470    589.000    552.040     36.960    549.754    551.619    549.754    550.096    549.832
 10.570    583.000    552.822     30.178    550.324    552.398    550.324    550.668    550.404
 10.670    606.000    553.630     52.370    550.883    553.204    550.883    551.228    550.963
 10.770    545.000    554.476     -9.476    551.429    554.047    551.429    551.776    551.510
 10.870    584.000    555.372     28.628    551.964    554.941    551.964    552.312    552.046
 10.970    579.000    556.337     22.663    552.487    555.904    552.487    552.836    552.570
 11.070    554.000    557.399     -3.399    552.998    556.963    552.998    553.349    553.082
 11.170    593.000    558.595     34.405    553.498    558.156    553.498    553.850    553.582
 11.270    548.878    559.986    -11.108    553.986    559.545    553.986    554.339    554.071
 11.370    612.000    561.681     50.319    554.463    561.236    554.463    554.818    554.549
 11.470    603.000    563.897     39.103    554.928    563.449    554.928    555.284    555.015
 11.570    581.457    567.111     14.347    555.382    566.659    555.382    555.740    555.470
 11.670    557.236    572.275    -15.039    555.825    571.818    555.825    556.185    555.914
 11.770    641.000    580.983     60.017    556.257    580.518    556.257    556.618    556.347
 11.870    591.298    595.234     -3.936    556.678    594.759    556.678    557.041    556.769
 11.970    663.000    616.388     46.612    557.088    615.899    557.088    557.453    557.180
 12.070    681.000    643.113     37.887    557.488    642.606    557.488    557.854    557.580
 12.170    680.000    668.404     11.596    557.877    667.881    557.877    558.244    557.970
 12.270    707.000    679.077     27.923    558.255    678.545    558.255    558.624    558.349
 12.370    665.000    667.292     -2.292    558.623    666.764    558.623    558.993    558.718
 12.470    609.730    642.005    -32.275    558.980    641.489    558.980    559.352    559.076
 12.570    602.000    616.296    -14.296    559.327    615.793    559.327    559.701    559.424
 12.670    563.633    596.546    -32.913    559.664    596.051    559.664    560.040    559.762
 12.770    551.828    583.678    -31.851    559.990    583.188    559.990    560.368    560.090
 12.870    555.490    576.177    -20.688    560.307    575.689    560.307    560.686    560.408
 12.970    551.042    572.040    -20.998    560.614    571.551    560.614    560.995    560.716
 13.070    577.771    569.728      8.042    560.911    569.238    560.911    561.293    561.014
 13.170    543.000    568.348    -25.348    561.198    567.855    561.198    561.582    561.302
 13.270    550.000    567.459    -17.459    561.475    566.964    561.475    561.861    561.580
 13.370    518.000    566.860    -48.860    561.743    566.363    561.743    562.131    561.849
 13.470    521.000    566.452    -45.452    562.001    565.952    562.001    562.391    562.109
 13.570    560.000    566.172     -6.172    562.250    565.669    562.250    562.642    562.359
 13.670    601.477    565.988     35.488    562.489    565.483    562.489    562.883    562.600
 13.770    529.682    565.895    -36.213    562.719    565.386    562.719    563.115    562.831
 13.870    521.000    565.838    -44.838    562.940    565.326    562.940    563.338    563.053
 13.970    562.000    565.814     -3.814    563.152    565.299    563.152    563.552    563.267
 14.070    560.299    565.818     -5.519    563.355    565.300    563.355    563.757    563.471
 14.170    591.646    565.844     25.803    563.549    565.322    563.549    563.953    563.666
 14.270    536.000    565.885    -29.885    563.734    565.361    563.734    564.140    563.853
 14.370    538.017    565.939    -27.922    563.911    565.411    563.911    564.318    564.031
 14.470    523.506    566.000    -42.494    564.078    565.469    564.078    564.488    564.200
 14.570    578.000    566.067     11.933    564.237    565.532    564.237    564.649    564.360
 14.670    535.816    566.137    -30.321    564.388    565.599    564.388    564.802    564.512
 14.770    574.000    566.209      7.791    564.530    565.667    564.530    564.946    564.656
 14.870    567.000    566.282      0.718    564.664    565.736    564.664    565.082    564.791
 14.970    573.000    566.353      6.647    564.789    565.803    564.789    565.210    564.919
 15.070    562.590    566.423     -3.832    564.907    565.869    564.907    565.329    565.037
 15.170    556.803    566.490     -9.687    565.016    565.932    565.016    565.440    565.148
 15.270    569.000    566.553      2.447    565.117    565.992    565.117    565.544    565.251
 15.370    549.000    566.614    -17.614    565.210    566.048    565.210    565.639    565.346
 15.470    543.171    566.670    -23.499    565.295    566.100    565.295    565.727    565.433
 15.570    598.327    566.721     31.606    565.373    566.147    565.373    565.807    565.513
 15.670    560.000    566.776     -6.776    565.443    566.198    565.443    565.879    565.584
 15.770    542.000    566.897    -24.897    565.505    566.315    565.505    565.944    565.648
 15.870    565.000    566.976     -1.976    565.559    566.389    565.559    566.000    565.705
 15.970    529.182    567.013    -37.831    565.606    566.422    565.606    566.050    565.754
 16.070    546.000    567.044    -21.044    565.646    566.449    565.646    566.092    565.795
 16.170    528.166    567.066    -38.900    565.678    566.465    565.678    566.127    565.830
 16.270    594.217    567.081     27.136    565.703    566.476    565.703    566.155    565.857
 16.370    533.000    567.090    -34.090    565.721    566.480    565.721    566.175    565.877
 16.470    549.000    567.094    -18.094    565.732    566.479    565.732    566.188    565.890
 16.570    507.000    567.092    -60.092    565.736    566.472    565.736    566.195    565.896
 16.670    555.000    567.084    -12.084    565.732    566.459    565.732    566.194    565.895
 16.770    546.000    567.070    -21.070    565.722    566.440    565.722    566.187    565.887
 16.870    564.520    567.052     -2.532    565.705    566.417    565.705    566.173    565.872
 16.970    532.000    567.030    -35.030    565.681    566.390    565.681    566.152    565.851
 17.070    515.000    566.999    -51.999    565.651    566.354    565.651    566.124    565.823
 17.170    550.000    566.963    -16.963    565.614    566.312    565.614    566.090    565.789
 17.270    547.556    566.920    -19.364    565.570    566.264    565.570    566.049    565.748
 17.370    585.000    566.872     18.128    565.520    566.210    565.520    566.002    565.700
 17.470    580.331    566.818     13.513    565.464    566.150    565.464    565.949    565.647
 17.570    579.881    566.759     13.122    565.401    566.085    565.401    565.889    565.587
 17.670    549.000    566.694    -17.694    565.332    566.014    565.332    565.823    565.521
 17.770    574.000    566.625      7.375    565.257    565.939    565.257    565.751    565.449
 17.870    564.000    566.570     -2.570    565.176    565.877    565.176    565.673    565.370
 17.970    611.000    566.548     44.452    565.088    565.849    565.088    565.589    565.286
 18.070    542.000    566.491    -24.491    564.995    565.785    564.995    565.499    565.196
 18.170    554.000    566.410    -12.410    564.896    565.698    564.896    565.404    565.100
 18.270    599.000    566.319     32.681    564.791    565.600    564.791    565.302    564.998
 18.370    545.000    566.218    -21.218    564.680    565.492    564.680    565.195    564.891
 18.470    550.000    566.111    -16.111    564.563    565.378    564.563    565.082    564.778
 18.570    583.000    566.000     17.000    564.441    565.259    564.441    564.963    564.660
 18.670    567.000    565.883      1.117    564.313    565.135    564.313    564.840    564.536
 18.770    563.000    565.762     -2.762    564.180    565.006    564.180    564.710    564.406
 18.870    559.000    565.635     -6.635    564.042    564.872    564.042    564.575    564.271
 18.970    521.000    565.504    -44.504    563.898    564.733    563.898    564.435    564.131
 19.070    554.721    565.369    -10.648    563.748    564.590    563.748    564.290    563.986
 19.170    581.000    565.240     15.760    563.594    564.452    563.594    564.140    563.836
 19.270    563.996    565.097     -1.101    563.434    564.300    563.434    563.984    563.681
 19.370    550.000    564.948    -14.948    563.269    564.142    563.269    563.823    563.520
 19.470    533.197    564.795    -31.598    563.099    563.980    563.099    563.658    563.355
 19.570    589.126    564.637     24.489    562.924    563.813    562.924    563.487    563.185
 19.670    567.000    564.476      2.524    562.744    563.643    562.744    563.312    563.010
 19.770    530.000    564.311    -34.311    562.560    563.468    562.560    563.132    562.830
 19.870    564.000    564.141     -0.141    562.370    563.289    562.370    562.947    562.646
 19.970    516.000    563.968    -47.968    562.176    563.105    562.176    562.758    562.457
 20.070    564.128    563.790      0.338    561.977    562.917    561.977    562.564    562.264
 20.170    520.000    563.610    -43.610    561.774    562.726    561.774    562.366    562.066
 20.270    527.703    563.426    -35.723    561.566    562.531    561.566    562.163    561.864
 20.370    586.239    563.242     22.997    561.353    562.335    561.353    561.956    561.657
 20.470    573.000    563.051      9.949    561.136    562.134    561.136    561.744    561.447
 20.570    589.873    562.858     27.016    560.915    561.928    560.915    561.528    561.232
 20.670    586.394    562.668     23.727    560.690    561.726    560.690    561.309    561.013
 20.770    572.000    562.499      9.501    560.460    561.544    560.460    561.085    560.790
 20.870    534.285    562.333    -28.049    560.226    561.366    560.226    560.856    560.563
 20.970    605.413    562.139     43.274    559.988    561.158    559.988    560.624    560.332
 21.070    577.883    561.974     15.909    559.745    560.979    559.745    560.388    560.097
 21.170    605.000    561.814     43.186    559.499    560.806    559.499    560.149    559.859
 21.270    519.638    561.617    -41.979    559.249    560.594    559.249    559.905    559.617
 21.370    545.000    561.441    -16.441    558.995    560.403    558.995    559.658    559.371
 21.470    597.772    561.234     36.538    558.737    560.180    558.737    559.407    559.122
 21.570    570.000    561.023      8.977    558.475    559.954    558.475    559.152    558.869
 21.670    540.918    560.823    -19.904    558.210    559.736    558.210    558.894    558.613
 21.770    538.000    560.626    -22.626    557.941    559.522    557.941    558.633    558.353
 21.870    588.086    560.411     27.675    557.668    559.290    557.668    558.368    558.090
 21.970    574.694    560.199     14.496    557.392    559.059    557.392    558.099    557.824
 22.070    581.000    559.997     21.003    557.112    558.839    557.112    557.828    557.555
 22.170    530.000    559.785    -29.785    556.829    558.607    556.829    557.553    557.283
 22.270    564.000    559.573      4.427    556.543    558.376    556.543    557.275    557.008
 22.370    550.709    559.366     -8.658    556.253    558.148    556.253    556.994    556.730
 22.470    565.715    559.163      6.551    555.959    557.924    555.959    556.710    556.449
 22.570    581.000    558.964     22.036    555.663    557.702    555.663    556.424    556.165
 22.670    525.000    558.771    -33.771    555.363    557.486    555.363    556.134    555.879
 22.770    538.000    558.596    -20.596    555.061    557.287    555.061    555.841    555.590
 22.870    514.259    558.422    -44.162    554.755    557.087    554.755    555.546    555.299
 22.970    553.495    558.258     -4.763    554.446    556.898    554.446    555.248    555.005
 23.070    591.000    558.111     32.889    554.134    556.724    554.134    554.948    554.709
 23.170    538.000    557.983    -19.983    553.820    556.568    553.820    554.645    554.411
 23.270    580.277    557.879     22.398    553.502    556.436    553.502    554.340    554.110
 23.370    562.840    557.808      5.032    553.182    556.334    553.182    554.032    553.807
 23.470    552.000    557.777     -5.777    552.859    556.271    552.859    553.722    553.503
 23.570    550.000    557.800     -7.800    552.533    556.261    552.533    553.410    553.196
 23.670    537.000    557.892    -20.892    552.204    556.319    552.204    553.095    552.888
 23.770    572.000    558.078     13.922    551.873    556.470    551.873    552.779    552.578
 23.870    544.000    558.397    -14.397    551.540    556.752    551.540    552.460    552.267
 23.970    569.000    558.916     10.084    551.203    557.232    551.203    552.140    551.954
 24.070    519.000    559.772    -40.772    550.865    558.048    550.865    551.818    551.640
 24.170    517.457    561.257    -43.800    550.524    559.491    550.524    551.495    551.324
 24.270    568.243    563.949      4.294    550.180    562.140    550.180    551.169    551.008
 24.370    529.804    568.803    -39.000    549.835    566.951    549.835    550.842    550.690
 24.470    606.000    577.060     28.940    549.487    575.165    549.487    550.514    550.372
 24.570    614.186    589.663     24.523    549.137    587.725    549.137    550.185    550.053
 24.670    650.000    606.122     43.878    548.784    604.141    548.784    549.854    549.733
 24.770    674.841    622.747     52.093    548.430    620.721    548.430    549.522    549.413
 24.870    640.282    631.820      8.462    548.073    629.740    548.073    549.190    549.093
 24.970    637.000    627.237      9.763    547.714    625.091    547.714    548.856    548.773
 25.070    661.540    612.204     49.335    547.354    609.980    547.354    548.522    548.453
 25.170    641.737    594.655     47.082    546.991    592.348    546.991    548.187    548.133
 25.270    628.480    579.876     48.605    546.627    577.484    546.627    547.852    547.815
 25.370    577.000    569.451      7.549    546.261    566.973    546.261    547.516    547.496
 25.470    611.000    562.878     48.122    545.892    560.312    545.892    547.181    547.180
 25.570    536.194    558.963    -22.769    545.523    556.305    545.523    546.846    546.864
 25.670    522.729    556.608    -33.879    545.151    553.854    545.151    546.510    546.550
 25.770    546.000    555.092     -9.092    544.778    552.237    544.778    546.176    546.238
 25.870    541.934    554.027    -12.093    544.403    551.065    544.403    545.842    545.929
 25.970    559.315    553.225      6.090    544.026    550.149    544.026    545.509    545.622
 26.070    547.000    552.599     -5.599    543.648    549.402    543.648    545.178    545.318
 26.170    606.000    552.104     53.896    543.269    548.778    543.269    544.847    545.018
 26.270    529.000    551.714    -22.714    542.888    548.250    542.888    544.519    544.722
 26.370    582.000    551.414     30.586    542.505    547.803    542.505    544.193    544.431
 26.470    506.514    551.196    -44.681    542.122    547.426    542.122    543.869    544.145
 26.570    580.000    551.055     28.945    541.736    547.116    541.736    543.548    543.865
 26.670    509.226    550.993    -41.767    541.350    546.873    541.350    543.231    543.591
 26.770    549.000    551.014     -2.014    540.962    546.698    540.962    542.917    543.324
 26.870    543.000    551.127     -8.127    540.573    546.602    540.573    542.608    543.066
 26.970    589.000    551.347     37.653    540.183    546.596    540.183    542.303    542.816
 27.070    589.000    551.695     37.305    539.792    546.700    539.792    542.004    542.577
 27.170    534.546    552.201    -17.655    539.400    546.944    539.400    541.710    542.348
 27.270    586.000    552.911     33.089    539.007    547.371    539.007    541.423    542.131
 27.370    565.000    553.893     11.107    538.612    548.047    538.612    541.144    541.927
 27.470    618.000    555.264     62.736    538.217    549.088    538.217    540.872    541.737
 27.570    575.000    557.301     17.699    537.821    550.769    537.821    540.610    541.564
 27.670    604.000    560.880     43.120    537.424    553.962    537.424    540.357    541.407
 27.770    564.000    568.825     -4.825    537.025    561.490    537.025    540.114    541.268
 27.870    630.000    588.468     41.532    536.627    580.677    536.627    539.882    541.149
 27.970    627.000    632.947     -5.947    536.227    624.658    536.227    539.663    541.051
 28.070    779.000    714.349     64.651    535.827    705.517    535.827    539.455    540.974
 28.170    829.000    824.909      4.091    535.426    815.499    535.426    539.262    540.921
 28.270    959.874    920.741     39.134    535.024    910.732    535.024    539.081    540.891
 28.370    890.000    942.254    -52.254    534.621    931.633    534.621    538.914    540.884
 28.470    836.144    877.497    -41.353    534.218    866.235    534.218    538.760    540.901
 28.570    838.299    784.110     54.189    533.815    772.163    533.815    538.619    540.938
 28.670    773.000    725.720     47.280    533.411    713.044    533.411    538.488    540.994
 28.770    760.000    726.450     33.550    533.006    713.015    533.006    538.365    541.064
 28.870    740.000    770.746    -30.746    532.601    756.540    532.601    538.247    541.142
 28.970    817.000    817.928     -0.928    532.196    802.958    532.196    538.129    541.221
 29.070    792.000    824.535    -32.535    531.790    808.821    531.790    538.006    541.291
 29.170    799.000    778.580     20.420    531.383    762.151    531.383    537.869    541.339
 29.270    654.000    708.266    -54.266    530.977    691.170    530.977    537.713    541.352
 29.370    673.000    645.527     27.473    530.570    627.836    530.570    537.527    541.316
 29.470    655.000    603.663     51.337    530.163    585.476    530.163    537.304    541.216
 29.570    600.000    580.887     19.113    529.756    562.327    529.756    537.036    541.040
 29.670    611.000    569.916     41.084    529.348    551.123    529.348    536.717    540.777
 29.770    563.176    564.569     -1.393    528.941    545.692    528.941    536.343    540.420
 29.870    572.000    561.503     10.497    528.533    542.694    528.533    535.912    539.965
 29.970    559.899    559.357      0.542    528.125    540.767    528.125    535.426    539.417
 30.070    552.970    557.672     -4.702    527.717    539.440    527.717    534.888    538.781
 30.170    585.167    556.329     28.837    527.309    538.576    527.309    534.306    538.068
 30.270    620.000    555.383     64.617    526.901    538.209    526.901    533.686    537.291
 30.370    536.835    555.113    -18.278    526.493    538.597    526.493    533.037    536.466
 30.470    572.000    556.192     15.808    526.085    540.387    526.085    532.368    535.605
 30.570    564.000    559.805      4.195    525.677    544.744    525.677    531.686    534.723
 30.670    571.387    567.408      3.979    525.270    553.104    525.270    530.999    533.831
 30.770    570.921    579.741     -8.819    524.862    566.189    524.862    530.313    532.940
 30.870    612.863    595.187     17.676    524.455    582.373    524.455    529.632    532.058
 30.970    609.000    608.354      0.646    524.048    596.258    524.048    528.959    531.191
 31.070    638.000    611.470     26.530    523.641    600.069    523.641    528.298    530.342
 31.170    606.000    601.404      4.596    523.234    590.672    523.234    527.650    529.516
 31.270    582.169    584.019     -1.850    522.828    573.922    522.828    527.016    528.713
 31.370    602.000    566.972     35.028    522.422    557.469    522.422    526.397    527.935
 31.470    593.000    554.145     38.855    522.016    545.197    522.016    525.792    527.181
 31.570    569.000    545.998     23.002    521.611    537.564    521.611    525.201    526.451
 31.670    551.000    541.314      9.686    521.206    533.356    521.206    524.625    525.745
 31.770    519.000    538.646    -19.646    520.802    531.128    520.802    524.061    525.060
 31.870    545.688    536.991      8.697    520.398    529.881    520.398    523.510    524.396
 31.970    516.245    535.840    -19.595    519.995    529.106    519.995    522.970    523.752
 32.070    596.000    534.976     61.024    519.592    528.591    519.592    522.442    523.127
 32.170    515.000    534.320    -19.320    519.189    528.256    519.189    521.924    522.518
 32.270    547.423    533.840     13.582    518.787    528.074    518.787    521.416    521.926
 32.370    577.000    533.529     43.471    518.386    528.037    518.386    520.916    521.348
 32.470    549.000    533.390     15.610    517.986    528.152    517.986    520.425    520.784
 32.570    556.273    533.438     22.835    517.586    528.435    517.586    519.942    520.232
 32.670    492.901    533.698    -40.798    517.187    528.912    517.187    519.466    519.693
 32.770    563.000    534.210     28.790    516.788    529.625    516.788    518.997    519.164
 32.870    512.782    535.032    -22.250    516.390    530.634    516.390    518.534    518.645
 32.970    514.000    536.249    -22.249    515.993    532.023    515.993    518.076    518.135
 33.070    533.000    537.993     -4.993    515.597    533.927    515.597    517.624    517.634
 33.170    536.059    540.487     -4.428    515.201    536.570    515.201    517.177    517.141
 33.270    539.000    544.187     -5.187    514.807    540.407    514.807    516.735    516.655
 33.370    588.875    550.124     38.752    514.413    546.471    514.413    516.298    516.177
 33.470    627.000    560.606     66.394    514.020    557.071    514.020    515.864    515.704
 33.570    613.000    580.193     32.807    513.628    576.766    513.628    515.435    515.238
 33.670    594.000    616.140    -22.140    513.236    612.811    513.236    515.009    514.777
 33.770    687.236    676.684     10.552    512.846    673.442    512.846    514.587    514.322
 33.870    807.000    765.864     41.136    512.457    762.701    512.457    514.169    513.871
 33.970    907.000    875.426     31.574    512.069    872.338    512.069    513.753    513.425
 34.070   1032.162    976.077     56.084    511.681    973.067    511.681    513.341    512.984
 34.170   1034.000   1018.989     15.011    511.295   1016.064    511.295    512.932    512.547
 34.270    993.049    975.122     17.927    510.910    972.283    510.910    512.525    512.114
 34.370    852.000    873.521    -21.521    510.526    870.761    510.526    512.121    511.684
 34.470    761.217    763.015     -1.798    510.142    760.324    510.142    511.720    511.258
 34.570    647.330    672.891    -25.561    509.760    670.258    509.760    511.322    510.836
 34.670    603.000    611.400     -8.400    509.380    608.819    509.380    510.926    510.417
 34.770    562.000    574.498    -12.498    509.000    571.966    509.000    510.532    510.001
 34.870    524.560    553.947    -29.387    508.621    551.461    508.621    510.141    509.588
 34.970    520.000    542.492    -22.492    508.244    540.050    508.244    509.752    509.178
 35.070    548.000    535.572     12.428    507.868    533.171    507.868    509.365    508.771
 35.170    543.417    530.876     12.541    507.493    528.514    507.493    508.981    508.367
 35.270    548.223    527.372     20.851    507.119    525.046    507.119    508.599    507.966
 35.370    540.575    524.603     15.972    506.747    522.310    506.747    508.219    507.567
 35.470    552.025    522.340     29.685    506.376    520.079    506.376    507.841    507.170
 35.570    525.000    520.450      4.550    506.006    518.219    506.006    507.466    506.777
 35.670    521.000    518.843      2.157    505.637    516.640    505.637    507.092    506.385
 35.770    532.000    517.456     14.544    505.270    515.279    505.270    506.721    505.996
 35.870    515.000    516.243     -1.243    504.904    514.091    504.904    506.351    505.610
 35.970    511.000    515.171     -4.171    504.540    513.041    504.540    505.984    505.225
 36.070    541.000    514.213     26.787    504.176    512.104    504.176    505.619    504.843
 36.170    491.000    513.350    -22.350    503.815    511.262    503.815    505.255    504.463
 36.270    517.000    512.569      4.431    503.454    510.499    503.454    504.894    504.086
 36.370    511.489    511.858     -0.370    503.096    509.805    503.096    504.535    503.710
 36.470    487.966    511.210    -23.244    502.738    509.172    502.738    504.178    503.337
 36.570    535.000    510.620     24.380    502.382    508.597    502.382    503.823    502.966
 36.670    509.000    510.087     -1.087    502.028    508.077    502.028    503.470    502.597
 36.770    520.324    509.613     10.711    501.675    507.615    501.675    503.118    502.230
 36.870    485.000    509.210    -24.210    501.324    507.224    501.324    502.769    501.865
 36.970    509.000    508.905      0.095    500.974    506.929    500.974    502.422    501.503
 37.070    479.000    508.754    -29.754    500.625    506.786    500.625    502.077    501.142
 37.170    490.574    508.856    -18.282    500.279    506.896    500.279    501.734    500.784
 37.270    489.000    509.355    -20.355    499.933    507.403    499.933    501.393    500.427
 37.370    504.746    510.417     -5.672    499.590    508.471    499.590    501.055    500.073
 37.470    511.056    512.154     -1.098    499.248    510.214    499.248    500.718    499.720
 37.570    462.000    514.503    -52.503    498.908    512.568    498.908    500.383    499.370
 37.670    555.034    517.065     37.969    498.569    515.134    498.569    500.050    499.021
 37.770    541.000    519.000     22.000    498.232    517.074    498.232    499.720    498.675
 37.870    523.000    519.358      3.642    497.896    517.436    497.896    499.391    498.331
 37.970    521.110    517.889      3.221    497.563    515.970    497.563    499.065    497.988
 38.070    524.936    515.260      9.676    497.230    513.343    497.230    498.740    497.648
 38.170    529.000    512.271     16.729    496.900    510.355    496.900    498.418    497.310
 38.270    457.000    509.404    -52.404    496.571    507.485    496.571    498.098    496.973
 38.370    487.000    506.944    -19.944    496.245    505.022    496.245    497.780    496.639
 38.470    513.000    505.020      7.980    495.919    503.093    495.919    497.464    496.307
 38.570    488.000    503.598    -15.598    495.596    501.666    495.596    497.151    495.976
 38.670    504.793    502.565      2.228    495.274    500.629    495.274    496.839    495.648
 38.770    503.000    501.800      1.200    494.954    499.859    494.954    496.530    495.322
 38.870    517.000    501.205     15.795    494.636    499.258    494.636    496.223    494.998
 38.970    477.000    500.712    -23.712    494.320    498.759    494.320    495.918    494.675
 39.070    504.000    500.281      3.719    494.005    498.322    494.005    495.616    494.355
 39.170    482.892    499.891    -16.999    493.693    497.924    493.693    495.316    494.037
 39.270    462.972    499.528    -36.556    493.382    497.554    493.382    495.018    493.721
 39.370    454.466    499.187    -44.722    493.073    497.205    493.073    494.722    493.407
 39.470    453.000    498.865    -45.865    492.766    496.874    492.766    494.429    493.095
 39.570    464.028    498.559    -34.531    492.460    496.558    492.460    494.138    492.785
 39.670    507.238    498.267      8.971    492.157    496.256    492.157    493.849    492.477
 39.770    462.000    497.989    -35.989    491.855    495.967    491.855    493.563    492.171
 39.870    480.859    497.724    -16.865    491.555    495.690    491.555    493.279    491.867
 39.970    506.000    497.472      8.528    491.258    495.425    491.258    492.997    491.565
 40.070    500.253    497.233      3.020    490.962    495.173    490.962    492.718    491.266
 40.170    480.748    497.006    -16.259    490.668    494.933    490.668    492.441    490.968
 40.270    496.000    496.794     -0.794    490.376    494.707    490.376    492.167    490.672
 40.370    480.000    496.597    -16.597    490.085    494.494    490.085    491.896    490.379
 40.470    465.000    496.415    -31.415    489.797    494.297    489.797    491.626    490.088
 40.570    491.000    496.251     -5.251    489.511    494.116    489.511    491.360    489.798
 40.670    494.000    496.107     -2.107    489.227    493.954    489.227    491.096    489.511
 40.770    447.000    495.984    -48.984    488.944    493.814    488.944    490.834    489.226
 40.870    499.000    495.888      3.112    488.664    493.698    488.664    490.576    488.943
 40.970    489.000    495.820     -6.820    488.386    493.612    488.386    490.319    488.662
 41.070    537.000    495.788     41.212    488.109    493.559    488.109    490.066    488.383
 41.170    484.000    495.798    -11.798    487.835    493.547    487.835    489.815    488.106
 41.270    458.036    495.854    -37.817    487.562    493.581    487.562    489.567    487.832
 41.370    461.000    495.978    -34.978    487.292    493.683    487.292    489.322    487.559
 41.470    497.000    496.183      0.817    487.024    493.864    487.024    489.079    487.289
 41.570    470.907    496.495    -25.588    486.757    494.151    486.757    488.840    487.021
 41.670    491.000    496.955     -5.955    486.493    494.585    486.493    488.603    486.755
 41.770    538.986    497.641     41.345    486.231    495.245    486.231    488.369    486.491
 41.870    490.000    498.711     -8.711    485.970    496.287    485.970    488.138    486.229
 41.970    513.000    500.474     12.526    485.712    498.022    485.712    487.910    485.970
 42.070    481.000    503.489    -22.489    485.456    501.009    485.456    487.686    485.712
 42.170    473.428    508.642    -35.215    485.202    506.133    485.202    487.464    485.457
 42.270    481.000    517.075    -36.075    484.950    514.537    484.950    487.245    485.204
 42.370    543.000    529.866     13.134    484.699    527.300    484.699    487.030    484.953
 42.470    491.000    547.390    -56.390    484.452    544.797    484.452    486.818    484.705
 42.570    510.000    568.444    -58.444    484.206    565.826    484.206    486.609    484.458
 42.670    576.000    589.299    -13.299    483.962    586.654    483.962    486.403    484.214
 42.770    552.000    603.544    -51.544    483.720    600.870    483.720    486.201    483.972
 42.870    568.426    604.940    -36.514    483.480    602.228    483.480    486.003    483.732
 42.970    539.000    592.658    -53.658    483.243    589.900    483.243    485.808    483.495
 43.070    603.443    572.219     31.225    483.007    569.406    483.007    485.617    483.259
 43.170    562.000    550.453     11.547    482.774    547.582    482.774    485.429    483.026
 43.270    490.699    531.712    -41.013    482.543    528.783    482.543    485.245    482.795
 43.370    525.000    517.638      7.362    482.314    514.651    482.314    485.065    482.567
 43.470    508.000    508.095     -0.095    482.086    505.050    482.086    484.889    482.340
 43.570    489.000    502.082    -13.082    481.861    498.979    481.861    484.718    482.116
 43.670    504.000    498.428      5.572    481.639    495.267    481.639    484.550    481.894
 43.770    467.895    496.182    -28.286    481.418    492.960    481.418    484.387    481.675
 43.870    473.000    494.719    -21.719    481.199    491.435    481.199    484.228    481.458
 43.970    528.000    493.689     34.311    480.983    490.341    480.983    484.074    481.243
 44.070    503.000    492.911     10.089    480.768    489.496    480.768    483.925    481.030
 44.170    512.000    492.298     19.702    480.556    488.813    480.556    483.780    480.820
 44.270    477.000    491.802    -14.802    480.346    488.244    480.346    483.641    480.612
 44.370    468.175    491.396    -23.221    480.138    487.761    480.138    483.507    480.406
 44.470    523.881    491.062     32.819    479.932    487.347    479.932    483.378    480.203
 44.570    480.000    490.788    -10.788    479.728    486.989    479.728    483.255    480.002
 44.670    489.000    490.565     -1.565    479.527    486.678    479.527    483.138    479.803
 44.770    471.000    490.386    -19.386    479.327    486.407    479.327    483.027    479.607
 44.870    514.000    490.245     23.755    479.130    486.170    479.130    482.922    479.413
 44.970    485.137    490.140     -5.003    478.934    485.963    478.934    482.825    479.222
 45.070    518.667    490.068     28.599    478.741    485.784    478.741    482.734    479.033
 45.170    486.171    490.027     -3.856    478.550    485.631    478.550    482.651    478.847
 45.270    482.016    490.016     -8.000    478.361    485.501    478.361    482.575    478.663
 45.370    543.000    490.034     52.966    478.175    485.394    478.175    482.508    478.482
 45.470    473.000    490.083    -17.083    477.990    485.311    477.990    482.450    478.303
 45.570    531.723    490.161     41.562    477.808    485.249    477.808    482.400    478.127
 45.670    497.104    490.271      6.833    477.627    485.211    477.627    482.361    477.954
 45.770    506.762    490.413     16.349    477.449    485.197    477.449    482.332    477.783
 45.870    479.000    490.591    -11.591    477.273    485.209    477.273    482.314    477.615
 45.970    510.715    490.806     19.910    477.099    485.247    477.099    482.307    477.450
 46.070    450.405    491.062    -40.657    476.927    485.316    476.927    482.314    477.287
 46.170    537.116    491.364     45.752    476.757    485.418    476.757    482.334    477.127
 46.270    528.244    491.717     36.528    476.590    485.558    476.590    482.368    476.971
 46.370    507.371    492.127     15.243    476.424    485.742    476.424    482.418    476.817
 46.470    485.000    492.604     -7.604    476.261    485.976    476.261    482.484    476.666
 46.570    513.661    493.158     20.503    476.100    486.270    476.100    482.569    476.519
 46.670    514.712    493.806     20.905    475.941    486.640    475.941    482.673    476.375
 46.770    469.000    494.573    -25.573    475.784    487.108    475.784    482.798    476.234
 46.870    451.517    495.499    -43.981    475.629    487.714    475.629    482.946    476.096
 46.970    488.000    496.662     -8.662    475.476    488.533    475.476    483.118    475.963
 47.070    517.000    498.207     18.793    475.325    489.706    475.325    483.317    475.833
 47.170    502.765    500.384      2.381    475.177    491.484    475.177    483.544    475.707
 47.270    490.000    503.594    -13.594    475.030    494.264    475.030    483.802    475.585
 47.370    476.408    508.385    -31.977    474.886    498.588    474.886    484.094    475.467
 47.470    531.000    515.359     15.641    474.744    505.059    474.744    484.421    475.353
 47.570    556.000    524.966     31.034    474.604    514.122    474.604    484.787    475.245
 47.670    572.000    537.175     34.825    474.466    525.744    474.466    485.195    475.140
 47.770    579.000    551.084     27.916    474.330    539.019    474.330    485.646    475.041
 47.870    613.613    564.537     49.076    474.196    551.792    474.196    486.144    474.948
 47.970    569.000    574.180     -5.180    474.064    560.708    474.064    486.692    474.859
 48.070    539.000    576.854    -37.854    473.934    562.606    473.934    487.292    474.776
 48.170    575.000    572.010      2.990    473.807    556.937    473.807    487.945    474.699
 48.270    553.000    562.286     -9.286    473.681    546.333    473.681    488.653    474.628
 48.370    547.355    551.286     -3.930    473.558    534.398    473.558    489.415    474.563
 48.470    519.000    541.626    -22.626    473.436    523.746    473.436    490.232    474.504
 48.570    552.898    534.596     18.301    473.317    515.671    473.317    491.098    474.450
 48.670    515.000    530.482    -15.482    473.200    510.464    473.200    492.010    474.402
 48.770    537.929    528.994      8.935    473.084    507.845    473.084    492.957    474.359
 48.870    516.000    529.618    -13.618    472.971    507.313    472.971    493.927    474.319
 48.970    507.000    531.879    -24.879    472.860    508.412    472.860    494.905    474.282
 49.070    530.000    535.496     -5.496    472.751    510.885    472.751    495.867    474.247
 49.170    556.000    540.516     15.484    472.643    514.804    472.643    496.789    474.211
 49.270    547.000    547.560     -0.560    472.538    520.826    472.538    497.640    474.171
 49.370    530.066    558.488    -28.422    472.435    530.841    472.435    498.389    474.127
 49.470    611.000    577.765     33.235    472.334    549.351    472.334    499.002    474.075
 49.570    666.000    614.631     51.369    472.235    585.623    472.235    499.449    474.012
 49.670    736.110    685.181     50.929    472.138    655.777    472.138    499.706    473.937
 49.770    802.042    811.943     -9.901    472.043    782.356    472.043    499.757    473.849
 49.870   1055.579   1017.532     38.047    471.950    987.985    471.950    499.598    473.747
 49.970   1269.684   1310.843    -41.158    471.859   1281.564    471.859    499.235    473.631
 50.070   1689.174   1669.761     19.413    471.770   1640.978    471.770    498.685    473.504
 50.170   2040.000   2029.958     10.042    471.682   2001.886    471.682    497.974    473.367
 50.270   2265.000   2291.762    -26.762    471.597   2264.589    471.597    497.134    473.222
 50.370   2301.000   2358.567    -57.567    471.514   2332.417    471.514    496.196    473.072
 50.470   2156.000   2201.232    -45.232    471.433   2176.151    471.433    495.193    472.920
 50.570   1883.000   1884.638     -1.638    471.353   1860.617    471.353    494.155    472.767
 50.670   1534.646   1515.766     18.880    471.276   1492.776    471.276    493.107    472.615
 50.770   1163.000   1182.985    -19.985    471.200   1160.992    471.200    492.070    472.467
 50.870    854.000    932.488    -78.488    471.127    911.464    471.127    491.059    472.322
 50.970    755.066    770.887    -15.821    471.055    750.800    471.055    490.088    472.182
 51.070    722.785    680.249     42.536    470.985    661.062    470.985    489.164    472.048
 51.170    611.469    634.815    -23.346    470.918    616.483    470.918    488.292    471.919
 51.270    615.000    612.118      2.882    470.852    594.589    470.852    487.477    471.795
 51.370    545.871    597.540    -51.669    470.788    580.755    470.788    486.718    471.678
 51.470    607.000    584.428     22.572    470.725    568.328    470.725    486.016    471.566
 51.570    507.000    571.472    -64.472    470.665    555.998    470.665    485.370    471.460
 51.670    600.765    559.450     41.315    470.607    544.547    470.607    484.779    471.359
 51.770    575.000    549.283     25.717    470.550    534.898    470.550    484.239    471.263
 51.870    563.000    541.449     21.551    470.495    527.532    470.495    483.748    471.173
 51.970    616.000    535.993     80.007    470.442    522.497    470.442    483.305    471.087
 52.070    520.905    532.684    -11.779    470.391    519.564    470.391    482.905    471.005
 52.170    577.000    531.188     45.812    470.342    518.403    470.342    482.548    470.928
 52.270    546.706    531.227     15.480    470.295    518.737    470.295    482.230    470.855
 52.370    574.475    532.691     41.784    470.249    520.459    470.249    481.950    470.786
 52.470    529.849    535.725     -5.876    470.205    523.715    470.205    481.704    470.721
 52.570    562.000    540.874     21.126    470.163    529.054    470.163    481.492    470.659
 52.670    585.086    549.281     35.804    470.123    537.620    470.123    481.311    470.601
 52.770    578.000    562.933     15.067    470.084    551.401    470.084    481.160    470.545
 52.870    589.539    584.829      4.710    470.047    573.398    470.047    481.037    470.494
 52.970    606.000    618.865    -12.865    470.012    607.509    470.012    480.941    470.445
 53.070    668.114    669.173     -1.059    469.979    657.866    469.979    480.871    470.399
 53.170    746.000    738.776      7.224    469.948    727.494    469.948    480.827    470.355
 53.270    813.000    827.686    -14.686    469.918    816.407    469.918    480.806    470.315
 53.370    957.452    930.717     26.735    469.890    919.420    469.890    480.810    470.277
 53.470    991.000   1035.260    -44.260    469.863   1023.925    469.863    480.837    470.242
 53.570   1091.245   1120.142    -28.897    469.838   1108.750    469.838    480.886    470.209
 53.670   1120.000   1160.286    -40.286    469.815   1148.815    469.815    480.958    470.178
 53.770   1182.880   1141.126     41.754    469.794   1129.555    469.794    481.053    470.150
 53.870   1086.000   1070.437     15.563    469.774   1058.738    469.774    481.171    470.125
 53.970    981.000    971.394      9.606    469.756    959.540    469.756    481.311    470.101
 54.070    824.474    867.259    -42.786    469.740    855.225    469.740    481.475    470.080
 54.170    827.356    773.630     53.727    469.725    761.390    469.725    481.662    470.061
 54.270    703.058    698.115      4.944    469.712    685.647    469.712    481.874    470.044
 54.370    619.663    642.324    -22.661    469.700    629.605    469.700    482.111    470.029
 54.470    601.000    604.094     -3.094    469.691    591.100    469.691    482.374    470.016
 54.570    578.426    579.537     -1.110    469.682    566.243    469.682    482.664    470.005
 54.670    581.000    564.587     16.413    469.675    550.968    469.675    482.982    469.996
 54.770    535.676    555.904    -20.228    469.670    541.932    469.670    483.330    469.989
 54.870    559.000    551.149      7.851    469.667    536.795    469.667    483.709    469.985
 54.970    506.161    548.879    -42.718    469.664    534.110    469.664    484.122    469.982
 55.070    583.000    548.292     34.708    469.664    533.075    469.664    484.570    469.981
 55.170    521.819    548.992    -27.173    469.665    533.290    469.665    485.056    469.982
 55.270    550.401    550.814     -0.413    469.667    534.588    469.667    485.582    469.984
 55.370    565.235    553.733     11.502    469.671    536.942    469.671    486.150    469.989
 55.470    625.000    557.832     67.168    469.677    540.430    469.677    486.765    469.996
 55.570    543.433    563.322    -19.890    469.684    545.261    469.684    487.430    470.004
 55.670    601.801    570.632     31.169    469.692    551.860    469.692    488.148    470.015
 55.770    534.189    580.610    -46.421    469.702    561.069    469.702    488.924    470.027
 55.870    571.733    594.902    -23.170    469.713    574.531    469.713    489.761    470.041
 55.970    640.000    616.554     23.446    469.726    595.286    469.726    490.666    470.057
 56.070    718.000    650.787     67.213    469.740    628.548    469.740    491.643    470.074
 56.170    629.000    705.681    -76.681    469.756    682.392    469.756    492.699    470.094
 56.270    753.000    792.219    -39.219    469.773    767.794    469.773    493.839    470.115
 56.370    799.000    922.924   -123.924    469.791    897.273    469.791    495.070    470.139
 56.470   1046.000   1108.536    -62.536    469.811   1081.564    469.811    496.400    470.164
 56.570   1320.000   1352.845    -32.845    469.832   1324.455    469.832    497.835    470.191
 56.670   1647.548   1646.721      0.826    469.854   1616.814    469.854    499.384    470.220
 56.770   1939.000   1962.833    -23.833    469.878   1931.306    469.878    501.056    470.251
 56.870   2219.000   2252.883    -33.883    469.903   2219.630    469.903    502.858    470.284
 56.970   2390.700   2452.475    -61.775    469.930   2417.375    469.930    504.799    470.319
 57.070   2499.000   2503.263     -4.263    469.957   2466.166    469.957    506.888    470.355
 57.170   2388.000   2388.449     -0.449    469.986   2349.172    469.986    509.133    470.394
 57.270   2210.000   2146.303     63.697    470.016   2104.643    470.016    511.542    470.435
 57.370   1824.000   1842.679    -18.679    470.048   1798.435    470.048    514.122    470.478
 57.470   1460.430   1537.046    -76.616    470.081   1490.025    470.081    516.878    470.523
 57.570   1201.000   1268.652    -67.652    470.115   1218.669    470.115    519.812    470.570
 57.670   1018.297   1056.419    -38.122    470.150   1003.301    470.150    522.924    470.619
 57.770    896.000    903.324     -7.324    470.186    846.904    470.186    526.210    470.670
 57.870    834.376    802.269     32.108    470.224    742.395    470.224    529.658    470.724
 57.970    763.000    742.053     20.947    470.263    678.589    470.263    533.251    470.780
 58.070    695.000    712.018    -17.018    470.303    644.852    470.303    536.962    470.837
 58.170    666.448    704.582    -38.133    470.344    633.637    470.344    540.754    470.897
 58.270    715.120    715.761     -0.641    470.386    641.007    470.386    544.577    470.959
 58.370    747.000    744.267      2.733    470.430    665.735    470.430    548.369    471.023
 58.470    750.000    789.897    -39.897    470.474    707.694    470.474    552.056    471.089
 58.570    828.000    851.789    -23.789    470.520    766.109    470.520    555.549    471.157
 58.670    898.186    926.930    -28.745    470.567    838.064    470.567    558.754    471.227
 58.770   1067.006   1009.264     57.742    470.615    917.605    470.615    561.570    471.299
 58.870   1122.000   1090.243     31.757    470.664    996.284    470.664    563.900    471.372
 58.970   1163.751   1161.410      2.341    470.713   1065.732    470.713    565.655    471.447
 59.070   1238.000   1216.370     21.630    470.764   1119.619    470.764    566.766    471.523
 59.170   1211.226   1249.596    -38.370    470.816   1152.461    470.816    567.188    471.601
 59.270   1291.000   1256.266     34.734    470.870   1159.453    470.870    566.904    471.681
 59.370   1291.000   1236.941     54.059    470.924   1141.132    470.924    565.932    471.762
 59.470   1269.945   1201.100     68.846    470.979   1106.928    470.979    564.315    471.846
 59.570   1235.000   1163.131     71.869    471.035   1071.157    471.035    562.126    471.932
 59.670   1142.063   1136.167      5.896    471.091   1046.864    471.091    559.451    472.020
 59.770   1182.000   1129.949     52.051    471.149   1043.694    471.149    556.388    472.111
 59.870   1173.797   1151.388     22.410    471.208   1068.461    471.208    553.039    472.205
 59.970   1222.000   1203.832     18.168    471.268   1124.422    471.268    549.497    472.303
 60.070   1299.000   1283.919     15.081    471.328   1208.131    471.328    545.851    472.404
 60.170   1427.000   1378.830     48.170    471.390   1306.703    471.390    542.176    472.509
 60.270   1485.540   1466.373     19.167    471.452   1397.892    471.452    538.534    472.618
 60.370   1590.000   1519.041     70.959    471.516   1454.145    471.516    534.973    472.731
 60.470   1431.005   1513.753    -82.748    471.580   1452.342    471.580    531.532    472.848
 60.570   1417.790   1444.276    -26.486    471.645   1386.214    471.645    528.237    472.969
 60.670   1341.000   1324.893     16.107    471.710   1270.012    471.710    525.105    473.095
 60.770   1198.000   1180.775     17.225    471.777   1128.894    471.777    522.147    473.223
 60.870    995.719   1036.076    -40.357    471.844    987.004    471.844    519.367    473.355
 60.970    913.000    908.115      4.885    471.912    861.664    471.912    516.766    473.489
 61.070    783.834    806.378    -22.543    471.981    762.363    471.981    514.340    473.625
 61.170    749.000    733.749     15.251    472.051    691.996    472.051    512.083    473.762
 61.270    687.000    688.902     -1.902    472.121    649.245    472.121    509.988    473.899
 61.370    691.000    669.008     21.992    472.192    631.293    472.192    508.046    474.034
 61.470    647.000    671.916    -24.916    472.264    636.001    472.264    506.247    474.167
 61.570    744.362    697.184     47.178    472.336    662.936    472.336    504.583    474.294
 61.670    734.664    745.768    -11.104    472.409    713.068    472.409    503.042    474.416
 61.770    829.000    818.598     10.402    472.483    787.337    472.483    501.616    474.529
 61.870    965.000    914.499     50.501    472.557    884.582    472.557    500.295    474.634
 61.970    990.000   1028.109    -38.109    472.632    999.453    472.632    499.070    474.728
 62.070   1084.000   1148.352    -64.352    472.708   1120.890    472.708    497.933    474.812
 62.170   1265.000   1257.958      7.042    472.784   1231.635    472.784    496.877    474.883
 62.270   1286.000   1335.143    -49.143    472.861   1309.910    472.861    495.895    474.944
 62.370   1268.000   1359.883    -91.883    472.938   1335.697    472.938    494.982    474.993
 62.470   1251.025   1324.308    -73.283    473.016   1301.118    473.016    494.130    475.033
 62.570   1255.981   1238.077     17.904    473.095   1215.834    473.095    493.338    475.064
 62.670   1056.013   1121.938    -65.925    473.174   1100.587    473.174    492.599    475.088
 62.770    953.000    997.316    -44.316    473.253    976.806    473.253    491.911    475.106
 62.870    821.000    880.567    -59.567    473.333    860.850    473.333    491.270    475.120
 62.970    804.000    781.686     22.314    473.414    762.717    473.414    490.674    475.131
 63.070    661.223    704.711    -43.489    473.495    686.448    473.495    490.119    475.141
 63.170    608.000    649.161    -41.161    473.576    631.563    473.576    489.604    475.150
 63.270    620.812    611.811      9.001    473.658    594.841    473.658    489.126    475.161
 63.370    568.000    588.445    -20.445    473.740    572.069    473.740    488.683    475.173
 63.470    587.000    575.169     11.831    473.823    559.352    473.823    488.273    475.187
 63.570    601.000    569.136     31.864    473.906    553.845    473.906    487.894    475.204
 63.670    549.736    568.790    -19.054    473.989    553.994    473.989    487.544    475.224
 63.770    583.994    573.803     10.191    474.073    559.471    474.073    487.221    475.248
 63.870    610.000    584.847     25.153    474.157    570.947    474.157    486.923    475.275
 63.970    653.000    603.267     49.733    474.242    589.772    474.242    486.650    475.305
 64.070    693.000    630.660     62.340    474.326    617.541    474.326    486.400    475.339
 64.170    728.000    668.313     59.687    474.412    655.543    474.412    486.171    475.376
 64.270    735.000    716.559     18.441    474.497    704.113    474.497    485.962    475.416
 64.370    769.000    774.090     -5.090    474.583    761.945    474.583    485.772    475.460
 64.470    831.000    837.324     -6.324    474.668    825.461    474.668    485.600    475.506
 64.570    902.000    899.965      2.035    474.755    888.368    474.755    485.445    475.556
 64.670    891.047    953.220    -62.174    474.841    941.877    474.841    485.307    475.608
 64.770    972.666    987.687    -15.021    474.927    976.590    474.927    485.183    475.663
 64.870   1026.000    997.013     28.987    475.014    986.156    475.014    485.074    475.720
 64.970    979.000    980.727     -1.727    475.101    970.100    475.101    484.978    475.780
 65.070    948.187    943.788      4.399    475.188    933.380    475.188    484.896    475.841
 65.170    912.000    894.052     17.948    475.276    883.848    475.276    484.826    475.905
 65.270    841.000    839.639      1.361    475.363    829.623    475.363    484.768    475.971
 65.370    759.000    786.966    -27.966    475.450    777.121    475.450    484.721    476.038
 65.470    726.000    739.814    -13.814    475.538    730.122    475.538    484.686    476.107
 65.570    747.231    699.511     47.720    475.626    689.955    475.626    484.660    476.177
 65.670    656.000    665.886     -9.886    475.714    656.450    475.714    484.646    476.249
 65.770    610.456    638.297    -27.842    475.801    628.967    475.801    484.641    476.322
 65.870    616.000    616.126     -0.126    475.889    606.889    475.889    484.645    476.396
 65.970    581.000    598.774    -17.774    475.977    589.618    475.977    484.659    476.472
 66.070    583.000    585.607     -2.607    476.065    576.523    476.065    484.682    476.548
 66.170    575.830    576.004     -0.174    476.153    566.982    476.153    484.714    476.625
 66.270    559.000    569.427    -10.427    476.241    560.459    476.241    484.755    476.704
 66.370    589.000    565.460     23.540    476.329    556.537    476.329    484.805    476.783
 66.470    548.000    563.805    -15.805    476.417    554.919    476.417    484.862    476.863
 66.570    599.313    564.295     35.018    476.504    555.437    476.504    484.929    476.943
 66.670    526.687    566.941    -40.254    476.592    558.103    476.592    485.004    477.025
 66.770    568.000    572.039     -4.039    476.680    563.211    476.680    485.087    477.106
 66.870    605.000    580.336     24.664    476.767    571.510    476.767    485.179    477.189
 66.970    616.000    593.260     22.740    476.855    584.426    476.855    485.279    477.272
 67.070    610.000    613.195     -3.195    476.942    604.343    476.942    485.388    477.355
 67.170    652.000    643.741      8.259    477.029    634.861    477.029    485.505    477.439
 67.270    737.862    689.835     48.027    477.116    680.918    477.116    485.632    477.523
 67.370    751.000    757.559     -6.559    477.203    748.596    477.203    485.767    477.608
 67.470    788.000    853.443    -65.443    477.289    844.426    477.289    485.912    477.693
 67.570    972.000    983.160    -11.160    477.375    974.081    477.375    486.066    477.778
 67.670   1161.000   1149.684     11.316    477.462   1140.538    477.462    486.230    477.864
 67.770   1431.000   1351.191     79.809    477.547   1341.975    477.547    486.405    477.950
 67.870   1495.000   1579.104    -84.104    477.633   1569.816    477.633    486.590    478.036
 67.970   1758.445   1816.617    -58.172    477.718   1807.258    477.718    486.786    478.123
 68.070   2017.000   2038.150    -21.150    477.804   2028.717    477.804    486.994    478.210
 68.170   2233.000   2211.096     21.904    477.888   2201.586    477.888    487.215    478.297
 68.270   2299.824   2302.701     -2.877    477.973   2293.100    477.973    487.448    478.385
 68.370   2307.000   2292.598     14.402    478.057   2282.881    478.057    487.695    478.472
 68.470   2278.000   2183.329     94.671    478.141   2173.456    478.141    487.957    478.560
 68.570   2042.000   1998.825     43.175    478.224   1988.753    478.224    488.234    478.649
 68.670   1851.000   1772.560     78.440    478.307   1762.246    478.307    488.528    478.737
 68.770   1608.000   1536.005     71.995    478.390   1525.414    478.390    488.839    478.826
 68.870   1275.648   1313.024    -37.376    478.472   1302.128    478.472    489.170    478.916
 68.970   1055.020   1118.719    -63.699    478.554   1107.495    478.554    489.521    479.005
 69.070    963.000    960.208      2.792    478.635    948.637    478.635    489.895    479.096
 69.170    799.697    838.207    -38.511    478.716    826.271    478.716    490.293    479.186
 69.270    721.000    749.054    -28.054    478.797    736.732    478.797    490.718    479.277
 69.370    639.957    686.777    -46.821    478.877    674.047    478.877    491.171    479.369
 69.470    666.000    644.849     21.151    478.956    631.684    478.956    491.656    479.462
 69.570    676.000    617.358     58.642    479.035    603.727    479.035    492.176    479.555
 69.670    569.000    599.593    -30.593    479.114    585.461    479.114    492.733    479.649
 69.770    571.983    588.148    -16.165    479.192    573.473    479.192    493.332    479.744
 69.870    572.000    580.756     -8.756    479.269    565.492    479.269    493.977    479.840
 69.970    583.000    576.008      6.992    479.346    560.104    479.346    494.671    479.937
 70.070    574.000    573.084      0.916    479.422    556.482    479.422    495.422    480.035
 70.170    576.000    571.535      4.465    479.498    554.172    479.498    496.232    480.135
 70.270    538.000    571.142    -33.142    479.573    552.949    479.573    497.110    480.236
 70.370    599.000    571.842     27.158    479.647    552.743    479.647    498.061    480.339
 70.470    548.562    573.699    -25.136    479.721    553.609    479.721    499.093    480.444
 70.570    581.256    576.922      4.334    479.794    555.750    479.794    500.213    480.552
 70.670    532.366    581.927    -49.562    479.867    559.572    479.867    501.429    480.661
 70.770    548.000    589.434    -41.434    479.939    565.787    479.939    502.750    480.773
 70.870    638.000    600.600     37.400    480.010    575.542    480.010    504.186    480.888
 70.970    635.000    617.163     17.837    480.080    590.564    480.080    505.745    481.006
 71.070    675.000    641.557     33.443    480.150    613.278    480.150    507.437    481.127
 71.170    676.000    676.930     -0.930    480.219    646.821    480.219    509.272    481.251
 71.270    763.761    726.972     36.789    480.287    694.872    480.287    511.259    481.379
 71.370    824.634    795.486     29.148    480.355    761.225    480.355    513.407    481.510
 71.470    842.000    885.660    -43.660    480.421    849.064    480.421    515.723    481.646
 71.570   1039.081    999.109     39.972    480.487    959.994    480.487    518.214    481.785
 71.670   1077.000   1134.792    -57.792    480.553   1092.976    480.553    520.882    481.928
 71.770   1275.000   1288.027    -13.027    480.617   1243.330    480.617    523.729    482.075
 71.870   1318.000   1449.721   -131.721    480.680   1401.968    480.680    526.750    482.225
 71.970   1588.038   1605.966    -17.929    480.743   1555.000    480.743    529.933    482.379
 72.070   1758.000   1738.469     19.531    480.805   1684.154    480.805    533.259    482.534
 72.170   1789.000   1827.021    -38.021    480.866   1769.253    480.866    536.699    482.691
 72.270   1796.266   1855.225    -58.959    480.926   1793.939    480.926    540.211    482.848
 72.370   1739.000   1817.649    -78.649    480.985   1752.832    480.985    543.737    483.003
 72.470   1769.000   1722.727     46.273    481.043   1654.436    481.043    547.204    483.155
 72.570   1651.000   1588.400     62.600    481.100   1516.781    481.100    550.524    483.301
 72.670   1378.569   1434.764    -56.194    481.157   1360.065    481.157    553.594    483.438
 72.770   1379.000   1279.046     99.954    481.212   1201.633    481.212    556.302    483.563
 72.870   1196.000   1133.809     62.191    481.267   1054.164    481.267    558.534    483.675
 72.970    974.000   1006.854    -32.854    481.320    925.569    481.320    560.186    483.771
 73.070    863.000    901.766    -38.766    481.373    819.516    481.373    561.175    483.849
 73.170    803.681    818.763    -15.082    481.424    736.281    481.424    561.449    483.908
 73.270    788.000    755.740     32.260    481.475    673.771    481.475    560.995    483.947
 73.370    667.000    709.323    -42.323    481.524    628.585    481.524    559.839    483.968
 73.470    693.000    675.781     17.219    481.573    596.928    481.573    558.046    483.971
 73.570    639.000    651.671    -12.671    481.620    575.261    481.620    555.709    483.958
 73.670    598.296    634.177    -35.881    481.666    560.658    481.666    552.936    483.933
 73.770    639.000    621.223     17.777    481.711    550.925    481.711    549.841    483.897
 73.870    639.000    611.398     27.602    481.756    544.539    481.756    546.535    483.854
 73.970    540.000    603.816    -63.816    481.799    540.515    481.799    543.114    483.805
 74.070    570.000    597.948    -27.948    481.841    538.236    481.841    539.662    483.753
 74.170    586.292    593.470     -7.178    481.881    537.312    481.881    536.247    483.700
 74.270    557.000    590.153    -33.153    481.921    537.459    481.921    532.919    483.647
 74.370    624.827    587.778     37.049    481.960    538.419    481.960    529.717    483.596
 74.470    565.087    586.082    -20.995    481.997    539.903    481.997    526.665    483.547
 74.570    577.929    584.731     -6.803    482.033    541.561    482.033    523.780    483.501
 74.670    588.000    583.318      4.682    482.068    542.974    482.068    521.071    483.458
 74.770    609.000    581.403     27.597    482.102    543.700    482.102    518.539    483.419
 74.870    528.508    578.630    -50.122    482.135    543.384    482.135    516.184    483.384
 74.970    616.068    574.872     41.196    482.166    541.903    482.166    514.001    483.352
 75.070    609.665    570.308     39.357    482.196    539.442    482.196    511.983    483.323
 75.170    618.000    565.350     52.650    482.225    536.423    482.225    510.122    483.298
 75.270    597.958    560.513     37.445    482.253    533.370    482.253    508.408    483.276
 75.370    581.000    556.318     24.682    482.279    530.815    482.279    506.833    483.257
 75.470    633.000    553.266     79.734    482.304    529.270    482.304    505.387    483.240
 75.570    596.000    551.838     44.162    482.328    529.224    482.328    504.059    483.226
 75.670    608.000    552.498     55.502    482.350    531.152    482.350    502.841    483.215
 75.770    578.000    555.686     22.314    482.372    535.501    482.372    501.724    483.205
 75.870    528.465    561.776    -33.312    482.392    542.658    482.392    500.700    483.197
 75.970    541.000    571.031    -30.031    482.410    552.889    482.410    499.759    483.191
 76.070    623.000    583.515     39.485    482.427    566.269    482.427    498.895    483.187
 76.170    600.000    599.014      0.986    482.443    582.589    482.443    498.100    483.183
 76.270    658.817    616.945     41.872    482.458    601.276    482.458    497.369    483.181
 76.370    623.000    636.294    -13.294    482.471    621.318    482.471    496.695    483.180
 76.470    683.000    655.561     27.439    482.482    641.226    482.482    496.072    483.179
 76.570    655.000    672.789    -17.789    482.493    659.045    482.493    495.497    483.179
 76.670    728.000    685.719     42.281    482.502    672.522    482.502    494.964    483.180
 76.770    729.872    692.239     37.632    482.509    679.552    482.509    494.469    483.182
 76.870    710.000    691.061     18.939    482.515    678.847    482.515    494.010    483.183
 76.970    721.222    682.243     38.979    482.520    670.471    482.520    493.581    483.186
 77.070    648.087    667.168    -19.080    482.523    655.806    482.523    493.182    483.188
 77.170    649.757    647.961      1.795    482.524    636.980    482.524    492.808    483.191
 77.270    609.880    626.832    -16.952    482.525    616.205    482.525    492.458    483.194
 77.370    572.779    605.656    -32.877    482.523    595.358    482.523    492.129    483.198
 77.470    558.000    585.830    -27.830    482.521    575.837    482.521    491.820    483.201
 77.570    589.000    568.259     20.741    482.516    558.549    482.516    491.528    483.205
 77.670    529.000    553.405    -24.405    482.511    543.957    482.511    491.253    483.210
 77.770    520.000    541.364    -21.364    482.503    532.160    482.503    490.993    483.214
 77.870    541.000    531.961      9.039    482.495    522.983    482.495    490.746    483.219
 77.970    560.836    524.852     35.984    482.484    516.083    482.484    490.512    483.224
 78.070    530.528    519.617     10.911    482.472    511.042    482.472    490.289    483.229
 78.170    447.000    515.834    -68.834    482.459    507.439    482.459    490.077    483.235
 78.270    519.000    513.127      5.873    482.444    504.898    482.444    489.875    483.242
 78.370    530.190    511.192     18.998    482.427    503.117    482.427    489.682    483.249
 78.470    501.000    509.798     -8.798    482.409    501.864    482.409    489.497    483.256
 78.570    518.000    508.783      9.217    482.390    500.978    482.390    489.320    483.265
 78.670    499.000    508.037     -9.037    482.368    500.351    482.368    489.149    483.274
 78.770    527.516    507.496     20.020    482.345    499.918    482.345    488.986    483.283
 78.870    506.243    507.123     -0.880    482.321    499.643    482.321    488.828    483.294
 78.970    525.000    506.904     18.096    482.294    499.512    482.294    488.677    483.305
 79.070    475.000    506.838    -31.838    482.267    499.525    482.267    488.530    483.317
 79.170    528.000    506.937     21.063    482.237    499.694    482.237    488.388    483.330
 79.270    479.552    507.220    -27.668    482.206    500.039    482.206    488.251    483.343
 79.370    503.000    507.715     -4.715    482.173    500.587    482.173    488.117    483.357
 79.470    493.389    508.455    -15.066    482.139    501.374    482.139    487.988    483.371
 79.570    490.783    509.486    -18.703    482.103    502.444    482.103    487.862    483.385
 79.670    541.000    510.866     30.134    482.065    503.856    482.065    487.739    483.399
 79.770    509.000    512.673     -3.673    482.025    505.690    482.025    487.619    483.413
 79.870    505.000    515.002    -10.002    481.984    508.041    481.984    487.502    483.426
 79.970    526.000    517.988      8.012    481.941    511.046    481.941    487.387    483.436
 80.070    550.000    521.872     28.128    481.897    514.944    481.897    487.273    483.445
 80.170    547.000    526.857     20.143    481.850    519.943    481.850    487.162    483.450
 80.270    566.233    533.221     33.012    481.802    526.320    481.802    487.052    483.452
 80.370    499.000    541.285    -42.285    481.753    534.398    481.753    486.943    483.448
 80.470    522.000    551.390    -29.390    481.701    544.520    481.701    486.835    483.438
 80.570    565.537    563.840      1.697    481.648    556.991    481.648    486.727    483.421
 80.670    585.000    578.811      6.189    481.593    571.987    481.593    486.620    483.396
 80.770    567.458    596.258    -28.800    481.536    589.466    481.536    486.513    483.362
 80.870    593.000    615.841    -22.841    481.478    609.088    481.478    486.406    483.318
 80.970    632.000    636.886     -4.886    481.418    630.180    481.418    486.298    483.264
 81.070    656.446    658.411     -1.965    481.355    651.759    481.355    486.190    483.200
 81.170    642.334    679.219    -36.885    481.292    672.630    481.292    486.081    483.125
 81.270    681.000    698.068    -17.068    481.226    691.549    481.226    485.972    483.040
 81.370    735.616    713.833     21.783    481.159    707.391    481.159    485.862    482.946
 81.470    788.000    725.622     62.378    481.089    719.262    481.089    485.752    482.842
 81.570    778.751    732.836     45.915    481.018    726.563    481.018    485.641    482.730
 81.670    746.000    735.224     10.776    480.946    729.041    480.946    485.529    482.612
 81.770    745.707    732.868     12.839    480.871    726.776    480.871    485.417    482.487
 81.870    741.000    726.084     14.916    480.795    720.085    480.795    485.304    482.357
 81.970    672.000    715.371    -43.371    480.716    709.464    480.716    485.191    482.222
 82.070    710.000    701.441      8.559    480.636    695.625    480.636    485.078    482.085
 82.170    691.000    685.241      5.759    480.554    679.514    480.554    484.964    481.945
 82.270    676.000    667.811      8.189    480.471    662.169    480.471    484.851    481.803
 82.370    638.000    650.058    -12.058    480.385    644.499    480.385    484.737    481.659
 82.470    618.000    632.621    -14.621    480.297    627.141    480.297    484.622    481.515
 82.570    583.000    615.883    -32.883    480.208    610.478    480.208    484.508    481.371
 82.670    579.000    600.098    -21.098    480.117    594.766    480.117    484.393    481.226
 82.770    544.000    585.508    -41.508    480.024    580.243    480.024    484.278    481.081
 82.870    565.190    572.379     -7.188    479.929    567.177    479.929    484.163    480.937
 82.970    588.359    560.972     27.388    479.832    555.828    479.832    484.048    480.793
 83.070    524.000    551.506    -27.506    479.734    546.417    479.734    483.932    480.649
 83.170    578.791    544.130     34.661    479.633    539.093    479.633    483.816    480.505
 83.270    509.000    538.915    -29.915    479.531    533.924    479.531    483.700    480.362
 83.370    560.700    535.844     24.856    479.427    530.896    479.427    483.583    480.219
 83.470    543.000    534.809      8.191    479.321    529.900    479.321    483.466    480.076
 83.570    579.000    535.600     43.400    479.213    530.728    479.213    483.349    479.934
 83.670    580.245    537.908     42.337    479.103    533.068    479.103    483.231    479.791
 83.770    583.000    541.321     41.679    478.991    536.511    478.991    483.113    479.649
 83.870    509.000    545.337    -36.337    478.877    540.555    478.877    482.994    479.506
 83.970    548.000    549.385     -1.385    478.762    544.628    478.762    482.875    479.363
 84.070    500.000    552.852    -52.852    478.644    548.119    478.644    482.755    479.220
 84.170    564.000    555.148      8.852    478.525    550.438    478.525    482.635    479.077
 84.270    553.000    555.807     -2.807    478.403    551.119    478.403    482.514    478.933
 84.370    503.000    554.595    -51.595    478.280    549.928    478.280    482.393    478.789
 84.470    581.238    551.569     29.670    478.155    546.922    478.155    482.271    478.644
 84.570    571.000    547.036     23.964    478.028    542.408    478.028    482.148    478.498
 84.670    496.008    541.452    -45.443    477.899    536.840    477.899    482.025    478.351
 84.770    542.000    535.303      6.697    477.768    530.707    477.768    481.901    478.204
 84.870    526.000    529.039     -3.039    477.636    524.454    477.636    481.777    478.056
 84.970    561.365    523.029     38.336    477.501    518.454    477.501    481.652    477.906
 85.070    511.000    517.544     -6.544    477.365    512.975    477.365    481.527    477.756
 85.170    472.000    512.760    -40.760    477.226    508.195    477.226    481.400    477.605
 85.270    490.883    508.764    -17.881    477.086    504.200    477.086    481.274    477.452
 85.370    484.392    505.568    -21.176    476.943    501.002    476.943    481.146    477.298
 85.470    566.000    503.130     62.870    476.799    498.560    476.799    481.018    477.143
 85.570    511.000    501.377      9.623    476.653    496.801    476.653    480.890    476.987
 85.670    526.000    500.225     25.775    476.505    495.640    476.505    480.761    476.829
 85.770    453.000    499.595    -46.595    476.355    494.999    476.355    480.631    476.670
 85.870    562.000    499.430     62.570    476.203    494.820    476.203    480.501    476.510
 85.970    504.000    499.700      4.300    476.050    495.074    476.050    480.370    476.348
 86.070    534.000    500.408     33.592    475.894    495.763    475.894    480.239    476.185
 86.170    544.000    501.592     42.408    475.736    496.926    475.736    480.108    476.020
 86.270    498.000    503.322     -5.322    475.577    498.633    475.577    479.976    475.854
 86.370    548.000    505.695     42.305    475.415    500.981    475.415    479.843    475.686
 86.470    524.000    508.830     15.170    475.252    504.087    475.252    479.711    475.517
 86.570    552.000    512.849     39.151    475.087    508.075    475.087    479.578    475.346
 86.670    528.000    517.867     10.133    474.920    513.058    474.920    479.444    475.173
 86.770    524.000    523.971      0.029    474.751    519.124    474.751    479.311    474.999
 86.870    528.000    531.194     -3.194    474.580    526.306    474.580    479.178    474.823
 86.970    527.000    539.493    -12.493    474.407    534.562    474.407    479.044    474.646
 87.070    546.000    548.726     -2.726    474.232    543.748    474.232    478.910    474.467
 87.170    542.261    558.625    -16.364    474.056    553.598    474.056    478.777    474.286
 87.270    577.000    568.793      8.207    473.877    563.715    473.877    478.643    474.103
 87.370    591.000    578.691     12.309    473.697    573.561    473.697    478.510    473.919
 87.470    601.000    587.660     13.340    473.514    582.476    473.514    478.377    473.734
 87.570    613.672    594.968     18.704    473.330    589.731    473.330    478.245    473.546
 87.670    615.000    599.926     15.074    473.144    594.637    473.144    478.113    473.357
 87.770    654.000    602.046     51.954    472.956    596.706    472.956    477.982    473.167
 87.870    627.000    601.186     25.814    472.766    595.795    472.766    477.851    472.974
 87.970    584.856    597.596    -12.741    472.575    592.155    472.575    477.721    472.780
 88.070    543.894    591.841    -47.948    472.381    586.348    472.381    477.593    472.584
 88.170    560.000    584.658    -24.658    472.186    579.111    472.186    477.465    472.387
 88.270    565.000    576.828    -11.828    471.989    571.224    471.989    477.339    472.188
 88.370    559.000    569.097    -10.097    471.790    563.433    471.790    477.214    471.987
 88.470    572.220    562.121     10.098    471.589    556.392    471.589    477.091    471.785
 88.570    575.000    556.432     18.568    471.386    550.633    471.386    476.970    471.581
 88.670    556.000    552.407      3.593    471.181    546.534    471.181    476.851    471.375
 88.770    527.000    550.262    -23.262    470.975    544.309    470.975    476.734    471.167
 88.870    551.000    550.039      0.961    470.767    544.002    470.767    476.620    470.958
 88.970    583.335    551.619     31.716    470.556    545.493    470.556    476.508    470.748
 89.070    582.000    554.732     27.268    470.345    548.511    470.345    476.400    470.535
 89.170    595.000    558.973     36.027    470.131    552.652    470.131    476.294    470.321
 89.270    557.000    563.828     -6.828    469.915    557.400    469.915    476.193    470.106
 89.370    610.000    568.696     41.304    469.698    562.156    469.698    476.095    469.889
 89.470    616.270    572.934     43.337    469.479    566.273    469.479    476.001    469.670
 89.570    581.000    575.916      5.084    469.258    569.128    469.258    475.913    469.449
 89.670    559.943    577.132    -17.189    469.035    570.208    469.035    475.828    469.228
 89.770    579.000    576.286      2.714    468.811    569.218    468.811    475.750    469.004
 89.870    602.000    573.360     28.640    468.585    566.137    468.585    475.677    468.779
 89.970    530.000    568.597    -38.597    468.357    561.210    468.357    475.610    468.553
 90.070    564.000    562.420      1.580    468.127    554.859    468.127    475.549    468.325
 90.170    575.000    555.327     19.673    467.896    547.581    467.896    475.496    468.095
 90.270    541.000    547.810     -6.810    467.662    539.869    467.662    475.450    467.864
 90.370    545.672    540.303      5.369    467.427    532.156    467.427    475.411    467.632
 90.470    545.000    533.156     11.844    467.191    524.794    467.191    475.381    467.398
 90.570    511.484    526.634    -15.150    466.952    518.046    466.952    475.360    467.162
 90.670    511.000    520.910     -9.910    466.712    512.086    466.712    475.348    466.926
 90.770    497.538    516.080    -18.542    466.471    507.007    466.471    475.345    466.687
 90.870    516.000    512.167      3.833    466.227    502.836    466.227    475.353    466.448
 90.970    549.000    509.144     39.856    465.982    499.542    465.982    475.371    466.207
 91.070    508.000    506.951      1.049    465.735    497.066    465.735    475.400    465.965
 91.170    463.033    505.510    -42.477    465.487    495.329    465.487    475.440    465.721
 91.270    510.000    504.745      5.255    465.237    494.254    465.237    475.492    465.476
 91.370    526.461    504.593     21.868    464.985    493.780    464.985    475.556    465.230
 91.470    486.853    505.018    -18.165    464.732    493.869    464.732    475.632    464.983
 91.570    491.000    506.015    -15.015    464.477    494.515    464.477    475.720    464.734
 91.670    543.005    507.614     35.390    464.221    495.749    464.221    475.820    464.484
 91.770    488.000    509.882    -21.882    463.962    497.638    463.962    475.932    464.233
 91.870    519.000    512.921      6.079    463.703    500.284    463.703    476.056    463.980
 91.970    506.000    516.861    -10.861    463.441    503.818    463.441    476.191    463.727
 92.070    520.000    521.855     -1.855    463.179    508.394    463.179    476.336    463.472
 92.170    493.231    528.066    -34.835    462.914    514.175    462.914    476.491    463.215
 92.270    464.000    535.653    -71.653    462.648    521.322    462.648    476.653    462.958
 92.370    586.976    544.757     42.219    462.381    529.977    462.381    476.821    462.699
 92.470    555.000    555.479     -0.479    462.112    540.245    462.112    476.993    462.438
 92.570    615.056    567.868     47.188    461.841    552.176    461.841    477.165    462.176
 92.670    571.000    581.898    -10.898    461.569    565.749    461.569    477.336    461.913
 92.770    593.000    597.459     -4.459    461.296    580.858    461.296    477.501    461.648
 92.870    645.000    614.343     30.657    461.021    597.297    461.021    477.657    461.381
 92.970    586.228    632.233    -46.004    460.745    614.755    460.745    477.799    461.113
 93.070    620.000    650.708    -30.708    460.467    632.816    460.467    477.922    460.842
 93.170    653.000    669.261    -16.261    460.188    650.979    460.188    478.022    460.570
 93.270    672.000    687.350    -15.350    459.907    668.707    459.907    478.094    460.295
 93.370    703.000    704.483     -1.483    459.625    685.511    459.625    478.133    460.018
 93.470    708.000    720.320    -12.320    459.342    701.058    459.342    478.135    459.739
 93.570    716.632    734.741    -18.109    459.057    715.230    459.057    478.097    459.457
 93.670    782.000    747.841     34.159    458.771    728.125    458.771    478.014    459.173
 93.770    735.000    759.895    -24.895    458.483    740.021    458.483    477.886    458.887
 93.870    775.000    771.157      3.843    458.195    751.172    458.195    477.710    458.597
 93.970    816.000    781.819     34.181    457.905    761.770    457.905    477.487    458.306
 94.070    735.138    791.993    -56.855    457.613    771.927    457.613    477.219    458.011
 94.170    826.000    801.761     24.239    457.321    781.722    457.321    476.907    457.715
 94.270    776.920    811.236    -34.316    457.027    791.263    457.027    476.554    457.416
 94.370    826.734    820.574      6.161    456.732    800.705    456.732    476.165    457.114
 94.470    835.000    829.904      5.096    456.435    810.170    456.435    475.744    456.811
 94.570    808.000    839.200    -31.200    456.138    819.629    456.138    475.295    456.505
 94.670    836.122    848.171    -12.050    455.839    828.783    455.839    474.825    456.198
 94.770    892.000    856.210     35.790    455.539    837.023    455.539    474.338    455.889
 94.870    877.000    862.429     14.571    455.238    843.453    455.238    473.840    455.579
 94.970    896.752    865.764     30.988    454.936    847.007    454.936    473.335    455.267
 95.070    916.000    865.160     50.840    454.632    846.624    454.632    472.828    454.954
 95.170    909.967    859.802     50.164    454.328    841.485    454.328    472.322    454.639
 95.270    868.212    849.348     18.865    454.022    831.241    454.022    471.823    454.324
 95.370    881.118    834.050     47.068    453.715    816.145    453.715    471.332    454.007
 95.470    897.000    814.747     82.253    453.408    797.028    453.408    470.853    453.690
 95.570    838.076    792.708     45.368    453.099    775.158    453.099    470.389    453.372
 95.670    773.259    769.451      3.808    452.789    752.050    452.789    469.941    453.053
 95.770    821.000    746.577     74.423    452.478    729.305    452.478    469.511    452.733
 95.870    733.000    725.655      7.345    452.167    708.489    452.167    469.102    452.413
 95.970    708.084    708.191     -0.107    451.854    691.106    451.854    468.713    452.091
 96.070    744.105    695.520     48.585    451.540    678.492    451.540    468.347    451.770
 96.170    705.845    688.808     17.037    451.226    671.810    451.226    468.005    451.447
 96.270    687.000    689.036     -2.036    450.910    672.043    450.910    467.687    451.125
 96.370    690.000    697.083     -7.083    450.594    680.067    450.594    467.394    450.801
 96.470    671.000    713.493    -42.493    450.277    696.425    450.277    467.127    450.477
 96.570    719.553    738.614    -19.061    449.959    721.467    449.959    466.887    450.153
 96.670    785.000    772.547     12.453    449.640    755.292    449.640    466.674    449.828
 96.770    801.374    815.101    -13.728    449.320    797.709    449.320    466.490    449.502
 96.870    874.000    865.749      8.251    449.000    848.190    449.000    466.335    449.176
 96.970    904.000    923.574    -19.574    448.679    905.820    448.679    466.209    448.850
 97.070   1009.000    987.230     21.770    448.357    969.249    448.357    466.115    448.523
 97.170   1075.247   1054.894     20.353    448.034   1036.657    448.034    466.052    448.196
 97.270   1174.755   1124.257     50.498    447.711   1105.732    447.711    466.022    447.868
 97.370   1187.000   1192.523     -5.523    447.387   1173.679    447.387    466.025    447.540
 97.470   1251.000   1256.469     -5.469    447.063   1237.274    447.063    466.063    447.211
 97.570   1294.639   1312.590    -17.951    446.737   1293.010    446.737    466.137    446.883
 97.670   1354.842   1357.379     -2.537    446.412   1337.380    446.412    466.248    446.553
 97.770   1454.197   1387.770     66.427    446.085   1367.315    446.085    466.398    446.224
 97.870   1438.000   1401.653     36.347    445.758   1380.703    445.758    466.587    445.894
 97.970   1457.296   1398.301     58.995    445.431   1376.814    445.431    466.816    445.563
 98.070   1318.996   1378.497    -59.501    445.103   1356.430    445.103    467.089    445.233
 98.170   1406.889   1344.333     62.556    444.775   1321.637    444.775    467.405    444.902
 98.270   1357.000   1298.771     58.229    444.446   1275.398    444.446    467.766    444.571
 98.370   1291.000   1245.187     45.813    444.117   1221.085    444.117    468.173    444.239
 98.470   1122.252   1187.011    -64.760    443.787   1162.129    443.787    468.629    443.908
 98.570   1069.913   1127.504    -57.591    443.457   1101.788    443.457    469.133    443.576
 98.670   1059.318   1069.627    -10.309    443.127   1043.024    443.127    469.689    443.244
 98.770   1025.000   1015.987      9.013    442.796    988.442    442.796    470.296    442.911
 98.870    963.000    968.822     -5.822    442.465    940.280    442.465    470.956    442.579
 98.970    909.717    930.007    -20.291    442.134    900.414    442.134    471.669    442.246
 99.070    887.846    901.073    -13.227    441.803    870.372    441.803    472.437    441.914
 99.170    854.000    883.208    -29.208    441.471    851.346    441.471    473.260    441.581
 99.270    895.000    877.287     17.713    441.139    844.209    441.139    474.137    441.248
 99.370    884.000    883.907      0.093    440.807    849.561    440.807    475.067    440.915
 99.470    880.000    903.332    -23.332    440.475    867.666    440.475    476.051    440.582
 99.570    930.000    935.547     -5.547    440.143    898.512    440.143    477.086    440.249
 99.670   1015.996    980.253     35.743    439.811    941.802    439.811    478.169    439.917
 99.770   1047.000   1036.840     10.160    439.479    996.931    439.479    479.297    439.584
 99.870   1106.000   1104.365      1.635    439.146   1062.961    439.146    480.466    439.251
 99.970   1151.660   1181.511    -29.851    438.814   1138.581    438.814    481.668    438.918
100.070   1214.051   1266.558    -52.507    438.482   1222.078    438.482    482.897    438.586
100.170   1381.000   1357.345     23.655    438.150   1311.302    438.150    484.144    438.253
100.270   1408.000   1451.277    -43.277    437.818   1403.667    437.818    485.398    437.921
100.370   1603.920   1545.372     58.548    437.486   1496.202    437.486    486.647    437.589
100.470   1690.439   1636.393     54.046    437.154   1585.687    437.154    487.877    437.257
100.570   1749.000   1721.082     27.918    436.823   1668.877    436.823    489.071    436.925
100.670   1763.000   1796.426    -33.426    436.491   1742.776    436.491    490.211    436.594
100.770   1865.000   1859.899      5.101    436.160   1804.875    436.160    491.280    436.262
100.870   1907.000   1909.548     -2.548    435.830   1853.242    435.830    492.257    435.931
100.970   1910.331   1943.936    -33.606    435.499   1886.457    435.499    493.123    435.601
101.070   1979.700   1962.011     17.688    435.169   1903.487    435.169    493.856    435.270
101.170   1950.000   1963.075    -13.075    434.840   1903.653    434.840    494.439    434.941
101.270   1993.000   1946.935     46.065    434.510   1886.779    434.510    494.854    434.611
101.370   1947.000   1914.190     32.810    434.182   1853.478    434.182    495.087    434.282
101.470   1878.000   1866.484     11.516    433.853   1805.404    433.853    495.127    433.953
101.570   1889.000   1806.540     82.460    433.526   1745.287    433.526    494.967    433.625
101.670   1705.000   1737.894    -32.894    433.198   1676.668    433.198    494.605    433.297
101.770   1633.000   1664.435    -31.435    432.872   1603.433    432.872    494.041    432.969
101.870   1536.000   1589.918    -53.918    432.546   1529.332    432.546    493.283    432.643
101.970   1444.418   1517.594    -73.176    432.221   1457.609    432.221    492.341    432.316
102.070   1427.248   1450.001    -22.753    431.896   1390.787    431.896    491.229    431.991
102.170   1377.000   1388.879    -11.879    431.572   1330.591    431.572    489.962    431.666
102.270   1259.591   1335.177    -75.586    431.249   1277.953    431.249    488.560    431.342
102.370   1274.000   1289.093    -15.093    430.927   1233.050    430.927    487.043    431.018
102.470   1257.000   1250.147      6.853    430.605   1195.384    430.605    485.431    430.696
102.570   1206.000   1217.270    -11.270    430.285   1163.866    430.285    483.743    430.374
102.670   1223.661   1188.928     34.733    429.965   1136.941    429.965    481.999    430.053
102.770   1185.000   1163.288     21.712    429.646   1112.760    429.646    480.218    429.733
102.870   1165.506   1138.435     27.071    429.328   1089.390    429.328    478.414    429.414
102.970   1129.977   1112.629     17.349    429.012   1065.077    429.012    476.603    429.096
103.070   1136.000   1084.538     51.462    428.696   1038.475    428.696    474.798    428.780
103.170   1098.322   1053.404     44.918    428.381   1008.813    428.381    473.010    428.464
103.270   1072.421   1019.065     53.356    428.068    975.921    428.068    471.248    428.149
103.370    965.035    981.873    -16.837    427.756    940.142    427.756    469.519    427.836
103.470    918.000    942.525    -24.525    427.445    902.167    427.445    467.831    427.524
103.570    908.494    901.897      6.597    427.135    862.868    427.135    466.188    427.213
103.670    887.000    860.911     26.089    426.826    823.162    426.826    464.594    426.904
103.770    850.000    820.490     29.510    426.519    783.969    426.519    463.052    426.595
103.870    819.154    781.410     37.743    426.213    746.065    426.213    461.563    426.289
103.970    788.000    744.342     43.658    425.909    710.120    425.909    460.129    425.983
104.070    741.277    709.820     31.457    425.606    676.666    425.606    458.751    425.680
104.170    645.645    678.230    -32.585    425.304    646.090    425.304    457.428    425.377
104.270    690.295    649.812     40.484    425.004    618.632    425.004    456.161    425.077
104.370    595.000    624.666    -29.666    424.706    594.394    424.706    454.949    424.778
104.470    612.000    602.772      9.228    424.409    573.356    424.409    453.791    424.480
104.570    592.323    584.007      8.316    424.114    555.396    424.114    452.686    424.185
104.670    651.000    568.172     82.828    423.821    540.317    423.821    451.632    423.891
104.770    544.000    555.018    -11.018    423.529    527.871    423.529    450.629    423.598
104.870    591.000    544.270     46.730    423.239    517.783    423.239    449.675    423.308
104.970    534.000    535.648     -1.648    422.951    509.777    422.951    448.769    423.019
105.070    535.000    528.887      6.113    422.665    503.587    422.665    447.909    422.733
105.170    547.000    523.746     23.254    422.381    498.976    422.381    447.093    422.448
105.270    533.308    520.022     13.286    422.099    495.741    422.099    446.320    422.165
105.370    546.000    517.551     28.449    421.818    493.719    421.818    445.588    421.885
105.470    559.977    516.209     43.768    421.540    492.788    421.540    444.897    421.606
105.570    542.000    515.912     26.088    421.264    492.866    421.264    444.244    421.330
105.670    520.000    516.610      3.390    420.990    493.904    420.990    443.629    421.055
105.770    500.232    518.286    -18.054    420.718    495.886    420.718    443.049    420.783
105.870    513.000    520.946     -7.946    420.449    498.819    420.449    442.504    420.514
105.970    554.000    524.612     29.388    420.181    502.726    420.181    441.993    420.246
106.070    506.523    529.317    -22.794    419.916    507.644    419.916    441.514    419.981
106.170    552.523    535.095     17.428    419.654    513.604    419.654    441.066    419.718
106.270    528.000    541.968    -13.968    419.394    520.631    419.394    440.649    419.458
106.370    540.000    549.936     -9.936    419.136    528.727    419.136    440.261    419.200
106.470    543.000    558.970    -15.970    418.881    537.862    418.881    439.901    418.945
106.570    577.000    568.998      8.002    418.628    547.966    418.628    439.570    418.692
106.670    609.848    579.906     29.943    418.378    558.925    418.378    439.266    418.442
106.770    578.152    591.526    -13.374    418.131    570.573    418.131    438.988    418.194
106.870    584.000    603.646    -19.646    417.886    582.697    417.886    438.736    417.950
106.970    607.000    616.001     -9.001    417.644    595.034    417.644    438.511    417.708
107.070    579.000    628.286    -49.286    417.405    607.278    417.405    438.310    417.468
107.170    603.000    640.159    -37.159    417.168    619.089    417.168    438.135    417.232
107.270    640.507    651.258    -10.751    416.935    630.105    416.935    437.984    416.999
107.370    624.000    661.225    -37.225    416.705    639.968    416.705    437.859    416.769
107.470    622.264    669.738    -47.474    416.477    648.356    416.477    437.758    416.541
107.570    654.000    676.556    -22.556    416.253    655.028    416.253    437.682    416.317
107.670    640.459    681.558    -41.099    416.032    659.862    416.032    437.631    416.096
107.770    687.056    684.769      2.287    415.813    662.884    415.813    437.605    415.878
107.870    680.000    686.363     -6.363    415.599    664.267    415.599    437.604    415.663
107.970    674.000    686.638    -12.638    415.387    664.309    415.387    437.629    415.452
108.070    683.000    685.965     -2.965    415.179    663.381    415.179    437.680    415.244
108.170    654.392    684.743    -30.351    414.974    661.880    414.974    437.758    415.039
108.270    649.000    683.345    -34.345    414.772    660.179    414.772    437.864    414.838
108.370    726.000    682.087     43.913    414.574    658.593    414.574    437.997    414.640
108.470    685.683    681.204      4.479    414.379    657.358    414.379    438.158    414.446
108.570    656.520    680.837    -24.317    414.188    656.613    414.188    438.349    414.255
108.670    662.000    681.025    -19.025    414.001    656.396    414.001    438.570    414.068
108.770    688.155    681.704      6.452    413.817    656.642    413.817    438.823    413.885
108.870    627.000    682.707    -55.707    413.638    657.184    413.638    439.107    413.705
108.970    681.000    683.780     -2.780    413.462    657.766    413.462    439.425    413.530
109.070    680.000    684.591     -4.591    413.289    658.055    413.289    439.778    413.358
109.170    710.000    684.772     25.228    413.121    657.683    413.121    440.166    413.190
109.270    652.369    683.952    -31.583    412.957    656.275    412.957    440.591    413.026
109.370    669.000    681.805    -12.805    412.796    653.507    412.796    441.054    412.867
109.470    678.000    678.106     -0.106    412.640    649.149    412.640    441.558    412.711
109.570    660.000    672.759    -12.759    412.488    643.106    412.488    442.103    412.559
109.670    694.983    665.814     29.169    412.340    635.425    412.340    442.690    412.412
109.770    638.000    657.445    -19.445    412.196    626.279    412.196    443.323    412.269
109.870    633.012    647.919    -14.907    412.057    615.934    412.057    444.002    412.131
109.970    598.033    637.554    -39.521    411.922    604.705    411.922    444.729    411.996
110.070    632.598    626.685      5.912    411.792    592.925    411.792    445.507    411.867
110.170    634.000    615.635     18.365    411.666    580.917    411.666    446.336    411.741
110.270    566.545    604.702    -38.156    411.544    568.975    411.544    447.220    411.621
110.370    610.000    594.145     15.855    411.427    557.359    411.427    448.160    411.505
110.470    603.000    584.177     18.823    411.315    546.278    411.315    449.158    411.394
110.570    559.454    574.997    -15.542    411.208    535.928    411.208    450.216    411.287
110.670    566.000    566.732     -0.732    411.105    526.437    411.105    451.337    411.186
110.770    569.995    559.478     10.517    411.007    517.896    411.007    452.522    411.089
110.870    549.000    553.291     -4.291    410.914    510.360    410.914    453.774    410.997
110.970    536.554    548.190    -11.637    410.826    503.848    410.826    455.095    410.911
111.070    523.723    544.167    -20.444    410.744    498.347    410.744    456.487    410.829
111.170    583.000    541.185     41.815    410.666    493.819    410.666    457.952    410.753
111.270    587.019    539.188     47.831    410.593    490.206    410.593    459.492    410.681
111.370    552.000    538.106     13.894    410.526    487.436    410.526    461.109    410.615
111.470    534.000    537.859     -3.859    410.464    485.427    410.464    462.806    410.555
111.570    505.939    538.364    -32.425    410.407    484.095    410.407    464.583    410.500
111.670    549.000    539.537      9.463    410.356    483.355    410.356    466.443    410.450
111.770    536.000    541.298     -5.298    410.310    483.124    410.310    468.386    410.406
111.870    573.000    543.573     29.427    410.270    483.328    410.270    470.415    410.367
111.970    500.538    546.294    -45.756    410.235    483.898    410.235    472.529    410.335
112.070    554.994    549.405      5.589    410.206    484.777    410.206    474.729    410.308
112.170    525.000    552.857    -27.857    410.183    485.917    410.183    477.016    410.286
112.270    518.000    556.614    -38.614    410.166    487.281    410.166    479.389    410.271
112.370    523.543    560.651    -37.108    410.154    488.846    410.154    481.847    410.262
112.470    590.131    564.955     25.176    410.149    490.600    410.149    484.389    410.258
112.570    552.939    569.526    -16.587    410.149    492.546    410.149    487.013    410.261
112.670    559.000    574.375    -15.375    410.156    494.697    410.156    489.715    410.270
112.770    556.000    579.525    -23.525    410.169    497.081    410.169    492.491    410.285
112.870    575.000    585.011    -10.011    410.188    499.738    410.188    495.337    410.307
112.970    584.000    590.884     -6.884    410.213    502.725    410.213    498.246    410.334
113.070    572.000    597.210    -25.210    410.245    506.114    410.245    501.211    410.368
113.170    547.000    604.074    -57.074    410.283    510.002    410.283    504.222    410.409
113.270    633.319    611.593     21.726    410.327    514.515    410.327    507.270    410.456
113.370    584.000    619.917    -35.917    410.379    519.816    410.379    510.342    410.510
113.470    594.464    629.240    -34.776    410.436    526.110    410.436    513.423    410.571
113.570    611.056    639.812    -28.756    410.501    533.667    410.501    516.499    410.638
113.670    610.000    651.957    -41.957    410.572    542.825    410.572    519.552    410.712
113.770    640.900    666.083    -25.184    410.650    554.015    410.650    522.563    410.793
113.870    663.904    682.708    -18.805    410.735    567.772    410.735    525.509    410.881
113.970    654.000    702.472    -48.472    410.828    584.761    410.828    528.369    410.976
114.070    673.788    726.161    -52.373    410.927    605.791    410.927    531.119    411.077
114.170    761.000    754.723      6.277    411.033    631.836    411.033    533.734    411.186
114.270    759.000    789.288    -30.288    411.147    664.050    411.147    536.187    411.302
114.370    796.000    831.175    -35.175    411.268    703.778    411.268    538.455    411.426
114.470    861.000    881.899    -20.899    411.396    752.560    411.396    540.511    411.556
114.570    880.959    943.167    -62.207    411.531    812.125    411.531    542.332    411.694
114.670   1012.000   1016.856     -4.856    411.675    884.373    411.675    543.897    411.840
114.770   1076.000   1104.984    -28.984    411.825    971.341    411.825    545.186    411.992
114.870   1205.000   1209.659     -4.659    411.984   1075.153    411.984    546.183    412.153
114.970   1415.000   1333.011     81.989    412.150   1197.951    412.150    546.877    412.321
115.070   1579.000   1477.104    101.896    412.324   1341.806    412.324    547.259    412.496
115.170   1723.574   1643.832     79.743    412.506   1508.617    412.506    547.327    412.680
115.270   1921.000   1834.796     86.204    412.696   1699.983    412.696    547.081    412.871
115.370   2092.272   2051.176     41.096    412.894   1917.079    412.894    546.529    413.070
115.470   2204.505   2293.584    -89.080    413.100   2160.508    413.100    545.681    413.277
115.570   2656.000   2561.914     94.086    413.315   2430.149    413.315    544.550    413.492
115.670   2915.000   2855.307     59.693    413.537   2725.126    413.537    543.156    413.715
115.770   3177.000   3171.946      5.054    413.768   3043.606    413.768    541.519    413.947
115.870   3524.000   3508.971     15.029    414.008   3382.704    414.008    539.663    414.187
115.970   3934.000   3862.483     71.517    414.256   3738.498    414.256    537.612    414.435
116.070   4178.000   4227.514    -49.514    414.513   4105.998    414.513    535.391    414.692
116.170   4555.000   4598.059    -43.059    414.778   4479.173    414.778    533.027    414.958
116.270   5113.389   4967.142    146.247    415.052   4851.025    415.052    530.544    415.233
116.370   5360.000   5326.938     33.062    415.335   5213.703    415.335    527.968    415.516
116.470   5682.000   5668.934     13.066    415.627   5558.673    415.627    525.321    415.808
116.570   5838.979   5984.171   -145.193    415.928   5876.955    415.928    522.625    416.110
116.670   6326.000   6263.556     62.444    416.238   6159.435    416.238    519.902    416.420
116.770   6387.433   6498.279   -110.846    416.557   6397.283    416.557    517.168    416.740
116.870   6840.009   6680.335    159.674    416.886   6582.478    416.886    514.441    417.070
116.970   6896.000   6803.114     92.886    417.224   6708.391    417.224    511.735    417.408
117.070   6875.000   6861.985     13.015    417.571   6770.375    417.571    509.064    417.757
117.170   6866.000   6854.764     11.236    417.928   6766.232    417.928    506.438    418.115
117.270   6805.000   6781.943     23.057    418.294   6696.439    418.294    503.868    418.482
117.370   6829.000   6646.635    182.365    418.670   6564.098    418.670    501.361    418.860
117.470   6320.000   6454.228   -134.228    419.056   6374.586    419.056    498.925    419.248
117.570   6174.000   6211.859    -37.859    419.452   6135.033    419.452    496.566    419.645
117.670   5930.000   5927.816      2.184    419.858   5853.720    419.858    494.286    420.053
117.770   5742.435   5610.962    131.473    420.273   5539.509    420.273    492.092    420.471
117.870   5321.250   5270.262     50.988    420.699   5201.359    420.699    489.983    420.899
117.970   4784.000   4914.400   -130.400    421.136   4847.956    421.136    487.964    421.338
118.070   4687.718   4551.500    136.217    421.582   4487.422    421.582    486.035    421.787
118.170   4187.000   4188.924     -1.924    422.039   4127.121    422.039    484.196    422.247
118.270   3920.000   3833.125     86.875    422.506   3773.507    422.506    482.449    422.718
118.370   3446.000   3489.556    -43.556    422.984   3432.036    422.984    480.792    423.199
118.470   3094.124   3162.633    -68.509    423.472   3107.125    423.472    479.225    423.692
118.570   2792.388   2855.729    -63.341    423.972   2802.151    423.972    477.747    424.195
118.670   2568.789   2571.223     -2.433    424.482   2519.496    424.482    476.357    424.709
118.770   2287.835   2310.570    -22.735    425.003   2260.619    425.003    475.053    425.235
118.870   2143.617   2074.405     69.212    425.535   2026.155    425.535    473.835    425.772
118.970   1831.329   1862.651    -31.322    426.078   1816.032    426.078    472.700    426.320
119.070   1600.000   1674.643    -74.643    426.633   1629.588    426.633    471.647    426.880
119.170   1533.000   1509.250     23.750    427.198   1465.694    427.198    470.673    427.451
119.270   1352.000   1364.990    -12.990    427.775   1322.870    427.775    469.776    428.034
119.370   1214.000   1240.146    -26.146    428.364   1199.402    428.364    468.956    428.629
119.470   1177.295   1132.864     44.431    428.964   1093.436    428.964    468.208    429.236
119.570   1028.000   1041.243    -13.243    429.576   1003.076    429.576    467.533    429.855
119.670   1025.000    963.411     61.589    430.199    926.450    430.199    466.927    430.485
119.770    871.000    897.582    -26.582    430.835    861.775    430.835    466.388    431.128
119.870    876.000    842.095     33.905    431.482    807.391    431.482    465.914    431.783
119.970    815.000    795.447     19.553    432.142    761.797    432.142    465.504    432.451
120.070    738.000    756.299    -18.299    432.813    723.655    432.813    465.156    433.131
120.170    705.001    723.483    -18.482    433.497    691.799    433.497    464.866    433.824
120.270    694.000    695.995     -1.995    434.193    665.227    434.193    464.635    434.529
120.370    722.000    672.987     49.013    434.902    643.092    434.902    464.459    435.247
120.470    638.000    653.745    -15.745    435.623    624.683    435.623    464.337    435.978
120.570    629.457    637.681     -8.224    436.357    609.412    436.357    464.267    436.722
120.670    606.000    624.310    -18.310    437.104    596.797    437.104    464.247    437.479
120.770    603.000    613.238    -10.238    437.863    586.445    437.863    464.277    438.249
120.870    642.653    604.143     38.510    438.635    578.035    438.635    464.353    439.032
120.970    556.163    596.764    -40.601    439.421    571.308    439.421    464.476    439.828
121.070    587.190    590.890     -3.699    440.219    566.056    440.219    464.642    440.638
121.170    547.000    586.347    -39.347    441.031    562.105    441.031    464.852    441.462
121.270    597.000    582.994     14.006    441.856    559.314    441.856    465.103    442.299
121.370    555.156    580.710    -25.553    442.694    557.566    442.694    465.394    443.150
121.470    584.000    579.393      4.607    443.546    556.760    443.546    465.724    444.014
121.570    583.000    578.954      4.046    444.412    556.808    444.412    466.091    444.893
121.670    560.862    579.312    -18.450    445.291    557.631    445.291    466.495    445.785
121.770    573.000    580.391     -7.391    446.185    559.152    446.185    466.934    446.691
121.870    589.000    582.117      6.883    447.092    561.301    447.092    467.408    447.611
121.970    634.004    584.416     49.587    448.013    564.004    448.013    467.915    448.545
122.070    600.000    587.213     12.787    448.949    567.187    448.949    468.453    449.494
122.170    594.545    590.428      4.117    449.898    570.771    449.898    469.023    450.456
122.270    619.000    593.977     25.023    450.862    574.674    450.862    469.623    451.433
122.370    583.191    597.772    -14.581    451.841    578.808    451.841    470.253    452.424
122.470    558.078    601.719    -43.641    452.834    583.082    452.834    470.910    453.430
122.570    572.000    605.720    -33.720    453.842    587.396    453.842    471.595    454.450
122.670    619.000    609.671      9.329    454.864    591.649    454.864    472.306    455.484
122.770    612.363    613.465     -1.102    455.902    595.736    455.902    473.043    456.532
122.870    619.000    616.996      2.004    456.954    599.549    456.954    473.805    457.595
122.970    626.000    620.156      5.844    458.022    602.984    458.022    474.592    458.673
123.070    628.000    622.846      5.154    459.105    605.940    459.105    475.401    459.765
123.170    619.000    624.968     -5.968    460.203    608.322    460.203    476.233    460.872
123.270    625.000    626.428     -1.428    461.316    610.035    461.316    477.087    461.993
123.370    681.000    627.230     53.770    462.446    611.086    462.446    477.963    463.128
123.470    601.000    627.313    -26.313    463.590    611.413    463.590    478.860    464.279
123.570    605.011    626.667    -21.657    464.751    611.007    464.751    479.776    465.444
123.670    630.370    625.309      5.061    465.927    609.886    465.927    480.713    466.624
123.770    667.000    623.276     43.724    467.120    608.086    467.120    481.669    467.819
123.870    632.000    620.622     11.378    468.329    605.664    468.329    482.645    469.028
123.970    615.000    617.417     -2.417    469.553    602.688    469.553    483.639    470.253
124.070    652.000    613.737     38.263    470.794    599.235    470.794    484.652    471.493
124.170    603.000    609.663     -6.663    472.052    595.388    472.052    485.684    472.748
124.270    647.709    605.280     42.429    473.326    591.230    473.326    486.734    474.018
124.370    575.366    600.672    -25.305    474.617    586.846    474.617    487.803    475.305
124.470    635.193    595.920     39.274    475.925    582.318    475.925    488.891    476.606
124.570    579.920    591.103    -11.183    477.249    577.724    477.249    489.997    477.924
124.670    572.128    586.296    -14.168    478.591    573.138    478.591    491.121    479.258
124.770    579.000    581.565     -2.565    479.950    568.629    479.950    492.265    480.608
124.870    588.530    576.972     11.557    481.325    564.255    481.325    493.428    481.974
124.970    604.000    572.570     31.430    482.719    560.071    482.719    494.610    483.358
