neutron_powder_diffraction_0151
R_wp: 3.868
Temperature (K): 1074.000
Counts: 83281.00
Wavelength (Ã…): 2.52098
COMMENTS
Test file for demonstrating the .xyy file format in Reel1.0
END OF HEADER
   tth       Y_obs     Y_calc      Y_res    Background    Phase_1_Nuc    Phase_1_Mag    Phase_2_Nuc    Phase_2_Mag
  9.970    604.485    579.573     24.913    578.899    579.516    578.899    578.955    578.899
 10.070    616.000    579.471     36.529    578.741    579.414    578.741    578.798    578.741
 10.170    590.000    579.372     10.628    578.580    579.314    578.580    578.637    578.580
 10.270    611.000    579.278     31.722    578.415    579.220    578.415    578.473    578.415
 10.370    602.487    579.193     23.294    578.248    579.135    578.248    578.306    578.248
 10.470    556.945    579.119    -22.174    578.078    579.061    578.078    578.136    578.078
 10.570    638.000    579.060     58.940    577.905    579.001    577.905    577.963    577.905
 10.670    600.357    579.020     21.337    577.729    578.961    577.729    577.788    577.729
 10.770    554.000    579.005    -25.005    577.550    578.945    577.550    577.609    577.550
 10.870    593.000    579.023     13.977    577.369    578.964    577.369    577.428    577.369
 10.970    582.000    579.087      2.913    577.184    579.027    577.184    577.244    577.184
 11.070    549.000    579.213    -30.213    576.997    579.153    576.997    577.057    576.997
 11.170    643.000    579.425     63.575    576.808    579.364    576.808    576.867    576.808
 11.270    539.975    579.761    -39.787    576.615    579.700    576.615    576.675    576.615
 11.370    594.000    580.284     13.716    576.420    580.222    576.420    576.480    576.420
 11.470    605.000    581.132     23.868    576.222    581.069    576.222    576.283    576.222
 11.570    624.158    582.696     41.463    576.022    582.631    576.022    576.082    576.022
 11.670    569.932    586.110    -16.178    575.819    586.043    575.819    575.880    575.819
 11.770    615.152    594.092     21.060    575.614    594.021    575.614    575.675    575.614
 11.870    643.000    611.158     31.842    575.406    611.073    575.406    575.471    575.406
 11.970    654.000    640.954     13.046    575.195    640.851    575.195    575.263    575.195
 12.070    654.098    679.732    -25.634    574.983    679.608    574.983    575.050    574.983
 12.170    688.000    710.347    -22.347    574.768    710.205    574.768    574.835    574.768
 12.270    681.000    711.138    -30.138    574.550    710.995    574.550    574.618    574.550
 12.370    650.000    681.190    -31.190    574.330    681.063    574.330    574.399    574.330
 12.470    668.000    641.787     26.213    574.108    641.681    574.108    574.177    574.108
 12.570    567.000    610.856    -43.856    573.884    610.766    573.884    573.953    573.884
 12.670    548.000    592.752    -44.752    573.658    592.672    573.658    573.727    573.658
 12.770    575.000    584.000     -9.000    573.429    583.925    573.429    573.499    573.429
 12.870    589.000    580.013      8.987    573.198    579.939    573.198    573.268    573.198
 12.970    571.000    577.966     -6.966    572.965    577.893    572.965    573.036    572.965
 13.070    592.000    576.665     15.335    572.730    576.592    572.730    572.801    572.730
 13.170    582.688    575.701      6.987    572.493    575.628    572.493    572.565    572.493
 13.270    569.000    574.929     -5.929    572.254    574.856    572.254    572.326    572.254
 13.370    544.000    574.284    -30.284    572.013    574.211    572.013    572.085    572.013
 13.470    558.484    573.727    -15.243    571.770    573.654    571.770    571.842    571.770
 13.570    542.101    573.233    -31.132    571.525    573.160    571.525    571.598    571.525
 13.670    595.725    572.787     22.939    571.279    572.713    571.279    571.351    571.279
 13.770    603.187    572.375     30.812    571.030    572.301    571.030    571.103    571.030
 13.870    561.000    571.990    -10.990    570.779    571.916    570.779    570.853    570.779
 13.970    553.531    571.626    -18.095    570.527    571.551    570.527    570.601    570.527
 14.070    573.000    571.277      1.723    570.273    571.203    570.273    570.347    570.273
 14.170    547.000    570.941    -23.941    570.017    570.866    570.017    570.092    570.017
 14.270    566.000    570.615     -4.615    569.759    570.540    569.759    569.835    569.759
 14.370    549.000    570.297    -21.297    569.500    570.221    569.500    569.576    569.500
 14.470    600.405    569.985     30.421    569.239    569.909    569.239    569.315    569.239
 14.570    611.748    569.678     42.070    568.977    569.601    568.977    569.053    568.977
 14.670    549.251    569.375    -20.123    568.713    569.298    568.713    568.789    568.713
 14.770    611.000    569.075     41.925    568.447    568.998    568.447    568.524    568.447
 14.870    535.942    568.780    -32.838    568.180    568.703    568.180    568.257    568.180
 14.970    591.434    568.486     22.948    567.911    568.408    567.911    567.989    567.911
 15.070    531.000    568.192    -37.192    567.641    568.114    567.641    567.719    567.641
 15.170    525.209    567.900    -42.690    567.369    567.821    567.369    567.448    567.369
 15.270    607.000    567.608     39.392    567.096    567.528    567.096    567.175    567.096
 15.370    553.000    567.316    -14.316    566.821    567.237    566.821    566.901    566.821
 15.470    533.890    567.025    -33.135    566.545    566.945    566.545    566.625    566.545
 15.570    536.526    566.735    -30.209    566.268    566.654    566.268    566.349    566.268
 15.670    581.560    566.444     15.116    565.990    566.363    565.990    566.071    565.990
 15.770    584.000    566.153     17.847    565.710    566.072    565.710    565.791    565.710
 15.870    554.000    565.862    -11.862    565.429    565.780    565.429    565.510    565.429
 15.970    562.000    565.571     -3.571    565.146    565.489    565.146    565.229    565.146
 16.070    545.463    565.280    -19.817    564.863    565.197    564.863    564.945    564.863
 16.170    605.725    564.988     40.737    564.578    564.905    564.578    564.661    564.578
 16.270    592.636    564.696     27.939    564.292    564.612    564.292    564.376    564.292
 16.370    574.665    564.405     10.260    564.005    564.320    564.005    564.089    564.005
 16.470    579.000    564.113     14.887    563.717    564.029    563.717    563.802    563.717
 16.570    577.918    563.820     14.097    563.428    563.735    563.428    563.513    563.428
 16.670    538.000    563.526    -25.526    563.137    563.440    563.137    563.223    563.137
 16.770    540.000    563.232    -23.232    562.846    563.145    562.846    562.932    562.846
 16.870    578.000    562.937     15.063    562.554    562.850    562.554    562.641    562.554
 16.970    532.066    562.642    -30.576    562.261    562.554    562.261    562.348    562.261
 17.070    581.000    562.346     18.654    561.966    562.258    561.966    562.054    561.966
 17.170    550.000    562.049    -12.049    561.671    561.960    561.671    561.760    561.671
 17.270    607.000    561.752     45.248    561.375    561.663    561.375    561.464    561.375
 17.370    589.551    561.454     28.097    561.078    561.365    561.078    561.168    561.078
 17.470    552.000    561.158     -9.158    560.780    561.066    560.780    560.873    560.780
 17.570    528.000    560.860    -32.860    560.482    560.767    560.482    560.575    560.482
 17.670    588.829    560.564     28.265    560.182    560.469    560.182    560.277    560.182
 17.770    593.081    560.264     32.816    559.882    560.170    559.882    559.977    559.882
 17.870    563.000    559.964      3.036    559.581    559.869    559.581    559.677    559.581
 17.970    535.592    559.664    -24.072    559.280    559.568    559.280    559.376    559.280
 18.070    577.000    559.364     17.636    558.977    559.267    558.977    559.074    558.977
 18.170    553.040    559.063     -6.023    558.674    558.965    558.674    558.772    558.674
 18.270    572.717    558.761     13.956    558.371    558.663    558.371    558.469    558.371
 18.370    586.587    558.459     28.128    558.066    558.360    558.066    558.165    558.066
 18.470    552.341    558.157     -5.815    557.761    558.057    557.761    557.861    557.761
 18.570    545.954    557.854    -11.900    557.456    557.754    557.456    557.556    557.456
 18.670    565.000    557.551      7.449    557.150    557.450    557.150    557.251    557.150
 18.770    573.000    557.248     15.752    556.843    557.146    556.843    556.945    556.843
 18.870    622.000    556.945     65.055    556.536    556.842    556.536    556.638    556.536
 18.970    591.259    556.641     34.618    556.228    556.538    556.228    556.331    556.228
 19.070    544.000    556.337    -12.337    555.920    556.233    555.920    556.024    555.920
 19.170    523.013    556.033    -33.020    555.611    555.928    555.611    555.716    555.611
 19.270    532.589    555.729    -23.139    555.302    555.623    555.302    555.408    555.302
 19.370    527.000    555.424    -28.424    554.993    555.318    554.993    555.099    554.993
 19.470    562.000    555.120      6.880    554.683    555.013    554.683    554.791    554.683
 19.570    526.000    554.817    -28.817    554.373    554.708    554.373    554.481    554.373
 19.670    508.000    554.513    -46.513    554.062    554.404    554.062    554.172    554.062
 19.770    574.556    554.209     20.347    553.752    554.099    553.752    553.862    553.752
 19.870    555.042    553.905      1.137    553.440    553.794    553.440    553.551    553.440
 19.970    513.000    553.601    -40.601    553.129    553.489    553.129    553.241    553.129
 20.070    557.000    553.297      3.703    552.817    553.184    552.817    552.930    552.817
 20.170    533.000    552.994    -19.994    552.505    552.880    552.505    552.619    552.505
 20.270    513.774    552.704    -38.930    552.193    552.589    552.193    552.308    552.193
 20.370    572.000    552.411     19.589    551.881    552.295    551.881    551.997    551.881
 20.470    552.000    552.109     -0.109    551.568    551.992    551.568    551.685    551.568
 20.570    558.000    551.807      6.193    551.255    551.688    551.255    551.374    551.255
 20.670    528.662    551.505    -22.843    550.943    551.385    550.943    551.062    550.943
 20.770    590.309    551.203     39.106    550.630    551.083    550.630    550.750    550.630
 20.870    537.000    550.911    -13.911    550.316    550.789    550.316    550.438    550.316
 20.970    517.360    550.697    -33.337    550.003    550.574    550.003    550.126    550.003
 21.070    577.621    550.420     27.201    549.690    550.295    549.690    549.814    549.690
 21.170    580.000    550.123     29.877    549.377    549.997    549.377    549.502    549.377
 21.270    521.000    549.826    -28.826    549.064    549.699    549.064    549.190    549.064
 21.370    547.498    549.529     -2.031    548.750    549.401    548.750    548.878    548.750
 21.470    538.988    549.235    -10.246    548.437    549.105    548.437    548.567    548.437
 21.570    550.566    548.941      1.625    548.124    548.810    548.124    548.255    548.124
 21.670    554.000    548.649      5.351    547.811    548.516    547.811    547.943    547.811
 21.770    528.676    548.359    -19.682    547.497    548.225    547.497    547.632    547.497
 21.870    532.000    548.072    -16.072    547.184    547.936    547.184    547.320    547.184
 21.970    533.000    547.807    -14.807    546.872    547.670    546.872    547.009    546.872
 22.070    562.000    547.550     14.450    546.559    547.412    546.559    546.698    546.559
 22.170    552.785    547.272      5.513    546.246    547.132    546.246    546.387    546.246
 22.270    511.000    546.994    -35.994    545.934    546.852    545.934    546.076    545.934
 22.370    585.670    546.720     38.950    545.621    546.576    545.621    545.766    545.621
 22.470    588.773    546.454     42.318    545.309    546.308    545.309    545.455    545.309
 22.570    508.562    546.234    -37.672    544.997    546.086    544.997    545.145    544.997
 22.670    560.939    545.992     14.947    544.686    545.842    544.686    544.836    544.686
 22.770    532.000    545.741    -13.741    544.374    545.589    544.374    544.527    544.374
 22.870    565.056    545.498     19.558    544.063    545.344    544.063    544.218    544.063
 22.970    550.000    545.266      4.734    543.752    545.110    543.752    543.909    543.752
 23.070    564.000    545.042     18.958    543.442    544.883    543.442    543.601    543.442
 23.170    554.000    544.832      9.168    543.131    544.671    543.131    543.293    543.131
 23.270    561.924    544.639     17.285    542.821    544.475    542.821    542.986    542.821
 23.370    547.141    544.468      2.672    542.512    544.302    542.512    542.679    542.512
 23.470    545.000    544.326      0.674    542.203    544.157    542.203    542.372    542.203
 23.570    523.520    544.220    -20.700    541.894    544.048    541.894    542.066    541.894
 23.670    553.000    544.164      8.836    541.585    543.990    541.585    541.761    541.585
 23.770    590.000    544.177     45.823    541.277    543.999    541.277    541.456    541.277
 23.870    516.579    544.288    -27.709    540.970    544.107    540.970    541.152    540.970
 23.970    542.000    544.545     -2.545    540.662    544.362    540.662    540.848    540.662
 24.070    537.000    545.074     -8.074    540.356    544.887    540.356    540.545    540.356
 24.170    562.139    546.227     15.912    540.050    546.038    540.050    540.243    540.050
 24.270    543.000    548.971     -5.971    539.744    548.779    539.744    539.941    539.744
 24.370    593.908    555.380     38.528    539.439    555.189    539.439    539.640    539.439
 24.470    564.000    568.403     -4.403    539.134    568.218    539.134    539.340    539.134
 24.570    595.000    589.587      5.413    538.830    589.413    538.830    539.040    538.830
 24.670    649.885    614.817     35.067    538.526    614.657    538.526    538.741    538.526
 24.770    602.000    631.588    -29.588    538.223    631.435    538.223    538.443    538.223
 24.870    628.000    627.500      0.500    537.920    627.338    537.920    538.146    537.920
 24.970    650.505    605.905     44.600    537.618    605.722    537.618    537.850    537.618
 25.070    601.041    580.745     20.297    537.317    580.538    537.317    537.555    537.317
 25.170    557.000    561.703     -4.703    537.016    561.476    537.016    537.261    537.016
 25.270    584.000    550.595     33.405    536.716    550.352    536.716    536.968    536.716
 25.370    584.000    545.106     38.894    536.417    544.852    536.417    536.676    536.417
 25.470    547.000    542.499      4.501    536.118    542.235    536.118    536.385    536.118
 25.570    561.000    541.104     19.896    535.820    540.831    535.820    536.095    535.820
 25.670    534.000    540.198     -6.198    535.523    539.916    535.523    535.807    535.523
 25.770    523.146    539.523    -16.376    535.226    539.230    535.226    535.520    535.226
 25.870    545.000    538.983      6.017    534.930    538.680    534.930    535.234    534.930
 25.970    552.741    538.541     14.200    534.635    538.226    534.635    534.950    534.635
 26.070    565.225    538.173     27.052    534.340    537.846    534.340    534.668    534.340
 26.170    544.000    537.868      6.132    534.047    537.527    534.047    534.387    534.047
 26.270    532.000    537.618     -5.618    533.754    537.264    533.754    534.109    533.754
 26.370    512.000    537.443    -25.443    533.461    537.073    533.461    533.832    533.461
 26.470    536.000    537.314     -1.314    533.170    536.927    533.170    533.557    533.170
 26.570    541.695    537.214      4.480    532.879    536.809    532.879    533.285    532.879
 26.670    548.000    537.172     10.828    532.589    536.746    532.589    533.015    532.589
 26.770    583.000    537.197     45.803    532.300    536.749    532.300    532.749    532.300
 26.870    538.000    537.293      0.707    532.012    536.820    532.012    532.485    532.012
 26.970    518.078    537.483    -19.405    531.725    536.982    531.725    532.225    531.725
 27.070    566.000    537.793     28.207    531.439    537.262    531.439    531.968    531.439
 27.170    522.126    538.271    -16.144    531.153    537.706    531.153    531.716    531.153
 27.270    500.960    538.977    -38.017    530.868    538.375    530.868    531.469    530.868
 27.370    559.000    539.966     19.034    530.585    539.322    530.585    531.228    530.585
 27.470    552.561    541.391     11.170    530.302    540.698    530.302    530.993    530.302
 27.570    500.083    543.672    -43.589    530.020    542.924    530.020    530.765    530.020
 27.670    562.000    548.230     13.770    529.739    547.418    529.739    530.547    529.739
 27.770    599.001    559.774     39.227    529.459    558.887    529.459    530.338    529.459
 27.870    640.000    589.929     50.071    529.179    588.949    529.179    530.142    529.179
 27.970    703.000    656.283     46.717    528.901    655.185    528.901    529.961    528.901
 28.070    790.000    766.010     23.990    528.624    764.768    528.624    529.797    528.624
 28.170    902.000    887.929     14.071    528.348    886.526    528.348    529.656    528.348
 28.270    950.000    947.966      2.034    528.072    946.403    528.072    529.544    528.072
 28.370    864.554    897.428    -32.874    527.798    895.700    527.798    529.468    527.798
 28.470    814.171    788.258     25.913    527.525    786.317    527.525    529.443    527.525
 28.570    691.327    703.548    -12.221    527.253    701.304    527.253    529.487    527.253
 28.670    723.437    686.442     36.996    526.982    683.776    526.982    529.634    526.982
 28.770    705.000    732.347    -27.347    526.711    729.108    526.711    529.933    526.711
 28.870    759.000    801.315    -42.315    526.442    797.293    526.442    530.454    526.442
 28.970    880.518    833.796     46.722    526.174    828.682    526.174    531.293    526.174
 29.070    717.000    794.588    -77.588    525.907    787.950    525.907    532.559    525.907
 29.170    682.000    714.207    -32.207    525.642    705.502    525.642    534.359    525.642
 29.270    643.818    639.968      3.849    525.377    628.598    525.377    536.755    525.377
 29.370    602.000    593.327      8.673    525.113    578.757    525.113    539.686    525.113
 29.470    574.000    571.669      2.331    524.850    553.694    524.850    542.824    524.850
 29.570    600.653    563.683     36.971    524.589    542.855    524.589    545.415    524.589
 29.670    604.000    560.175     43.825    524.329    538.079    524.329    546.421    524.329
 29.770    560.749    556.721      4.028    524.069    535.532    524.069    545.255    524.069
 29.870    552.320    552.434     -0.114    523.811    533.885    523.811    542.357    523.811
 29.970    529.000    547.924    -18.924    523.554    532.733    523.554    538.742    523.554
 30.070    571.000    543.879     27.121    523.299    531.946    523.299    535.229    523.299
 30.170    522.000    540.669    -18.669    523.044    531.498    523.044    532.212    523.044
 30.270    557.000    538.500     18.500    522.791    531.498    522.791    529.790    522.791
 30.370    584.000    537.760     46.240    522.538    532.378    522.538    527.917    522.538
 30.470    528.353    539.505    -11.153    522.287    535.296    522.287    526.490    522.287
 30.570    534.478    545.784    -11.306    522.037    542.409    522.037    525.401    522.037
 30.670    572.000    558.865     13.135    521.789    556.082    521.789    524.549    521.789
 30.770    611.000    578.608     32.392    521.541    576.251    521.541    523.862    521.541
 30.870    556.966    599.115    -42.149    521.295    597.075    521.295    523.284    521.295
 30.970    594.000    608.483    -14.483    521.050    606.696    521.050    522.782    521.050
 31.070    584.000    598.849    -14.849    520.806    597.278    520.806    522.334    520.806
 31.170    538.721    577.501    -38.780    520.564    576.112    520.564    521.924    520.564
 31.270    591.000    556.337     34.663    520.323    555.099    520.323    521.544    520.323
 31.370    511.000    541.509    -30.509    520.083    540.396    520.083    521.189    520.083
 31.470    510.000    533.297    -23.297    519.844    532.285    519.844    520.852    519.844
 31.570    568.000    529.381     38.619    519.606    528.455    519.606    520.530    519.606
 31.670    556.000    527.549     28.451    519.370    526.695    519.370    520.222    519.370
 31.770    550.000    526.571     23.429    519.135    525.780    519.135    519.925    519.135
 31.870    514.000    525.953    -11.953    518.902    525.216    518.902    519.637    518.902
 31.970    529.000    525.526      3.474    518.669    524.837    518.669    519.358    518.669
 32.070    493.874    525.235    -31.361    518.438    524.587    518.438    519.085    518.438
 32.170    537.000    525.058     11.942    518.208    524.447    518.208    518.818    518.208
 32.270    552.444    524.985     27.459    517.980    524.407    517.980    518.557    517.980
 32.370    538.000    525.019     12.981    517.753    524.470    517.753    518.301    517.753
 32.470    562.000    525.167     36.833    517.527    524.644    517.527    518.049    517.527
 32.570    578.000    525.445     52.555    517.303    524.945    517.303    517.802    517.303
 32.670    559.440    525.878     33.563    517.079    525.398    517.079    517.558    517.079
 32.770    516.000    526.502    -10.502    516.858    526.042    516.858    517.317    516.858
 32.870    536.000    527.372      8.628    516.637    526.928    516.637    517.080    516.637
 32.970    547.916    528.567     19.349    516.418    528.139    516.418    516.845    516.418
 33.070    555.000    530.211     24.789    516.200    529.797    516.200    516.614    516.200
 33.170    525.054    532.528     -7.474    515.984    532.126    515.984    516.384    515.984
 33.270    564.000    536.035     27.965    515.769    535.644    515.769    516.158    515.769
 33.370    572.000    542.154     29.846    515.555    541.773    515.555    515.934    515.555
 33.470    547.000    554.667     -7.667    515.343    554.293    515.343    515.712    515.343
 33.570    592.000    581.856     10.144    515.132    581.486    515.132    515.492    515.132
 33.670    590.896    636.951    -46.055    514.923    636.579    514.923    515.275    514.923
 33.770    710.425    732.072    -21.646    514.715    731.693    514.715    515.059    514.715
 33.870    882.493    863.576     18.916    514.508    863.189    514.508    514.846    514.508
 33.970   1037.000    995.601     41.399    514.303    995.211    514.303    514.634    514.303
 34.070   1022.000   1060.321    -38.321    514.099   1059.946    514.099    514.425    514.099
 34.170   1027.411   1011.771     15.640    513.896   1011.428    513.896    514.217    513.896
 34.270    854.000    885.958    -31.958    513.695    885.643    513.695    514.011    513.695
 34.370    758.000    751.127      6.873    513.495    750.826    513.495    513.807    513.495
 34.470    604.000    648.846    -44.846    513.297    648.548    513.297    513.605    513.297
 34.570    561.000    587.185    -26.185    513.100    586.887    513.100    513.405    513.100
 34.670    541.416    555.665    -14.249    512.905    555.367    512.905    513.206    512.905
 34.770    564.000    540.769     23.231    512.711    540.472    512.711    513.009    512.711
 34.870    574.000    533.369     40.631    512.518    533.073    512.518    512.814    512.518
 34.970    560.000    529.057     30.943    512.327    528.764    512.327    512.620    512.327
 35.070    552.000    526.110     25.890    512.138    525.818    512.138    512.428    512.138
 35.170    531.000    523.897      7.103    511.949    523.608    511.949    512.238    511.949
 35.270    548.000    522.157     25.843    511.762    521.870    511.762    512.049    511.762
 35.370    532.248    520.753     11.495    511.577    520.467    511.577    511.863    511.577
 35.470    475.000    519.595    -44.595    511.393    519.311    511.393    511.677    511.393
 35.570    507.000    518.625    -11.625    511.211    518.342    511.211    511.494    511.211
 35.670    524.379    517.799      6.580    511.030    517.517    511.030    511.312    511.030
 35.770    520.000    517.087      2.913    510.850    516.806    510.850    511.131    510.850
 35.870    542.000    516.466     25.534    510.672    516.185    510.672    510.952    510.672
 35.970    477.303    515.918    -38.615    510.496    515.639    510.496    510.775    510.496
 36.070    544.038    515.432     28.606    510.320    515.153    510.320    510.600    510.320
 36.170    548.000    514.998     33.002    510.147    514.720    510.147    510.426    510.147
 36.270    476.793    514.609    -37.816    509.975    514.330    509.975    510.253    509.975
 36.370    503.000    514.260    -11.260    509.804    513.981    509.804    510.082    509.804
 36.470    484.895    513.947    -29.052    509.635    513.668    509.635    509.913    509.635
 36.570    536.000    513.670     22.330    509.467    513.391    509.467    509.746    509.467
 36.670    535.000    513.429     21.571    509.301    513.150    509.301    509.580    509.301
 36.770    545.054    513.230     31.825    509.136    512.950    509.136    509.415    509.136
 36.870    543.628    513.090     30.538    508.972    512.810    508.972    509.252    508.972
 36.970    499.000    513.059    -14.059    508.811    512.778    508.811    509.091    508.811
 37.070    466.000    513.257    -47.257    508.650    512.976    508.650    508.932    508.650
 37.170    505.546    513.924     -8.378    508.491    513.643    508.491    508.773    508.491
 37.270    523.554    515.414      8.140    508.334    515.132    508.334    508.617    508.334
 37.370    573.000    518.032     54.968    508.178    517.750    508.178    508.462    508.178
 37.470    511.000    521.700    -10.700    508.024    521.417    508.024    508.309    508.024
 37.570    548.997    525.581     23.416    507.871    525.298    507.871    508.157    507.871
 37.670    569.000    528.039     40.961    507.719    527.757    507.719    508.007    507.719
 37.770    511.378    527.705    -16.328    507.569    527.423    507.569    507.858    507.569
 37.870    564.812    524.932     39.880    507.421    524.651    507.421    507.711    507.421
 37.970    541.714    521.221     20.493    507.274    520.940    507.274    507.566    507.274
 38.070    477.000    517.741    -40.741    507.129    517.459    507.129    507.422    507.129
 38.170    536.871    514.945     21.926    506.985    514.660    506.985    507.280    506.985
 38.270    477.843    512.912    -35.069    506.842    512.622    506.842    507.139    506.842
 38.370    500.000    511.538    -11.538    506.701    511.244    506.701    507.000    506.701
 38.470    474.000    510.646    -36.646    506.562    510.348    506.562    506.862    506.562
 38.570    475.901    510.070    -34.170    506.424    509.769    506.424    506.726    506.424
 38.670    478.000    509.687    -31.687    506.287    509.383    506.287    506.592    506.287
 38.770    528.000    509.410     18.590    506.152    509.103    506.152    506.459    506.152
 38.870    495.000    509.189    -14.189    506.019    508.880    506.019    506.328    506.019
 38.970    486.000    509.000    -23.000    505.887    508.689    505.887    506.199    505.887
 39.070    515.117    508.831      6.286    505.756    508.518    505.756    506.071    505.756
 39.170    489.087    508.677    -19.591    505.628    508.361    505.628    505.944    505.628
 39.270    507.000    508.535     -1.535    505.500    508.216    505.500    505.819    505.500
 39.370    532.741    508.403     24.339    505.374    508.081    505.374    505.696    505.374
 39.470    542.630    508.280     34.350    505.250    507.955    505.250    505.574    505.250
 39.570    530.000    508.165     21.835    505.127    507.838    505.127    505.454    505.127
 39.670    495.000    508.058    -13.058    505.005    507.728    505.005    505.336    505.005
 39.770    558.000    507.959     50.041    504.885    507.625    504.885    505.219    504.885
 39.870    523.000    507.867     15.133    504.767    507.530    504.767    505.104    504.767
 39.970    508.000    507.783      0.217    504.650    507.443    504.650    504.990    504.650
 40.070    481.292    507.707    -26.415    504.534    507.363    504.534    504.878    504.534
 40.170    484.000    507.639    -23.639    504.420    507.292    504.420    504.768    504.420
 40.270    545.000    507.580     37.420    504.307    507.229    504.307    504.659    504.307
 40.370    544.369    507.530     36.839    504.196    507.175    504.196    504.552    504.196
 40.470    481.000    507.491    -26.491    504.087    507.132    504.087    504.446    504.087
 40.570    465.000    507.464    -42.464    503.979    507.101    503.979    504.342    503.979
 40.670    516.000    507.450      8.550    503.872    507.083    503.872    504.240    503.872
 40.770    480.000    507.452    -27.452    503.767    507.081    503.767    504.139    503.767
 40.870    524.887    507.472     17.415    503.664    507.096    503.664    504.040    503.664
 40.970    512.000    507.513      4.487    503.561    507.133    503.561    503.942    503.561
 41.070    510.000    507.580      2.420    503.461    507.195    503.461    503.847    503.461
 41.170    546.615    507.680     38.935    503.362    507.290    503.362    503.752    503.362
 41.270    548.767    507.818     40.949    503.264    507.423    503.264    503.660    503.264
 41.370    542.199    508.008     34.191    503.168    507.608    503.168    503.569    503.168
 41.470    529.302    508.263     21.039    503.073    507.857    503.073    503.479    503.073
 41.570    485.206    508.607    -23.401    502.980    508.196    502.980    503.392    502.980
 41.670    496.000    509.084    -13.084    502.888    508.668    502.888    503.306    502.888
 41.770    524.000    509.789     14.211    502.797    509.367    502.797    503.221    502.797
 41.870    526.896    510.956     15.940    502.708    510.529    502.708    503.139    502.708
 41.970    546.231    513.132     33.099    502.621    512.699    502.621    503.058    502.621
 42.070    503.000    517.423    -14.423    502.535    516.985    502.535    502.978    502.535
 42.170    505.000    525.621    -20.621    502.451    525.180    502.451    502.901    502.451
 42.270    493.000    539.809    -46.809    502.367    539.367    502.367    502.825    502.367
 42.370    529.000    561.103    -32.103    502.286    560.665    502.286    502.751    502.286
 42.470    536.000    587.762    -51.762    502.206    587.330    502.206    502.678    502.206
 42.570    613.000    613.555     -0.555    502.127    613.129    502.127    502.608    502.127
 42.670    545.000    628.336    -83.336    502.050    627.913    502.050    502.539    502.050
 42.770    631.000    624.367      6.633    501.974    623.937    501.974    502.471    501.974
 42.870    615.000    604.004     10.996    501.899    603.556    501.899    502.406    501.899
 42.970    539.000    576.903    -37.903    501.826    576.431    501.826    502.342    501.826
 43.070    539.000    551.892    -12.892    501.755    551.397    501.755    502.280    501.755
 43.170    519.000    533.323    -14.323    501.685    532.806    501.685    502.220    501.685
 43.270    520.000    521.605     -1.605    501.616    521.070    501.616    502.162    501.616
 43.370    524.000    515.072      8.928    501.549    514.522    501.549    502.106    501.549
 43.470    504.206    511.681     -7.475    501.483    511.117    501.483    502.051    501.483
 43.570    481.718    509.910    -28.192    501.419    509.333    501.419    501.999    501.419
 43.670    491.000    508.895    -17.895    501.356    508.305    501.356    501.948    501.356
 43.770    489.000    508.235    -19.235    501.294    507.632    501.294    501.899    501.294
 43.870    522.000    507.761     14.239    501.234    507.143    501.234    501.853    501.234
 43.970    492.000    507.401    -15.401    501.175    506.770    501.175    501.808    501.175
 44.070    480.000    507.124    -27.124    501.118    506.477    501.118    501.765    501.118
 44.170    507.000    506.907      0.093    501.062    506.245    501.062    501.725    501.062
 44.270    539.347    506.740     32.607    501.007    506.061    501.007    501.687    501.007
 44.370    482.000    506.612    -24.612    500.954    505.916    500.954    501.650    500.954
 44.470    498.761    506.517     -7.756    500.902    505.803    500.902    501.617    500.902
 44.570    508.063    506.449      1.614    500.852    505.716    500.852    501.585    500.852
 44.670    555.000    506.406     48.594    500.803    505.653    500.803    501.556    500.803
 44.770    506.735    506.384      0.351    500.755    505.609    500.755    501.529    500.755
 44.870    505.000    506.381     -1.381    500.709    505.584    500.709    501.505    500.709
 44.970    484.000    506.396    -22.396    500.664    505.576    500.664    501.484    500.664
 45.070    528.000    506.429     21.571    500.620    505.584    500.620    501.465    500.620
 45.170    503.000    506.479     -3.479    500.578    505.607    500.578    501.450    500.578
 45.270    565.000    506.544     58.456    500.537    505.644    500.537    501.437    500.537
 45.370    523.000    506.627     16.373    500.497    505.697    500.497    501.427    500.497
 45.470    488.544    506.726    -18.182    500.459    505.764    500.459    501.421    500.459
 45.570    487.958    506.843    -18.885    500.422    505.847    500.422    501.418    500.422
 45.670    567.000    506.979     60.021    500.387    505.947    500.387    501.419    500.387
 45.770    476.279    507.135    -30.855    500.353    506.063    500.353    501.424    500.353
 45.870    514.000    507.312      6.688    500.320    506.199    500.320    501.433    500.320
 45.970    489.005    507.514    -18.509    500.288    506.355    500.288    501.446    500.288
 46.070    478.000    507.743    -29.743    500.258    506.535    500.258    501.465    500.258
 46.170    509.046    508.002      1.044    500.229    506.742    500.229    501.488    500.229
 46.270    477.000    508.295    -31.295    500.201    506.978    500.201    501.518    500.201
 46.370    462.000    508.630    -46.630    500.175    507.251    500.175    501.553    500.175
 46.470    542.000    509.012     32.988    500.150    507.566    500.150    501.595    500.150
 46.570    479.000    509.453    -30.453    500.126    507.933    500.126    501.645    500.126
 46.670    513.000    509.967      3.033    500.104    508.366    500.104    501.703    500.104
 46.770    547.131    510.580     36.551    500.083    508.890    500.083    501.771    500.083
 46.870    499.879    511.345    -11.466    500.063    509.558    500.063    501.848    500.063
 46.970    504.000    512.380     -8.380    500.044    510.484    500.044    501.938    500.044
 47.070    520.000    513.950      6.050    500.027    511.934    500.027    502.040    500.027
 47.170    537.000    516.572     20.428    500.011    514.420    500.011    502.158    500.011
 47.270    543.000    521.091     21.909    499.996    518.786    499.996    502.293    499.996
 47.370    548.000    528.591     19.409    499.982    526.112    499.982    502.448    499.982
 47.470    498.813    539.962    -41.149    499.970    537.284    499.970    502.626    499.970
 47.570    574.000    555.145     18.855    499.959    552.240    499.959    502.832    499.959
 47.670    608.000    572.311     35.689    499.949    569.146    499.949    503.070    499.949
 47.770    629.752    587.410     42.342    499.940    583.949    499.940    503.348    499.940
 47.870    640.498    595.035     45.463    499.933    591.237    499.933    503.674    499.933
 47.970    595.000    591.978      3.022    499.926    587.793    499.926    504.059    499.926
 48.070    597.000    580.441     16.559    499.921    575.798    499.921    504.522    499.921
 48.170    581.000    565.700     15.300    499.917    560.497    499.917    505.089    499.917
 48.270    591.287    552.323     38.964    499.915    546.417    499.915    505.801    499.915
 48.370    580.000    542.770     37.230    499.913    535.951    499.913    506.719    499.913
 48.470    547.329    537.611      9.718    499.913    529.576    499.913    507.940    499.913
 48.570    526.000    536.313    -10.313    499.914    526.621    499.914    509.600    499.914
 48.670    546.000    538.050      7.950    499.916    526.077    499.916    511.884    499.916
 48.770    545.000    542.220      2.780    499.919    527.113    499.919    515.023    499.919
 48.870    531.000    548.602    -17.602    499.924    529.255    499.924    519.267    499.924
 48.970    546.339    557.288    -10.948    499.929    532.367    499.929    524.845    499.929
 49.070    607.134    568.589     38.545    499.936    536.628    499.936    531.891    499.936
 49.170    549.000    583.111    -34.111    499.944    542.710    499.944    540.337    499.944
 49.270    627.000    602.253     24.747    499.953    552.435    499.953    549.759    499.953
 49.370    645.145    629.552     15.593    499.963    570.329    499.963    559.169    499.963
 49.470    713.043    673.244     39.798    499.974    606.302    499.974    566.889    499.974
 49.570    776.000    749.586     26.414    499.987    678.620    499.987    570.905    499.987
 49.670    933.000    884.087     48.913    500.000    814.087    500.000    569.921    500.000
 49.770   1137.000   1104.966     32.034    500.015   1040.563    500.015    564.299    500.015
 49.870   1477.000   1425.059     51.941    500.031   1369.174    500.031    555.761    500.031
 49.970   1742.880   1817.782    -74.902    500.047   1771.409    500.047    546.256    500.047
 50.070   2202.000   2202.152     -0.152    500.065   2164.900    500.065    537.191    500.065
 50.170   2433.383   2455.605    -22.222    500.084   2426.345    500.084    529.311    500.084
 50.270   2401.219   2472.419    -71.200    500.104   2449.723    500.104    522.886    500.104
 50.370   2191.000   2242.290    -51.290    500.125   2224.698    500.125    517.892    500.125
 50.470   1813.000   1860.652    -47.652    500.148   1846.853    500.148    514.149    500.148
 50.570   1415.000   1454.589    -39.589    500.171   1443.527    500.171    511.415    500.171
 50.670   1112.736   1115.819     -3.083    500.195   1106.711    500.195    509.443    500.195
 50.770    810.000    881.152    -71.152    500.220    873.451    500.220    508.019    500.220
 50.870    792.000    743.261     48.739    500.247    736.597    500.247    506.977    500.247
 50.970    695.365    673.062     22.303    500.274    667.189    500.274    506.197    500.274
 51.070    654.000    639.396     14.604    500.302    634.143    500.302    505.597    500.302
 51.170    639.000    619.733     19.267    500.332    614.975    500.332    505.125    500.332
 51.270    613.000    602.900     10.100    500.362    598.547    500.362    504.746    500.362
 51.370    612.151    586.292     25.859    500.393    582.272    500.393    504.437    500.393
 51.470    570.000    570.984     -0.984    500.426    567.244    500.426    504.184    500.426
 51.570    555.437    558.404     -2.967    500.459    554.900    500.459    503.975    500.459
 51.670    528.000    549.176    -21.176    500.493    545.875    500.493    503.803    500.493
 51.770    550.794    543.100      7.694    500.529    539.972    500.529    503.663    500.529
 51.870    542.000    539.512      2.488    500.565    536.532    500.565    503.548    500.565
 51.970    547.000    537.682      9.318    500.602    534.830    500.602    503.457    500.602
 52.070    590.000    537.061     52.939    500.640    534.319    500.640    503.385    500.640
 52.170    552.161    537.355     14.806    500.679    534.707    500.679    503.330    500.679
 52.270    526.000    538.510    -12.510    500.719    535.941    500.719    503.290    500.719
 52.370    558.440    540.734     17.706    500.760    538.232    500.760    503.264    500.760
 52.470    558.000    544.651     13.349    500.802    542.205    500.802    503.249    500.802
 52.570    510.306    551.657    -41.351    500.845    549.257    500.845    503.246    500.845
 52.670    549.000    564.486    -15.486    500.888    562.123    500.888    503.252    500.888
 52.770    610.000    587.772     22.228    500.933    585.436    500.933    503.268    500.933
 52.870    656.000    628.057     27.943    500.978    625.741    500.978    503.292    500.978
 52.970    722.278    692.475     29.803    501.024    690.172    501.024    503.324    501.024
 53.070    787.000    785.613      1.387    501.071    783.318    501.071    503.364    501.071
 53.170    869.000    905.038    -36.038    501.119    902.747    501.119    503.410    501.119
 53.270   1062.198   1037.033     25.165    501.168   1034.743    501.168    503.464    501.168
 53.370   1187.000   1154.689     32.311    501.218   1152.399    501.218    503.524    501.218
 53.470   1144.000   1222.821    -78.821    501.269   1220.529    501.269    503.591    501.269
 53.570   1211.300   1215.631     -4.331    501.320   1213.330    501.320    503.664    501.320
 53.670   1196.298   1136.366     59.932    501.372   1134.044    501.372    503.743    501.372
 53.770   1044.255   1014.300     29.955    501.425   1011.944    501.425    503.829    501.425
 53.870    841.000    883.766    -42.766    501.479    881.364    501.479    503.921    501.479
 53.970    811.485    769.246     42.239    501.534    766.790    501.534    504.019    501.534
 54.070    698.878    682.131     16.747    501.589    679.616    501.589    504.124    501.589
 54.170    661.435    623.226     38.210    501.645    620.648    501.645    504.236    501.645
 54.270    558.910    587.193    -28.284    501.702    584.549    501.702    504.355    501.702
 54.370    600.000    566.858     33.142    501.760    564.142    501.760    504.481    501.760
 54.470    560.000    555.998      4.002    501.818    553.205    501.818    504.615    501.818
 54.570    601.000    550.360     50.640    501.878    547.483    501.878    504.757    501.878
 54.670    537.618    547.494     -9.876    501.938    544.526    501.938    504.908    501.938
 54.770    547.000    546.169      0.831    501.998    543.102    501.998    505.068    501.998
 54.870    521.066    545.828    -24.761    502.060    542.652    502.060    505.237    502.060
 54.970    571.000    546.237     24.763    502.122    542.943    502.122    505.417    502.122
 55.070    551.000    547.314      3.686    502.185    543.892    502.185    505.609    502.185
 55.170    568.527    549.052     19.475    502.248    545.489    502.248    505.812    502.248
 55.270    576.000    551.490     24.510    502.312    547.774    502.312    506.030    502.312
 55.370    576.000    554.719     21.281    502.377    550.836    502.377    506.261    502.377
 55.470    574.570    558.908     15.662    502.443    554.843    502.443    506.509    502.443
 55.570    600.000    564.377     35.623    502.509    560.113    502.509    506.775    502.509
 55.670    601.000    571.796     29.204    502.576    567.312    502.576    507.060    502.576
 55.770    552.963    582.613    -29.651    502.644    577.889    502.644    507.368    502.644
 55.870    576.000    599.895    -23.895    502.712    594.906    502.712    507.699    502.712
 55.970    578.000    629.634    -51.634    502.781    624.352    502.781    508.058    502.781
 56.070    645.845    682.267    -36.421    502.850    676.659    502.850    508.448    502.850
 56.170    774.000    773.432      0.568    502.921    767.460    502.921    508.873    502.921
 56.270    940.000    922.305     17.695    502.991    915.927    502.991    509.338    502.991
 56.370   1105.000   1145.899    -40.899    503.063   1139.070    503.063    509.847    503.063
 56.470   1419.000   1449.319    -30.319    503.135   1441.994    503.135    510.409    503.135
 56.570   1873.863   1814.665     59.198    503.207   1806.798    503.207    511.031    503.207
 56.670   2245.000   2193.066     51.934    503.280   2184.612    503.280    511.722    503.280
 56.770   2476.000   2505.106    -29.106    503.354   2496.013    503.354    512.495    503.354
 56.870   2726.350   2660.223     66.127    503.428   2650.418    503.428    513.364    503.428
 56.970   2604.000   2604.149     -0.149    503.503   2593.519    503.503    514.348    503.503
 57.070   2375.000   2359.027     15.973    503.578   2347.399    503.578    515.472    503.578
 57.170   2097.000   2004.914     92.086    503.654   1992.069    503.654    516.770    503.654
 57.270   1603.960   1629.743    -25.783    503.730   1615.421    503.730    518.291    503.730
 57.370   1268.000   1297.501    -29.501    503.807   1281.387    503.807    520.111    503.807
 57.470   1001.000   1040.269    -39.269    503.884   1021.948    503.884    522.340    503.884
 57.570    860.000    862.891     -2.891    503.962    841.793    503.962    525.148    503.962
 57.670    704.183    753.283    -49.101    504.041    728.592    504.041    528.784    504.041
 57.770    713.000    693.421     19.579    504.119    663.969    504.119    533.598    504.119
 57.870    667.807    667.265      0.542    504.199    631.414    504.199    540.060    504.199
 57.970    696.362    664.395     31.967    504.278    619.922    504.278    548.751    504.278
 58.070    661.000    680.249    -19.249    504.359    624.269    504.359    560.327    504.359
 58.170    723.000    714.527      8.473    504.439    643.496    504.439    575.448    504.439
 58.270    757.000    768.915    -11.915    504.520    678.753    504.520    594.648    504.520
 58.370    807.000    844.825    -37.825    504.602    731.207    504.602    618.176    504.602
 58.470    935.138    941.243     -6.104    504.684    800.091    504.684    645.781    504.684
 58.570   1009.000   1053.145    -44.145    504.766    881.416    504.766    676.436    504.766
 58.670   1113.000   1170.821    -57.821    504.849    967.660    504.849    707.953    504.849
 58.770   1262.000   1281.215    -19.215    504.932   1049.478    504.932    736.623    504.932
 58.870   1307.486   1371.062    -63.576    505.016   1118.660    505.016    757.387    505.016
 58.970   1444.696   1428.960     15.735    505.099   1168.717    505.099    765.332    505.099
 59.070   1428.000   1446.306    -18.306    505.184   1193.222    505.184    758.277    505.184
 59.170   1415.188   1420.816     -5.628    505.268   1187.884    505.268    738.225    505.268
 59.270   1345.652   1360.743    -15.091    505.353   1156.112    505.353    710.013    505.353
 59.370   1335.000   1282.985     52.015    505.439   1109.712    505.439    678.730    505.439
 59.470   1254.512   1206.082     48.431    505.524   1063.442    505.524    648.158    505.524
 59.570   1165.707   1146.225     19.481    505.610   1031.243    505.610    620.553    505.610
 59.670   1089.887   1117.732    -27.845    505.697   1026.352    505.697    596.994    505.697
 59.770   1185.000   1132.070     52.930    505.783   1059.958    505.783    577.763    505.783
 59.870   1161.394   1192.941    -31.547    505.870   1135.993    505.870    562.632    505.870
 59.970   1345.000   1291.431     53.569    505.957   1246.074    505.957    551.078    505.957
 60.070   1508.000   1404.543    103.457    506.045   1367.869    506.045    542.445    506.045
 60.170   1509.424   1497.843     11.581    506.132   1467.615    506.132    536.076    506.132
 60.270   1578.000   1534.714     43.286    506.220   1509.287    506.220    531.386    506.220
 60.370   1503.000   1493.768      9.232    506.308   1471.965    506.308    527.902    506.308
 60.470   1399.000   1381.876     17.124    506.397   1362.856    506.397    525.270    506.397
 60.570   1225.000   1227.432     -2.432    506.486   1210.587    506.486    523.241    506.486
 60.670   1141.000   1063.261     77.739    506.574   1048.142    506.574    521.646    506.574
 60.770    945.000    914.972     30.028    506.664    901.238    506.664    520.378    506.664
 60.870    808.000    797.026     10.974    506.753    784.404    506.753    519.368    506.753
 60.970    726.002    713.527     12.475    506.842    701.794    506.842    518.572    506.842
 61.070    660.000    661.666     -1.666    506.932    650.631    506.932    517.962    506.932
 61.170    612.000    636.078    -24.078    507.022    625.572    507.022    517.517    507.022
 61.270    637.987    632.493      5.494    507.112    622.365    507.112    517.220    507.112
 61.370    722.000    649.764     72.236    507.202    639.884    507.202    517.051    507.202
 61.470    659.334    690.041    -30.708    507.293    680.303    507.293    516.983    507.293
 61.570    747.000    757.234    -10.234    507.383    747.566    507.383    516.980    507.383
 61.670    849.000    854.130     -5.130    507.474    844.514    507.474    516.990    507.474
 61.770    974.382    978.869     -4.487    507.564    969.352    507.564    516.951    507.564
 61.870   1068.000   1121.825    -53.825    507.655   1112.521    507.655    516.802    507.655
 61.970   1217.000   1264.048    -47.048    507.746   1255.111    507.746    516.510    507.746
 62.070   1323.435   1378.484    -55.049    507.837   1370.065    507.837    516.086    507.837
 62.170   1391.000   1436.414    -45.414    507.928   1428.623    507.928    515.574    507.928
 62.270   1318.000   1420.419   -102.419    508.020   1413.304    508.020    515.029    508.020
 62.370   1278.000   1335.226    -57.226    508.111   1328.778    508.111    514.498    508.111
 62.470   1149.925   1204.317    -54.392    508.202   1198.486    508.202    514.009    508.202
 62.570   1062.000   1056.751      5.249    508.294   1051.465    508.294    513.580    508.294
 62.670    882.000    916.688    -34.688    508.385    911.871    508.385    513.216    508.385
 62.770    778.000    799.231    -21.231    508.477    794.808    508.477    512.916    508.477
 62.870    699.492    710.319    -10.827    508.568    706.226    508.568    512.676    508.568
 62.970    672.308    648.823     23.485    508.660    645.004    508.660    512.487    508.660
 63.070    610.000    609.601      0.399    508.751    606.013    508.751    512.343    508.751
 63.170    582.000    586.372     -4.372    508.843    582.980    508.843    512.235    508.843
 63.270    556.000    573.645    -17.645    508.934    570.422    508.934    512.155    508.934
 63.370    528.259    567.586    -39.327    509.026    564.509    509.026    512.098    509.026
 63.470    551.063    566.129    -15.066    509.117    563.181    509.117    512.059    509.117
 63.570    600.000    568.760     31.240    509.209    565.926    509.209    512.034    509.209
 63.670    568.000    576.251     -8.251    509.300    573.518    509.300    512.020    509.300
 63.770    594.000    590.388      3.612    509.392    587.744    509.392    512.016    509.392
 63.870    606.283    613.605     -7.322    509.483    611.038    509.483    512.021    509.483
 63.970    644.000    648.363     -4.363    509.574    645.863    509.574    512.032    509.574
 64.070    698.000    696.235      1.765    509.665    693.791    509.665    512.050    509.665
 64.170    770.000    756.783     13.217    509.756    754.387    509.756    512.073    509.756
 64.270    834.000    826.525      7.475    509.847    824.171    509.847    512.102    509.847
 64.370    860.000    898.284    -38.284    509.938    895.972    509.938    512.135    509.938
 64.470    956.000    961.456     -5.456    510.029    959.188    510.029    512.173    510.029
 64.570   1010.000   1004.265      5.735    510.119   1002.048    510.119    512.214    510.119
 64.670    990.000   1018.371    -28.371    510.210   1016.214    510.210    512.259    510.210
 64.770    989.000   1002.620    -13.620    510.300   1000.528    510.300    512.307    510.300
 64.870   1023.000    962.533     60.467    510.390    960.507    510.390    512.359    510.390
 64.970    904.000    907.317     -3.317    510.480    905.354    510.480    512.413    510.480
 65.070    864.000    846.826     17.174    510.570    844.919    510.570    512.470    510.570
 65.170    747.000    788.914    -41.914    510.659    787.054    510.659    512.530    510.659
 65.270    732.694    737.988     -5.294    510.749    736.168    510.749    512.592    510.749
 65.370    677.129    695.315    -18.186    510.838    693.524    510.838    512.657    510.838
 65.470    649.772    660.440    -10.669    510.927    658.672    510.927    512.723    510.927
 65.570    645.000    632.485     12.515    511.016    630.734    511.016    512.792    511.016
 65.670    570.000    610.588    -40.588    511.105    608.850    511.105    512.862    511.105
 65.770    578.472    593.911    -15.439    511.193    592.182    511.193    512.935    511.193
 65.870    614.632    581.645     32.986    511.281    579.925    511.281    513.009    511.281
 65.970    537.916    573.053    -35.137    511.369    571.341    511.369    513.085    511.369
 66.070    553.106    567.473    -14.367    511.457    565.768    511.457    513.163    511.457
 66.170    563.000    564.322     -1.322    511.544    562.623    511.544    513.243    511.544
 66.270    544.000    563.113    -19.113    511.631    561.420    511.631    513.324    511.631
 66.370    545.000    563.484    -18.484    511.718    561.795    511.718    513.407    511.718
 66.470    581.226    565.239     15.987    511.804    563.552    511.804    513.492    511.804
 66.570    602.382    568.410     33.972    511.890    566.724    511.890    513.578    511.890
 66.670    507.000    573.369    -66.369    511.976    571.681    511.976    513.665    511.976
 66.770    594.000    581.025     12.975    512.062    579.333    512.062    513.755    512.062
 66.870    588.000    593.162     -5.162    512.147    591.464    512.147    513.846    512.147
 66.970    579.529    612.910    -33.381    512.232    611.203    512.232    513.939    512.232
 67.070    626.000    645.242    -19.242    512.316    643.523    512.316    514.033    512.316
 67.170    730.376    697.280     33.097    512.401    695.545    512.401    514.129    512.401
 67.270    782.000    778.004      3.996    512.484    776.250    512.484    514.227    512.484
 67.370    899.369    896.969      2.400    512.568    895.196    512.568    514.327    512.568
 67.470   1070.883   1061.786      9.096    512.651   1059.995    512.651    514.429    512.651
 67.570   1323.172   1274.612     48.560    512.734   1272.808    512.734    514.534    512.734
 67.670   1589.324   1528.431     60.892    512.816   1526.623    512.816    514.640    512.816
 67.770   1896.000   1804.251     91.749    512.898   1802.451    512.898    514.748    512.898
 67.870   2089.046   2070.248     18.799    512.979   2068.469    512.979    514.859    512.979
 67.970   2348.000   2284.314     63.686    513.060   2282.568    513.060    514.973    513.060
 68.070   2433.614   2402.932     30.682    513.141   2401.223    513.141    515.090    513.141
 68.170   2372.000   2397.620    -25.620    513.221   2395.934    513.221    515.209    513.221
 68.270   2274.577   2269.827      4.750    513.301   2268.135    513.301    515.332    513.301
 68.370   1990.624   2050.041    -59.417    513.380   2048.306    513.380    515.458    513.380
 68.470   1759.663   1782.140    -22.477    513.459   1780.328    513.459    515.588    513.459
 68.570   1452.646   1507.549    -54.902    513.537   1505.636    513.537    515.722    513.537
 68.670   1245.000   1257.035    -12.035    513.615   1255.008    513.615    515.861    513.615
 68.770    981.000   1048.515    -67.515    513.693   1046.369    513.693    516.005    513.693
 68.870    897.611    888.104      9.507    513.770    885.838    513.770    516.154    513.770
 68.970    811.000    773.045     37.955    513.846    770.664    513.846    516.308    513.846
 69.070    684.000    695.447    -11.447    513.922    692.952    513.922    516.470    513.922
 69.170    677.000    645.729     31.271    513.997    643.122    513.997    516.638    513.997
 69.270    603.448    615.034    -11.586    514.072    612.314    514.072    516.815    514.072
 69.370    602.363    596.415      5.948    514.146    593.576    514.146    517.000    514.146
 69.470    601.000    585.051     15.949    514.220    582.087    514.220    517.195    514.220
 69.570    568.000    577.914     -9.914    514.293    574.813    514.293    517.402    514.293
 69.670    567.000    573.252     -6.252    514.366    570.003    514.366    517.620    514.366
 69.770    596.000    570.117     25.883    514.438    566.706    514.438    517.853    514.438
 69.870    539.000    568.021    -29.021    514.510    564.433    514.510    518.101    514.510
 69.970    541.099    566.724    -25.625    514.581    562.940    514.581    518.367    514.581
 70.070    545.000    566.114    -21.114    514.651    562.114    514.651    518.653    514.651
 70.170    536.000    566.157    -30.157    514.721    561.917    514.721    518.962    514.721
 70.270    603.010    566.883     36.127    514.790    562.376    514.790    519.297    514.790
 70.370    584.000    568.407     15.593    514.858    563.601    514.858    519.663    514.858
 70.470    562.000    570.979     -8.979    514.926    565.838    514.926    520.064    514.926
 70.570    531.396    575.092    -43.696    514.993    569.574    514.993    520.507    514.993
 70.670    566.000    581.649    -15.649    515.060    575.703    515.060    520.999    515.060
 70.770    576.000    592.186    -16.186    515.126    585.749    515.126    521.552    515.126
 70.870    598.571    609.135    -10.565    515.191    602.128    515.191    522.182    515.191
 70.970    624.000    636.050    -12.050    515.256    628.369    515.256    522.910    515.256
 71.070    648.000    677.628    -29.628    515.320    669.135    515.320    523.773    515.320
 71.170    747.000    739.365      7.635    515.383    729.869    515.383    524.821    515.383
 71.270    822.000    826.663     -4.663    515.446    815.895    515.446    526.132    515.446
 71.370    910.046    943.371    -33.325    515.508    930.949    515.508    527.820    515.508
 71.470   1103.518   1089.940     13.577    515.569   1075.325    515.569    530.045    515.569
 71.570   1260.000   1261.613     -1.613    515.630   1244.052    515.630    533.023    515.630
 71.670   1390.625   1447.131    -56.506    515.689   1425.603    515.689    537.028    515.689
 71.770   1570.798   1628.424    -57.627    515.749   1601.585    515.749    542.388    515.749
 71.870   1824.000   1781.847     42.153    515.807   1748.003    515.807    549.457    515.807
 71.970   1938.000   1882.234     55.766    515.865   1839.349    515.865    558.578    515.865
 72.070   1888.000   1910.750    -22.750    515.922   1856.513    515.922    570.021    515.922
 72.170   1785.000   1863.500    -78.500    515.978   1795.472    515.978    583.908    515.978
 72.270   1794.000   1753.695     40.305    516.033   1669.539    516.033    600.126    516.033
 72.370   1623.000   1604.902     18.098    516.088   1502.712    516.088    618.241    516.088
 72.470   1449.000   1441.760      7.240    516.142   1320.478    516.142    637.406    516.142
 72.570   1262.011   1284.029    -22.018    516.195   1143.950    516.195    656.266    516.195
 72.670   1126.663   1144.318    -17.654    516.247    987.629    516.247    672.931    516.247
 72.770   1001.765   1028.027    -26.262    516.299    859.173    516.299    685.146    516.299
 72.870    888.000    934.827    -46.827    516.349    760.338    516.349    690.831    516.349
 72.970    781.000    861.124    -80.124    516.399    688.627    516.399    688.887    516.399
 73.070    811.895    802.487      9.408    516.448    639.201    516.448    679.724    516.448
 73.170    706.000    755.103    -49.103    516.497    606.541    516.497    665.048    516.497
 73.270    710.440    716.179     -5.740    516.544    585.605    516.544    647.109    516.544
 73.370    625.000    683.825    -58.825    516.591    572.403    516.591    628.004    516.591
 73.470    669.295    656.833     12.462    516.636    564.115    516.636    609.349    516.636
 73.570    622.000    634.483    -12.483    516.681    558.932    516.681    592.228    516.681
 73.670    645.624    616.348     29.277    516.726    555.803    516.726    577.270    516.726
 73.770    595.082    602.123     -7.041    516.769    554.163    516.769    564.732    516.769
 73.870    570.000    591.504    -21.504    516.811    553.726    516.811    554.596    516.811
 73.970    608.369    584.113     24.256    516.853    554.321    516.853    546.656    516.853
 74.070    596.308    579.475     16.833    516.893    555.789    516.893    540.597    516.893
 74.170    587.013    577.014      9.999    516.933    557.908    516.933    536.063    516.933
 74.270    652.000    576.068     75.932    516.972    560.360    516.972    532.711    516.972
 74.370    570.186    575.915     -5.730    517.010    562.723    517.010    530.239    517.010
 74.470    603.972    575.818     28.154    517.047    564.504    517.047    528.402    517.047
 74.570    620.997    575.119     45.877    517.083    565.232    517.083    527.014    517.083
 74.670    615.892    573.388     42.504    517.118    564.610    517.118    525.941    517.118
 74.770    533.540    570.543    -37.003    517.153    562.651    517.153    525.087    517.153
 74.870    614.000    566.842     47.158    517.186    559.677    517.186    524.390    517.186
 74.970    599.135    562.747     36.388    517.218    556.192    517.218    523.806    517.218
 75.070    613.000    558.782     54.218    517.250    552.748    517.250    523.309    517.250
 75.170    538.385    555.456    -17.071    517.280    549.876    517.280    522.880    517.280
 75.270    597.000    553.252     43.748    517.310    548.070    517.310    522.504    517.310
 75.370    578.512    552.642     25.870    517.339    547.814    517.339    522.174    517.339
 75.470    548.459    554.116     -5.657    517.366    549.603    517.366    521.881    517.366
 75.570    603.000    558.189     44.811    517.393    553.957    517.393    521.621    517.393
 75.670    523.342    565.377    -42.034    517.419    561.397    517.419    521.388    517.419
 75.770    553.885    576.114    -22.229    517.443    572.361    517.443    521.180    517.443
 75.870    558.096    590.621    -32.525    517.467    587.072    517.467    520.992    517.467
 75.970    585.000    608.734    -23.734    517.490    605.368    517.490    520.823    517.490
 76.070    594.978    629.745    -34.767    517.512    626.546    517.512    520.670    517.512
 76.170    696.340    652.296     44.044    517.533    649.249    517.533    520.531    517.533
 76.270    693.103    674.354     18.749    517.552    671.446    517.552    520.405    517.552
 76.370    675.000    693.310    -18.310    517.571    690.531    517.571    520.289    517.571
 76.470    714.000    706.315      7.685    517.589    703.658    517.589    520.183    517.589
 76.570    699.000    710.985    -11.985    517.606    708.444    517.606    520.086    517.606
 76.670    742.772    706.325     36.447    517.621    703.895    517.621    519.997    517.621
 76.770    685.659    693.211     -7.552    517.636    690.886    517.636    519.914    517.636
 76.870    718.191    673.954     44.237    517.649    671.728    517.649    519.838    517.649
 76.970    651.000    651.380     -0.380    517.662    649.246    517.662    519.767    517.662
 77.070    614.000    628.105    -14.105    517.674    626.057    517.674    519.701    517.674
 77.170    644.000    606.174     37.826    517.684    604.205    517.684    519.639    517.684
 77.270    537.000    586.947    -49.947    517.693    585.050    517.693    519.581    517.693
 77.370    584.000    571.106     12.894    517.702    569.275    517.702    519.527    517.702
 77.470    621.000    558.762     62.238    517.709    556.991    517.709    519.475    517.709
 77.570    530.164    549.612    -19.448    517.715    547.897    517.715    519.427    517.715
 77.670    501.000    543.122    -42.122    517.720    541.460    517.720    519.381    517.720
 77.770    546.154    538.683      7.471    517.724    537.070    517.724    519.337    517.724
 77.870    481.000    535.727    -54.727    517.727    534.158    517.727    519.295    517.727
 77.970    516.120    533.784    -17.664    517.729    532.258    517.729    519.254    517.729
 78.070    518.000    532.504    -14.504    517.730    531.017    517.730    519.216    517.730
 78.170    518.000    531.643    -13.643    517.729    530.194    517.729    519.179    517.729
 78.270    509.000    531.053    -22.053    517.728    529.638    517.728    519.143    517.728
 78.370    488.000    530.638    -42.638    517.725    529.255    517.725    519.108    517.725
 78.470    543.000    530.331     12.669    517.722    528.978    517.722    519.074    517.722
 78.570    511.694    530.123    -18.429    517.717    528.798    517.717    519.041    517.717
 78.670    504.000    530.040    -26.040    517.711    528.741    517.711    519.010    517.711
 78.770    524.000    530.070     -6.070    517.704    528.794    517.704    518.979    517.704
 78.870    475.000    530.227    -55.227    517.696    528.972    517.696    518.950    517.696
 78.970    527.000    530.539     -3.539    517.686    529.302    517.686    518.922    517.686
 79.070    567.751    531.037     36.714    517.676    529.816    517.676    518.896    517.676
 79.170    503.000    531.754    -28.754    517.664    530.545    517.664    518.872    517.664
 79.270    515.001    532.723    -17.722    517.652    531.522    517.652    518.850    517.652
 79.370    541.000    533.973      7.027    517.638    532.776    517.638    518.832    517.638
 79.470    531.000    535.532     -4.532    517.623    534.334    517.623    518.817    517.623
 79.570    502.000    537.431    -35.431    517.606    536.227    517.606    518.806    517.606
 79.670    570.395    539.718     30.676    517.589    538.503    517.589    518.799    517.589
 79.770    531.000    542.473    -11.473    517.570    541.241    517.570    518.797    517.570
 79.870    563.000    545.829     17.171    517.551    544.574    517.551    518.800    517.551
 79.970    562.000    549.998     12.002    517.530    548.716    517.530    518.807    517.530
 80.070    577.000    555.299     21.701    517.508    553.985    517.508    518.817    517.508
 80.170    514.000    562.153    -48.153    517.485    560.805    517.485    518.830    517.485
 80.270    563.000    571.041     -8.041    517.460    569.659    517.460    518.842    517.460
 80.370    576.000    582.404     -6.404    517.435    580.989    517.435    518.852    517.435
 80.470    551.909    596.526    -44.617    517.408    595.085    517.408    518.854    517.408
 80.570    604.882    613.428     -8.546    517.380    611.972    517.380    518.846    517.380
 80.670    642.000    632.787      9.213    517.351    631.330    517.351    518.823    517.351
 80.770    648.627    653.889     -5.262    517.320    652.447    517.320    518.783    517.320
 80.870    711.227    675.655     35.572    517.289    674.244    517.289    518.726    517.289
 80.970    677.000    696.752    -19.752    517.256    695.387    517.256    518.655    517.256
 81.070    728.000    715.789     12.211    517.222    714.480    517.222    518.572    517.222
 81.170    778.000    731.495     46.505    517.187    730.247    517.187    518.482    517.187
 81.270    798.000    742.834     55.166    517.150    741.649    517.150    518.389    517.150
 81.370    750.000    749.086      0.914    517.113    747.963    517.113    518.295    517.113
 81.470    810.000    749.922     60.078    517.074    748.857    517.074    518.204    517.074
 81.570    757.000    745.431     11.569    517.034    744.418    517.034    518.115    517.034
 81.670    762.000    736.069     25.931    516.992    735.102    516.992    518.030    516.992
 81.770    717.811    722.652     -4.841    516.950    721.723    516.950    517.949    516.950
 81.870    710.000    706.323      3.677    516.906    705.426    516.906    517.872    516.906
 81.970    737.000    688.394     48.606    516.861    687.523    516.861    517.799    516.861
 82.070    677.000    670.074      6.926    516.815    669.223    516.815    517.729    516.815
 82.170    677.000    652.249     24.751    516.768    651.413    516.768    517.662    516.768
 82.270    617.000    635.420    -18.420    516.719    634.597    516.719    517.598    516.719
 82.370    622.000    619.814      2.186    516.669    618.999    516.669    517.535    516.669
 82.470    604.000    605.539     -1.539    516.618    604.729    516.618    517.473    516.618
 82.570    614.000    592.711     21.289    516.566    591.904    516.566    517.411    516.566
 82.670    582.000    581.482      0.518    516.512    580.676    516.512    517.350    516.512
 82.770    543.000    572.010    -29.010    516.457    571.204    516.457    517.289    516.457
 82.870    557.364    564.430     -7.066    516.401    563.622    516.401    517.228    516.401
 82.970    531.307    558.835    -27.528    516.344    558.025    516.344    517.166    516.344
 83.070    541.000    555.273    -14.273    516.285    554.460    516.285    517.103    516.285
 83.170    587.497    553.726     33.771    516.226    552.909    516.226    517.040    516.226
 83.270    538.957    554.091    -15.134    516.165    553.269    516.165    516.976    516.165
 83.370    494.000    556.160    -62.160    516.102    555.333    516.102    516.912    516.102
 83.470    540.867    559.608    -18.741    516.039    558.776    516.039    516.846    516.039
 83.570    580.000    563.994     16.006    515.974    563.157    515.974    516.780    515.974
 83.670    510.000    568.773    -58.773    515.908    567.931    515.908    516.713    515.908
 83.770    552.000    573.317    -21.317    515.841    572.472    515.841    516.645    515.841
 83.870    619.081    576.971     42.110    515.772    576.123    515.772    516.576    515.772
 83.970    572.000    579.136     -7.136    515.702    578.287    515.702    516.506    515.702
 84.070    596.000    579.389     16.611    515.631    578.541    515.631    516.435    515.631
 84.170    577.000    577.603     -0.603    515.559    576.757    515.559    516.363    515.559
 84.270    591.000    573.976     17.024    515.485    573.133    515.485    516.290    515.485
 84.370    590.884    568.948     21.936    515.410    568.108    515.410    516.217    515.410
 84.470    570.296    563.066      7.230    515.334    562.231    515.334    516.142    515.334
 84.570    578.000    556.871     21.129    515.257    556.039    515.257    516.066    515.257
 84.670    523.279    550.824    -27.545    515.178    549.994    515.178    515.990    515.178
 84.770    575.059    545.274     29.785    515.099    544.446    515.099    515.912    515.099
 84.870    499.844    540.448    -40.604    515.017    539.620    515.017    515.834    515.017
 84.970    504.000    536.454    -32.454    514.935    535.626    514.935    515.754    514.935
 85.070    562.000    533.303     28.697    514.852    532.475    514.852    515.674    514.852
 85.170    584.000    530.935     53.065    514.767    530.104    514.767    515.592    514.767
 85.270    500.820    529.250    -28.430    514.681    528.416    514.681    515.510    514.681
 85.370    546.000    528.132     17.868    514.593    527.295    514.593    515.426    514.593
 85.470    512.833    527.480    -14.647    514.505    526.638    514.505    515.342    514.505
 85.570    493.000    527.213    -34.213    514.415    526.366    514.415    515.257    514.415
 85.670    514.476    527.288    -12.812    514.324    526.436    514.324    515.171    514.324
 85.770    535.301    527.702      7.599    514.231    526.843    514.231    515.084    514.231
 85.870    553.000    528.493     24.507    514.138    527.627    514.138    514.996    514.138
 85.970    536.668    529.746      6.921    514.043    528.873    514.043    514.907    514.043
 86.070    498.000    531.589    -33.589    513.947    530.707    513.947    514.817    513.947
 86.170    537.735    534.184      3.551    513.849    533.292    513.849    514.726    513.849
 86.270    559.000    537.722     21.278    513.751    536.818    513.751    514.635    513.751
 86.370    585.450    542.395     43.054    513.651    541.478    513.651    514.542    513.651
 86.470    555.766    548.375      7.390    513.550    547.442    513.550    514.449    513.550
 86.570    517.000    555.770    -38.770    513.447    554.820    513.447    514.355    513.447
 86.670    567.000    564.584      2.416    513.344    563.615    513.344    514.260    513.344
 86.770    607.000    574.669     32.331    513.239    573.679    513.239    514.164    513.239
 86.870    606.421    585.724     20.698    513.133    584.712    513.133    514.068    513.133
 86.970    555.142    597.247    -42.105    513.025    596.214    513.025    513.971    513.025
 87.070    569.342    608.533    -39.191    512.917    607.478    512.917    513.873    512.917
 87.170    621.000    618.726      2.274    512.807    617.652    512.807    513.774    512.807
 87.270    637.980    626.895     11.086    512.696    625.803    512.696    513.675    512.696
 87.370    640.993    632.171      8.822    512.584    631.065    512.584    513.575    512.584
 87.470    645.596    633.955     11.641    512.470    632.839    512.470    513.474    512.470
 87.570    677.000    632.090     44.910    512.356    630.968    512.356    513.373    512.356
 87.670    627.000    626.911      0.089    512.240    625.786    512.240    513.271    512.240
 87.770    627.000    619.136      7.864    512.123    618.008    512.123    513.169    512.123
 87.870    569.226    609.691    -40.465    512.004    608.561    512.004    513.066    512.004
 87.970    624.000    599.556     24.444    511.885    598.423    511.885    512.963    511.885
 88.070    643.000    589.657     53.343    511.764    588.519    511.764    512.859    511.764
 88.170    580.072    580.795     -0.722    511.642    579.651    511.642    512.755    511.642
 88.270    557.000    573.600    -16.600    511.519    572.448    511.519    512.651    511.519
 88.370    604.993    568.504     36.489    511.395    567.341    511.395    512.547    511.395
 88.470    603.959    565.735     38.224    511.269    564.560    511.269    512.442    511.269
 88.570    587.000    565.321     21.679    511.142    564.132    511.142    512.338    511.142
 88.670    571.748    567.105      4.643    511.014    565.900    511.014    512.233    511.014
 88.770    594.100    570.763     23.336    510.885    569.541    510.885    512.129    510.885
 88.870    560.000    575.829    -15.829    510.755    574.588    510.755    512.025    510.755
 88.970    566.674    581.717    -15.043    510.623    580.457    510.623    511.921    510.623
 89.070    609.000    587.755     21.245    510.491    586.473    510.491    511.818    510.491
 89.170    598.000    593.220      4.780    510.357    591.913    510.357    511.715    510.357
 89.270    605.000    597.401      7.599    510.222    596.066    510.222    511.613    510.222
 89.370    629.000    599.689     29.311    510.086    598.324    510.086    511.512    510.086
 89.470    642.013    599.696     42.317    509.948    598.296    509.948    511.412    509.948
 89.570    561.363    597.339    -35.976    509.810    595.899    509.810    511.313    509.810
 89.670    553.000    592.850    -39.850    509.670    591.366    509.670    511.216    509.670
 89.770    562.000    586.696    -24.696    509.529    585.162    509.529    511.121    509.529
 89.870    557.000    579.452    -22.452    509.387    577.864    509.387    511.028    509.387
 89.970    558.000    571.699    -13.699    509.244    570.052    509.244    510.937    509.244
 90.070    570.000    563.954      6.046    509.100    562.243    509.100    510.850    509.100
 90.170    534.000    556.634    -22.634    508.955    554.855    508.955    510.765    508.955
 90.270    571.712    550.040     21.672    508.808    548.189    508.808    510.685    508.808
 90.370    563.000    544.357     18.643    508.661    542.428    508.661    510.610    508.661
 90.470    530.000    539.663     -9.663    508.512    537.650    508.512    510.540    508.512
 90.570    557.000    535.949     21.051    508.362    533.844    508.362    510.478    508.362
 90.670    508.000    533.146    -25.146    508.211    530.939    508.211    510.425    508.211
 90.770    532.000    531.146      0.854    508.059    528.827    508.059    510.384    508.059
 90.870    520.444    529.835     -9.390    507.906    527.387    507.906    510.357    507.906
 90.970    539.000    529.103      9.897    507.752    526.507    507.752    510.349    507.752
 91.070    558.228    528.866     29.362    507.596    526.099    507.596    510.364    507.596
 91.170    495.951    529.070    -33.119    507.440    526.099    507.440    510.410    507.440
 91.270    548.942    529.668     19.275    507.283    526.454    507.283    510.494    507.283
 91.370    548.459    530.760     17.699    507.124    527.253    507.124    510.628    507.124
 91.470    536.000    532.415      3.585    506.964    528.553    506.964    510.823    506.964
 91.570    514.734    534.741    -20.007    506.804    530.446    506.804    511.093    506.804
 91.670    525.000    537.902    -12.902    506.642    533.081    506.642    511.455    506.642
 91.770    517.472    542.100    -24.628    506.479    536.643    506.479    511.926    506.479
 91.870    517.330    547.564    -30.233    506.316    541.342    506.316    512.524    506.316
 91.970    519.000    554.538    -35.538    506.151    547.404    506.151    513.268    506.151
 92.070    550.000    563.249    -13.249    505.985    555.040    505.985    514.173    505.985
 92.170    585.000    573.888     11.112    505.818    564.428    505.818    515.252    505.818
 92.270    545.000    586.585    -41.585    505.650    575.687    505.650    516.516    505.650
 92.370    586.000    601.374    -15.374    505.481    588.851    505.481    517.965    505.481
 92.470    619.000    618.171      0.829    505.312    603.842    505.312    519.594    505.312
 92.570    666.000    636.751     29.249    505.141    620.453    505.141    521.386    505.141
 92.670    631.000    656.739    -25.739    504.969    638.336    504.969    523.312    504.969
 92.770    672.000    677.601     -5.601    504.796    657.003    504.796    525.328    504.796
 92.870    678.000    698.663    -20.663    504.622    675.842    504.622    527.372    504.622
 92.970    702.000    719.166    -17.166    504.448    694.173    504.448    529.365    504.448
 93.070    728.000    738.356    -10.356    504.272    711.343    504.272    531.207    504.272
 93.170    821.000    755.618     65.382    504.095    726.852    504.095    532.782    504.095
 93.270    781.000    770.591     10.409    503.918    740.463    503.918    533.967    503.918
 93.370    775.615    783.197     -7.583    503.739    752.209    503.739    534.650    503.739
 93.470    786.000    793.583     -7.583    503.560    762.314    503.560    534.754    503.560
 93.570    868.000    802.042     65.958    503.380    771.096    503.380    534.252    503.380
 93.670    793.000    808.948    -15.948    503.199    778.898    503.199    533.178    503.199
 93.770    825.000    814.752     10.248    503.017    786.083    503.017    531.618    503.017
 93.870    830.000    819.999     10.001    502.834    793.083    502.834    529.684    502.834
 93.970    871.000    825.326     45.674    502.650    800.411    502.650    527.501    502.650
 94.070    850.000    831.373     18.627    502.465    808.594    502.465    525.183    502.465
 94.170    861.000    838.621     22.379    502.279    818.015    502.279    522.827    502.279
 94.270    878.000    847.213     30.787    502.093    828.740    502.093    520.510    502.093
 94.370    845.756    856.847    -11.091    501.906    840.408    501.906    518.292    501.906
 94.470    865.000    866.744     -1.744    501.718    852.198    501.718    516.213    501.718
 94.570    903.000    875.704     27.296    501.529    862.887    501.529    514.302    501.529
 94.670    947.000    882.248     64.752    501.339    870.976    501.339    512.572    501.339
 94.770    855.852    884.825    -28.973    501.148    874.912    501.148    511.030    501.148
 94.870    895.000    882.114     12.886    500.957    873.376    500.957    509.672    500.957
 94.970    878.000    873.335      4.665    500.765    865.596    500.765    508.489    500.765
 95.070    877.535    858.461     19.073    500.572    851.560    500.572    507.467    500.572
 95.170    846.515    838.246      8.269    500.378    832.036    500.378    506.589    500.378
 95.270    864.000    814.053     49.947    500.184    808.405    500.184    505.838    500.184
 95.370    847.000    787.611     59.389    499.989    782.413    499.989    505.196    499.989
 95.470    763.000    760.795      2.205    499.793    755.954    499.793    504.646    499.793
 95.570    812.000    735.467     76.533    499.596    730.904    499.596    504.171    499.596
 95.670    717.000    713.379      3.621    499.399    709.029    499.399    503.759    499.399
 95.770    721.448    696.108     25.340    499.201    691.918    499.201    503.396    499.201
 95.870    698.000    685.084     12.916    499.002    681.012    499.002    503.075    499.002
 95.970    690.000    681.507      8.493    498.803    677.517    498.803    502.786    498.803
 96.070    670.000    686.382    -16.382    498.603    682.446    498.603    502.524    498.603
 96.170    695.000    700.521     -5.521    498.402    696.615    498.402    502.284    498.402
 96.270    729.000    724.526      4.474    498.200    720.630    498.200    502.063    498.200
 96.370    773.884    758.741     15.143    497.998    754.838    497.998    501.857    497.998
 96.470    794.000    803.172     -9.172    497.796    799.248    497.796    501.665    497.796
 96.570    892.936    857.399     35.537    497.592    853.440    497.592    501.486    497.592
 96.670    868.255    920.474    -52.219    497.389    916.468    497.389    501.318    497.389
 96.770    991.000    990.830      0.170    497.184    986.767    497.184    501.162    497.184
 96.870   1031.000   1066.226    -35.226    496.979   1062.097    496.979    501.017    496.979
 96.970   1125.000   1143.732    -18.732    496.774   1139.528    496.774    500.882    496.774
 97.070   1181.643   1219.772    -38.129    496.567   1215.485    496.567    500.759    496.567
 97.170   1246.000   1290.243    -44.243    496.361   1285.866    496.361    500.648    496.361
 97.270   1353.371   1350.761      2.610    496.153   1346.285    496.153    500.549    496.153
 97.370   1384.000   1397.079    -13.079    495.946   1392.495    495.946    500.463    495.946
 97.470   1439.000   1425.676     13.324    495.737   1420.974    495.737    500.391    495.737
 97.570   1446.000   1434.399     11.601    495.529   1429.566    495.529    500.334    495.529
 97.670   1393.000   1422.894    -29.894    495.320   1417.913    495.320    500.295    495.320
 97.770   1355.000   1392.628    -37.628    495.110   1387.477    495.110    500.275    495.110
 97.870   1410.000   1346.501     63.499    494.900   1341.154    494.900    500.278    494.900
 97.970   1305.000   1288.279     16.721    494.689   1282.705    494.689    500.308    494.689
 98.070   1188.933   1222.069    -33.136    494.478   1216.233    494.478    500.369    494.478
 98.170   1152.000   1151.948      0.052    494.267   1145.806    494.267    500.469    494.267
 98.270   1067.000   1081.718    -14.718    494.055   1075.218    494.055    500.616    494.055
 98.370   1027.000   1014.761     12.239    493.843   1007.840    493.843    500.822    493.843
 98.470    998.000    953.968     44.032    493.630    946.551    493.630    501.102    493.630
 98.570    914.000    901.716     12.284    493.417    893.707    493.417    501.473    493.417
 98.670    884.473    859.885     24.588    493.204    851.169    493.204    501.958    493.204
 98.770    806.000    829.911    -23.911    492.991    820.344    492.991    502.586    492.991
 98.870    806.000    812.846     -6.846    492.777    802.253    492.777    503.389    492.777
 98.970    798.000    809.442    -11.442    492.563    797.607    492.563    504.406    492.563
 99.070    830.000    820.202      9.798    492.348    806.867    492.348    505.682    492.348
 99.170    813.000    845.421    -32.421    492.133    830.280    492.133    507.266    492.133
 99.270    864.203    885.181    -20.978    491.918    867.872    491.918    509.212    491.918
 99.370    947.000    939.299      7.701    491.703    919.408    491.703    511.575    491.703
 99.470   1011.000   1007.309      3.691    491.488    984.365    491.488    514.409    491.488
 99.570   1099.000   1088.310     10.690    491.272   1061.793    491.272    517.767    491.272
 99.670   1215.000   1180.890     34.110    491.056   1150.236    491.056    521.692    491.056
 99.770   1292.000   1283.048      8.952    490.840   1247.661    490.840    526.217    490.840
 99.870   1426.268   1392.126     34.142    490.624   1351.394    490.624    531.358    490.624
 99.970   1560.166   1504.791     55.375    490.408   1458.107    490.408    537.109    490.408
100.070   1607.408   1617.105     -9.697    490.191   1563.893    490.191    543.441    490.191
100.170   1818.000   1724.720     93.280    489.975   1664.462    489.975    550.293    489.975
100.270   1823.000   1823.193     -0.193    489.758   1755.468    489.758    557.570    489.758
100.370   2018.000   1908.389    109.611    489.541   1832.908    489.541    565.136    489.541
100.470   2027.373   1976.817     50.557    489.324   1893.467    489.324    572.815    489.324
100.570   2108.000   2025.795     82.205    489.108   1934.689    489.108    580.379    489.108
100.670   2046.617   2053.447     -6.830    488.891   1954.969    488.891    587.556    488.891
100.770   2070.535   2058.669     11.866    488.674   1953.520    488.674    594.028    488.674
100.870   2020.413   2041.234    -20.821    488.457   1930.460    488.457    599.450    488.457
100.970   2021.000   2002.048     18.952    488.240   1887.033    488.240    603.482    488.240
101.070   1923.222   1943.386    -20.164    488.023   1825.804    488.023    605.834    488.023
101.170   1804.432   1868.881    -64.450    487.806   1750.602    487.806    606.312    487.806
101.270   1773.000   1783.195    -10.195    487.590   1666.139    487.590    604.863    487.590
101.370   1645.483   1691.443    -45.960    487.373   1577.440    487.373    601.582    487.373
101.470   1556.000   1598.615    -42.615    487.156   1489.266    487.156    596.696    487.156
101.570   1439.033   1509.106    -70.073    486.940   1405.703    486.940    590.516    486.940
101.670   1475.000   1426.417     48.583    486.724   1329.909    486.724    583.388    486.724
101.770   1379.000   1353.011     25.989    486.508   1264.007    486.508    575.651    486.508
101.870   1395.000   1290.268    104.732    486.292   1209.074    486.292    567.611    486.292
101.970   1267.000   1238.524     28.476    486.076   1165.183    486.076    559.528    486.076
102.070   1197.000   1197.155     -0.155    485.861   1131.502    485.861    551.614    485.861
102.170   1123.000   1164.725    -41.725    485.645   1106.428    485.645    544.034    485.645
102.270   1093.013   1139.160    -46.148    485.430   1087.767    485.430    536.911    485.430
102.370   1054.000   1117.983    -63.983    485.216   1072.954    485.216    530.330    485.216
102.470   1120.000   1098.580     21.420    485.001   1059.325    485.001    524.341    485.001
102.570   1117.370   1078.523     38.847    484.787   1044.427    484.787    518.968    484.787
102.670    998.215   1055.874    -57.659    484.573   1026.326    484.573    514.208    484.573
102.770   1036.093   1029.417      6.676    484.360   1003.824    484.360    510.041    484.360
102.870   1050.828    998.733     52.095    484.147    976.538    484.147    506.430    484.147
102.970    956.000    964.109     -8.109    483.934    944.802    483.934    503.328    483.934
103.070    863.000    926.348    -63.348    483.722    909.472    483.722    500.683    483.722
103.170    895.114    886.543      8.572    483.510    871.694    483.510    498.439    483.510
103.270    865.000    845.891     19.109    483.298    832.723    483.298    496.541    483.298
103.370    780.000    805.568    -25.568    483.088    793.786    483.088    494.938    483.088
103.470    776.000    766.629      9.371    482.877    755.987    482.877    493.581    482.877
103.570    728.000    729.962     -1.962    482.667    720.258    482.667    492.426    482.667
103.670    682.000    696.248    -14.248    482.458    687.317    482.458    491.437    482.458
103.770    699.736    665.948     33.788    482.249    657.655    482.249    490.582    482.249
103.870    632.000    639.308     -7.308    482.041    631.547    482.041    489.836    482.041
103.970    589.000    616.374    -27.374    481.833    609.060    481.833    489.175    481.833
104.070    630.000    597.030     32.970    481.626    590.095    481.626    488.584    481.626
104.170    565.000    581.035    -16.035    481.420    574.423    481.420    488.049    481.420
104.270    574.818    568.057      6.761    481.214    561.725    481.214    487.559    481.214
104.370    551.000    557.737     -6.737    481.009    551.650    481.009    487.106    481.009
104.470    536.000    549.689    -13.689    480.805    543.818    480.805    486.683    480.805
104.570    573.000    543.546     29.454    480.601    537.866    480.601    486.286    480.601
104.670    577.231    538.978     38.253    480.398    533.468    480.398    485.911    480.398
104.770    566.000    535.704     30.296    480.196    530.345    480.196    485.555    480.196
104.870    555.579    533.494     22.084    479.995    528.272    479.995    485.217    479.995
104.970    537.000    532.177      4.823    479.795    527.077    479.795    484.893    479.795
105.070    577.000    531.633     45.367    479.595    526.642    479.595    484.582    479.595
105.170    533.000    531.793      1.207    479.396    526.899    479.396    484.285    479.396
105.270    548.000    532.631     15.369    479.198    527.825    479.198    483.999    479.198
105.370    515.000    534.167    -19.167    479.001    529.438    479.001    483.723    479.001
105.470    563.000    536.450     26.550    478.805    531.788    478.805    483.458    478.805
105.570    542.000    539.556      2.444    478.610    534.953    478.610    483.202    478.610
105.670    503.968    543.581    -39.613    478.416    539.028    478.416    482.955    478.416
105.770    585.000    548.622     36.378    478.223    544.112    478.223    482.717    478.223
105.870    572.498    554.770     17.728    478.031    550.295    478.031    482.487    478.031
105.970    587.046    562.089     24.958    477.840    557.642    477.840    482.264    477.840
106.070    573.000    570.605      2.395    477.650    566.180    477.650    482.050    477.650
106.170    529.000    580.294    -51.294    477.462    575.885    477.462    481.842    477.462
106.270    595.000    591.071      3.929    477.274    586.671    477.274    481.642    477.274
106.370    598.000    602.784     -4.784    477.087    598.388    477.087    481.449    477.087
106.470    603.000    615.214    -12.214    476.902    610.816    476.902    481.262    476.902
106.570    598.078    628.076    -29.998    476.718    623.672    476.718    481.082    476.718
106.670    630.406    641.026    -10.620    476.535    636.609    476.535    480.909    476.535
106.770    646.038    653.671     -7.633    476.354    649.238    476.354    480.743    476.354
106.870    618.000    665.589    -47.589    476.173    661.136    476.173    480.583    476.173
106.970    679.000    676.357      2.643    475.994    671.878    475.994    480.429    475.994
107.070    677.577    685.585     -8.008    475.816    681.076    475.816    480.282    475.816
107.170    645.670    692.965    -47.295    475.640    688.423    475.640    480.141    475.640
107.270    682.000    698.327    -16.327    475.465    693.746    475.465    480.008    475.465
107.370    704.000    701.671      2.329    475.292    697.047    475.292    479.880    475.292
107.470    727.000    703.178     23.822    475.119    698.507    475.119    479.760    475.119
107.570    709.000    703.184      5.816    474.949    698.459    474.949    479.646    474.949
107.670    668.000    702.119    -34.119    474.780    697.336    474.780    479.540    474.780
107.770    689.000    700.446    -11.446    474.612    695.600    474.612    479.440    474.612
107.870    676.105    698.603    -22.498    474.446    693.687    474.446    479.348    474.446
107.970    732.000    696.951     35.049    474.281    691.959    474.281    479.264    474.281
108.070    703.571    695.750      7.821    474.118    690.676    474.118    479.187    474.118
108.170    712.000    695.141     16.859    473.957    689.978    473.957    479.118    473.957
108.270    687.000    695.132     -8.132    473.798    689.874    473.798    479.058    473.798
108.370    665.000    695.605    -30.605    473.640    690.244    473.640    479.006    473.640
108.470    702.000    696.322      5.678    473.483    690.852    473.483    478.963    473.483
108.570    688.000    696.947     -8.947    473.329    691.359    473.329    478.930    473.329
108.670    685.000    697.075    -12.075    473.176    691.361    473.176    478.906    473.176
108.770    734.515    696.280     38.235    473.025    690.432    473.025    478.892    473.025
108.870    672.000    694.171    -22.171    472.876    688.179    472.876    478.889    472.876
108.970    646.000    690.450    -44.450    472.729    684.306    472.729    478.897    472.729
109.070    693.000    684.962      8.038    472.583    678.654    472.583    478.917    472.583
109.170    650.367    677.710    -27.343    472.440    671.227    472.440    478.949    472.440
109.270    678.000    668.849      9.151    472.298    662.179    472.298    478.994    472.298
109.370    631.137    658.647    -27.510    472.159    651.778    472.159    479.054    472.159
109.470    614.000    647.446    -33.446    472.021    640.365    472.021    479.128    472.021
109.570    674.000    635.617     38.383    471.886    628.309    471.886    479.217    471.886
109.670    622.000    623.530     -1.530    471.752    615.980    471.752    479.324    471.752
109.770    581.000    611.529    -30.529    471.621    603.720    471.621    479.450    471.621
109.870    622.000    599.901     22.099    471.492    591.816    471.492    479.595    471.492
109.970    592.766    588.936      3.829    471.365    580.555    471.365    479.762    471.365
110.070    559.000    578.861    -19.861    471.240    570.161    471.240    479.953    471.240
110.170    631.000    569.807     61.193    471.117    560.765    471.117    480.171    471.117
110.270    597.000    561.872     35.128    470.997    552.458    470.997    480.419    470.997
110.370    621.000    555.100     65.900    470.879    545.284    470.879    480.701    470.879
110.470    552.000    549.493      2.507    470.763    539.239    470.763    481.022    470.763
110.570    576.425    545.017     31.409    470.649    534.281    470.649    481.387    470.649
110.670    550.000    541.608      8.392    470.538    530.341    470.538    481.806    470.538
110.770    530.000    539.185     -9.185    470.429    527.329    470.429    482.285    470.429
110.870    556.000    537.658     18.342    470.323    525.142    470.323    482.837    470.323
110.970    513.230    536.932    -23.702    470.219    523.673    470.219    483.475    470.219
111.070    589.000    536.919     52.081    470.118    522.817    470.118    484.215    470.118
111.170    497.237    537.537    -40.300    470.019    522.474    470.019    485.077    470.019
111.270    569.992    538.720     31.272    469.923    522.553    469.923    486.083    469.923
111.370    552.166    540.413     11.753    469.829    522.974    469.829    487.261    469.829
111.470    520.000    542.579    -22.579    469.738    523.666    469.738    488.643    469.738
111.570    519.000    545.195    -26.195    469.650    524.571    469.650    490.265    469.650
111.670    544.000    548.256     -4.256    469.564    525.642    469.564    492.168    469.564
111.770    554.000    551.772      2.228    469.481    526.844    469.481    494.399    469.481
111.870    576.358    555.769     20.589    469.401    528.151    469.401    497.008    469.401
111.970    522.781    560.288    -37.508    469.324    529.550    469.324    500.051    469.324
112.070    563.000    565.386     -2.386    469.249    531.038    469.249    503.587    469.249
112.170    599.000    571.130     27.870    469.178    532.621    469.178    507.675    469.178
112.270    553.791    577.598    -23.807    469.109    534.317    469.109    512.378    469.109
112.370    601.000    584.874     16.126    469.043    536.149    469.043    517.755    469.043
112.470    632.000    593.048     38.952    468.981    538.150    468.981    523.865    468.981
112.570    604.000    602.214      1.786    468.921    540.362    468.921    530.758    468.921
112.670    640.000    612.465     27.535    468.864    542.838    468.864    538.476    468.864
112.770    651.314    623.899     27.415    468.810    545.644    468.810    547.049    468.810
112.870    651.000    636.615     14.385    468.760    548.865    468.760    556.493    468.760
112.970    624.319    650.721    -26.402    468.712    552.610    468.712    566.804    468.712
113.070    692.120    666.334     25.786    468.668    557.024    468.668    577.958    468.668
113.170    643.000    683.595    -40.595    468.627    562.295    468.627    589.906    468.627
113.270    707.000    702.669      4.331    468.589    568.668    468.589    602.566    468.589
113.370    715.000    723.780     -8.780    468.555    576.467    468.555    615.840    468.555
113.470    748.000    747.200      0.800    468.524    586.109    468.524    629.584    468.524
113.570    770.000    773.289     -3.289    468.496    598.128    468.496    643.622    468.496
113.670    789.901    802.511    -12.610    468.471    613.203    468.471    657.739    468.471
113.770    839.378    835.459      3.919    468.451    632.181    468.451    671.681    468.451
113.870    895.000    872.882     22.118    468.433    656.107    468.433    685.154    468.433
113.970    905.478    915.712    -10.234    468.419    686.242    468.419    697.825    468.419
114.070    940.000    965.091    -25.091    468.409    724.090    468.409    709.333    468.409
114.170   1031.576   1022.393      9.183    468.402    771.402    468.402    719.302    468.402
114.270   1126.000   1089.252     36.748    468.399    830.176    468.399    727.366    468.399
114.370   1090.000   1167.566    -77.566    468.399    902.642    468.399    733.194    468.399
114.470   1322.623   1259.498     63.126    468.403    991.218    468.403    736.529    468.403
114.570   1347.883   1367.440    -19.557    468.411   1098.454    468.411    737.215    468.411
114.670   1562.000   1493.942     68.058    468.423   1226.936    468.423    735.213    468.423
114.770   1620.915   1641.621    -20.706    468.439   1379.175    468.439    730.632    468.439
114.870   1879.000   1812.973     66.027    468.458   1557.462    468.458    723.674    468.458
114.970   2113.000   2010.200    102.800    468.481   1763.705    468.481    714.637    468.481
115.070   2295.000   2234.995     60.005    468.509   1999.245    468.509    703.872    468.509
115.170   2482.753   2488.323     -5.571    468.540   2264.673    468.540    691.754    468.540
115.270   2854.000   2770.210     83.790    468.575   2559.644    468.575    678.656    468.575
115.370   3147.000   3079.558     67.442    468.614   2882.715    468.614    664.924    468.614
115.470   3312.402   3414.002   -101.600    468.658   3231.207    468.658    650.875    468.658
115.570   3740.000   3769.812    -29.812    468.705   3601.118    468.705    636.782    468.705
115.670   4169.000   4141.852     27.148    468.757   3987.079    468.757    622.880    468.757
115.770   4525.000   4523.597      1.403    468.813   4382.373    468.813    609.364    468.813
115.870   4801.370   4907.220   -105.850    468.873   4779.015    468.873    596.393    468.873
115.970   5188.000   5283.735    -95.735    468.938   5167.901    468.938    584.090    468.938
116.070   5624.000   5643.225    -19.225    469.007   5539.020    469.007    572.547    469.007
116.170   5958.402   5975.140    -16.738    469.080   5881.763    469.080    561.826    469.080
116.270   6350.000   6268.709     81.291    469.157   6185.323    469.157    551.964    469.157
116.370   6592.000   6513.477     78.523    469.240   6439.229    469.240    542.975    469.240
116.470   6831.000   6699.965    131.035    469.326   6634.008    469.326    534.853    469.326
116.570   6897.000   6820.431     76.569    469.417   6761.939    469.417    527.574    469.417
116.670   6920.214   6869.612     50.602    469.513   6817.791    469.513    521.103    469.513
116.770   6895.468   6845.294     50.174    469.614   6799.392    469.614    515.391    469.614
116.870   6760.883   6748.556     12.326    469.719   6707.872    469.719    510.387    469.719
116.970   6608.107   6583.643     24.464    469.828   6547.528    469.828    506.029    469.828
117.070   6283.013   6357.494    -74.480    469.943   6325.357    469.943    502.257    469.943
117.170   6191.968   6078.946    113.023    470.062   6050.255    470.062    499.010    470.062
117.270   5465.000   5758.044   -293.044    470.187   5732.324    470.187    496.228    470.187
117.370   5179.000   5405.336   -226.336    470.316   5382.169    470.316    493.854    470.316
117.470   4907.000   5031.300   -124.300    470.450   5010.320    470.450    491.835    470.450
117.570   4529.000   4645.914   -116.914    470.589   4626.805    470.589    490.122    470.589
117.670   4332.000   4258.327     73.673    470.733   4240.818    470.733    488.672    470.733
117.770   3971.000   3876.629     94.371    470.882   3860.489    470.882    487.446    470.882
117.870   3480.464   3507.693    -27.229    471.036   3492.727    471.036    486.410    471.036
117.970   3270.000   3157.087    112.913    471.196   3143.132    471.196    485.534    471.196
118.070   2742.926   2829.061    -86.135    471.360   2815.980    471.360    484.793    471.360
118.170   2508.000   2526.582    -18.582    471.530   2514.262    471.530    484.167    471.530
118.270   2161.000   2251.426    -90.426    471.705   2239.775    471.705    483.638    471.705
118.370   2046.000   2004.306     41.694    471.886   1993.246    471.886    483.191    471.886
118.470   1851.080   1785.023     66.057    472.072   1774.490    472.072    482.813    472.072
118.570   1521.086   1592.632    -71.546    472.263   1582.574    472.263    482.495    472.263
118.670   1418.000   1425.609     -7.609    472.460   1415.982    472.460    482.230    472.460
118.770   1222.208   1282.019    -59.811    472.662   1272.786    472.662    482.010    472.662
118.870   1099.226   1159.668    -60.442    472.870   1150.799    472.870    481.830    472.870
118.970   1019.913   1056.240    -36.327    473.084   1047.708    473.084    481.686    473.084
119.070    977.723    969.414      8.310    473.303    961.195    473.303    481.575    473.303
119.170    878.925    896.949    -18.024    473.528    889.023    473.528    481.493    473.528
119.270    859.000    836.757     22.243    473.759    829.104    473.759    481.440    473.759
119.370    746.000    786.941    -40.941    473.995    779.544    473.995    481.412    473.995
119.470    730.786    745.816    -15.030    474.238    738.658    474.238    481.409    474.238
119.570    708.000    711.919     -3.919    474.486    704.985    474.486    481.430    474.486
119.670    679.000    684.002     -5.002    474.740    677.275    474.740    481.474    474.740
119.770    615.000    661.015    -46.015    475.000    654.480    475.000    481.540    475.000
119.870    649.000    642.087      6.913    475.267    635.730    475.267    481.627    475.267
119.970    625.433    626.507     -1.074    475.539    620.312    475.539    481.737    475.539
120.070    605.000    613.697     -8.697    475.818    607.649    475.818    481.868    475.818
120.170    583.000    603.193    -20.193    476.102    597.278    476.102    482.020    476.102
120.270    566.579    594.628    -28.049    476.393    588.829    476.393    482.194    476.393
120.370    608.684    587.706     20.978    476.690    582.010    476.690    482.390    476.690
120.470    561.000    582.200    -21.200    476.994    576.589    476.994    482.608    476.994
120.570    584.000    577.927      6.073    477.304    572.387    477.304    482.849    477.304
120.670    608.845    574.746     34.099    477.621    569.260    477.621    483.112    477.621
120.770    548.000    572.547    -24.547    477.943    567.098    477.943    483.397    477.943
120.870    601.049    571.240     29.809    478.273    565.812    478.273    483.707    478.273
120.970    587.000    570.756     16.244    478.609    565.333    478.609    484.039    478.609
121.070    589.000    571.035     17.965    478.952    565.599    478.952    484.395    478.952
121.170    562.525    572.026     -9.500    479.301    566.561    479.301    484.775    479.301
121.270    582.000    573.679      8.321    479.657    568.169    479.657    485.179    479.657
121.370    550.000    575.947    -25.947    480.020    570.374    480.020    485.605    480.020
121.470    537.711    578.777    -41.066    480.390    573.127    480.390    486.055    480.390
121.570    534.000    582.114    -48.114    480.767    576.371    480.767    486.526    480.767
121.670    564.000    585.894    -21.894    481.151    580.043    481.151    487.019    481.151
121.770    560.847    590.046    -29.199    481.541    584.076    481.541    487.532    481.541
121.870    592.432    594.491     -2.059    481.939    588.390    481.939    488.064    481.939
121.970    618.000    599.141     18.859    482.344    592.899    482.344    488.612    482.344
122.070    594.359    603.898     -9.540    482.756    597.508    482.756    489.175    482.756
122.170    652.000    608.660     43.340    483.175    602.116    483.175    489.751    483.175
122.270    651.000    613.315     37.685    483.602    606.615    483.602    490.336    483.602
122.370    633.000    617.750     15.250    484.036    610.896    484.036    490.927    484.036
122.470    585.000    621.852    -36.852    484.477    614.847    484.477    491.521    484.477
122.570    640.000    625.510     14.490    484.926    618.364    484.926    492.114    484.926
122.670    670.000    628.623     41.377    485.382    621.348    485.382    492.701    485.382
122.770    656.570    631.107     25.463    485.846    623.720    485.846    493.278    485.846
122.870    635.000    632.895      2.105    486.317    625.417    486.317    493.842    486.317
122.970    612.000    633.948    -21.948    486.796    626.404    486.796    494.387    486.796
123.070    664.214    634.250     29.964    487.283    626.671    487.283    494.910    487.283
123.170    638.000    633.817      4.183    487.777    626.233    487.777    495.408    487.777
123.270    616.776    632.684    -15.908    488.279    625.130    488.279    495.880    488.279
123.370    598.666    630.907    -32.242    488.790    623.418    488.790    496.324    488.790
123.470    598.000    628.559    -30.559    489.308    621.169    489.308    496.741    489.308
123.570    639.000    625.719     13.281    489.834    618.461    489.834    497.133    489.834
123.670    673.000    622.472     50.528    490.368    615.377    490.368    497.503    490.368
123.770    594.497    618.905    -24.408    490.910    611.998    490.910    497.854    490.910
123.870    658.000    615.101     42.899    491.461    608.406    491.461    498.189    491.461
123.970    618.000    611.138      6.862    492.019    604.674    492.019    498.514    492.019
124.070    569.233    607.089    -37.856    492.586    600.869    492.586    498.833    492.586
124.170    612.000    603.015      8.985    493.161    597.051    493.161    499.150    493.161
124.270    628.000    598.968     29.032    493.745    593.266    493.745    499.468    493.745
124.370    650.000    594.989     55.011    494.337    589.553    494.337    499.792    494.337
124.470    588.000    591.110     -3.110    494.937    585.939    494.937    500.124    494.937
124.570    608.000    587.348     20.652    495.546    582.441    495.546    500.468    495.546
124.670    586.000    583.717      2.283    496.164    579.068    496.164    500.825    496.164
124.770    568.000    580.220    -12.220    496.790    575.822    496.790    501.198    496.790
124.870    581.000    576.856      4.144    497.426    572.701    497.426    501.589    497.426
124.970    584.000    573.621     10.379    498.070    569.698    498.070    501.999    498.070
