neutron_powder_diffraction_0188
R_wp: 3.946
Temperature (K): 1074.100
Counts: 84115.00
Wavelength (Ã…): 2.52098
COMMENTS
Test file for demonstrating the .xyy file format in Reel1.0
END OF HEADER
   tth       Y_obs     Y_calc      Y_res    Background    Phase_1_Nuc    Phase_1_Mag    Phase_2_Nuc    Phase_2_Mag
  9.970    607.000    569.020     37.980    568.335    568.990    568.335    568.364    568.335
 10.070    661.000    569.153     91.847    568.411    569.124    568.411    568.440    568.411
 10.170    536.685    569.289    -32.604    568.482    569.260    568.482    568.512    568.482
 10.270    616.000    569.431     46.569    568.548    569.400    568.548    568.578    568.548
 10.370    573.314    569.588      3.726    568.609    569.547    568.609    568.649    568.609
 10.470    555.209    569.746    -14.537    568.664    569.704    568.664    568.705    568.664
 10.570    543.000    569.917    -26.917    568.714    569.875    568.714    568.756    568.714
 10.670    602.000    570.106     31.894    568.759    570.063    568.759    568.801    568.759
 10.770    616.000    570.319     45.681    568.799    570.276    568.799    568.841    568.799
 10.870    577.378    570.566      6.812    568.833    570.523    568.833    568.875    568.833
 10.970    556.000    570.859    -14.859    568.863    570.816    568.863    568.905    568.863
 11.070    585.000    571.215     13.785    568.888    571.172    568.888    568.930    568.888
 11.170    557.000    571.660    -14.660    568.908    571.616    568.908    568.950    568.908
 11.270    616.286    572.234     44.052    568.923    572.189    568.923    568.966    568.923
 11.370    566.000    573.010     -7.010    568.933    572.959    568.933    568.981    568.933
 11.470    557.462    574.129    -16.666    568.938    574.076    568.938    568.987    568.938
 11.570    593.000    576.014     16.986    568.939    575.960    568.939    568.988    568.939
 11.670    588.734    579.844      8.890    568.935    579.788    568.935    568.985    568.935
 11.770    586.000    588.327     -2.327    568.926    588.266    568.926    568.976    568.926
 11.870    601.000    605.768     -4.768    568.913    605.697    568.913    568.963    568.913
 11.970    705.000    635.433     69.567    568.895    635.345    568.895    568.946    568.895
 12.070    719.000    673.428     45.572    568.873    673.319    568.873    568.924    568.873
 12.170    671.316    703.222    -31.906    568.847    703.096    568.847    568.898    568.847
 12.270    718.293    704.158     14.135    568.816    704.030    568.816    568.867    568.816
 12.370    675.000    675.370     -0.370    568.780    675.258    568.780    568.832    568.780
 12.470    666.000    637.151     28.849    568.741    637.061    568.741    568.793    568.741
 12.570    629.101    606.765     22.335    568.697    606.692    568.697    568.749    568.697
 12.670    631.644    588.675     42.969    568.649    588.612    568.649    568.701    568.649
 12.770    534.267    579.795    -45.528    568.597    579.736    568.597    568.649    568.597
 12.870    621.000    575.759     45.241    568.540    575.702    568.540    568.593    568.540
 12.970    560.564    573.761    -13.197    568.480    573.704    568.480    568.534    568.480
 13.070    535.672    572.565    -36.892    568.416    572.506    568.416    568.472    568.416
 13.170    564.000    571.726     -7.726    568.347    571.667    568.347    568.404    568.347
 13.270    562.000    571.090     -9.090    568.275    571.030    568.275    568.333    568.275
 13.370    527.000    570.586    -43.586    568.199    570.526    568.199    568.257    568.199
 13.470    547.000    570.173    -23.173    568.118    570.113    568.118    568.177    568.118
 13.570    566.281    569.827     -3.546    568.035    569.766    568.035    568.094    568.035
 13.670    580.941    569.529     11.411    567.947    569.469    567.947    568.007    567.947
 13.770    570.000    569.265      0.735    567.856    569.204    567.856    567.916    567.856
 13.870    567.000    569.028     -2.028    567.761    568.966    567.761    567.821    567.761
 13.970    596.000    568.810     27.190    567.662    568.749    567.662    567.723    567.662
 14.070    579.000    568.608     10.392    567.560    568.546    567.560    567.621    567.560
 14.170    589.680    568.417     21.263    567.454    568.355    567.454    567.516    567.454
 14.270    545.000    568.235    -23.235    567.345    568.172    567.345    567.407    567.345
 14.370    530.000    568.062    -38.062    567.232    568.000    567.232    567.294    567.232
 14.470    575.000    567.893      7.107    567.116    567.830    567.116    567.178    567.116
 14.570    534.000    567.726    -33.726    566.996    567.663    566.996    567.059    566.996
 14.670    547.000    567.562    -20.562    566.873    567.498    566.873    566.937    566.873
 14.770    589.372    567.399     21.973    566.747    567.335    566.747    566.811    566.747
 14.870    512.000    567.238    -55.238    566.618    567.173    566.618    566.682    566.618
 14.970    560.000    567.076     -7.076    566.485    567.012    566.485    566.549    566.485
 15.070    578.000    566.915     11.085    566.349    566.850    566.349    566.414    566.349
 15.170    583.000    566.754     16.246    566.210    566.688    566.210    566.275    566.210
 15.270    589.000    566.591     22.409    566.068    566.526    566.068    566.133    566.068
 15.370    569.000    566.428      2.572    565.923    566.362    565.923    565.989    565.923
 15.470    578.000    566.264     11.736    565.775    566.198    565.775    565.841    565.775
 15.570    525.000    566.099    -41.099    565.624    566.032    565.624    565.691    565.624
 15.670    586.000    565.933     20.067    565.469    565.864    565.469    565.538    565.469
 15.770    533.000    565.764    -32.764    565.313    565.695    565.313    565.382    565.313
 15.870    526.114    565.594    -39.481    565.153    565.525    565.153    565.222    565.153
 15.970    539.159    565.422    -26.263    564.990    565.352    564.990    565.060    564.990
 16.070    533.000    565.248    -32.248    564.825    565.178    564.825    564.895    564.825
 16.170    529.000    565.073    -36.073    564.656    565.002    564.656    564.727    564.656
 16.270    551.000    564.895    -13.895    564.486    564.824    564.486    564.557    564.486
 16.370    579.518    564.715     14.803    564.312    564.644    564.312    564.383    564.312
 16.470    521.642    564.534    -42.892    564.136    564.462    564.136    564.208    564.136
 16.570    581.000    564.350     16.650    563.957    564.278    563.957    564.029    563.957
 16.670    535.000    564.165    -29.165    563.776    564.092    563.776    563.848    563.776
 16.770    517.551    563.978    -46.426    563.592    563.904    563.592    563.665    563.592
 16.870    542.000    563.791    -21.791    563.405    563.717    563.405    563.479    563.405
 16.970    563.000    563.600     -0.600    563.217    563.526    563.217    563.291    563.217
 17.070    573.125    563.407      9.718    563.025    563.332    563.025    563.100    563.025
 17.170    496.000    563.212    -67.212    562.832    563.136    562.832    562.907    562.832
 17.270    532.000    563.014    -31.014    562.636    562.939    562.636    562.712    562.636
 17.370    537.000    562.815    -25.815    562.437    562.739    562.437    562.514    562.437
 17.470    605.000    562.614     42.386    562.237    562.537    562.237    562.314    562.237
 17.570    558.810    562.411     -3.601    562.034    562.334    562.034    562.112    562.034
 17.670    557.000    562.206     -5.206    561.829    562.128    561.829    561.907    561.829
 17.770    519.329    562.000    -42.671    561.622    561.921    561.622    561.701    561.622
 17.870    566.386    561.792      4.594    561.413    561.712    561.413    561.492    561.413
 17.970    554.000    561.586     -7.586    561.201    561.502    561.201    561.285    561.201
 18.070    547.000    561.377    -14.377    560.988    561.291    560.988    561.074    560.988
 18.170    576.000    561.164     14.836    560.773    561.077    560.773    560.860    560.773
 18.270    583.000    560.948     22.052    560.555    560.860    560.555    560.643    560.555
 18.370    574.000    560.731     13.269    560.336    560.643    560.336    560.424    560.336
 18.470    568.000    560.512      7.488    560.114    560.423    560.114    560.203    560.114
 18.570    576.000    560.292     15.708    559.891    560.202    559.891    559.981    559.891
 18.670    553.380    560.070     -6.690    559.666    559.980    559.666    559.756    559.666
 18.770    550.070    559.847     -9.777    559.439    559.756    559.439    559.530    559.439
 18.870    533.000    559.622    -26.622    559.211    559.530    559.211    559.302    559.211
 18.970    545.000    559.396    -14.396    558.980    559.303    558.980    559.072    558.980
 19.070    554.000    559.168     -5.168    558.748    559.075    558.748    558.841    558.748
 19.170    578.000    558.940     19.060    558.514    558.846    558.514    558.608    558.514
 19.270    555.435    558.723     -3.288    558.278    558.628    558.278    558.373    558.278
 19.370    557.603    558.501     -0.897    558.041    558.406    558.041    558.136    558.041
 19.470    539.000    558.269    -19.269    557.802    558.173    557.802    557.898    557.802
 19.570    544.000    558.034    -14.034    557.562    557.938    557.562    557.659    557.562
 19.670    567.063    557.799      9.265    557.320    557.701    557.320    557.418    557.320
 19.770    540.294    557.562    -17.268    557.077    557.464    557.077    557.175    557.077
 19.870    530.398    557.325    -26.927    556.832    557.225    556.832    556.931    556.832
 19.970    533.000    557.086    -24.086    556.585    556.986    556.585    556.685    556.585
 20.070    552.000    556.846     -4.846    556.338    556.745    556.338    556.439    556.338
 20.170    533.000    556.606    -23.606    556.088    556.504    556.088    556.190    556.088
 20.270    579.000    556.364     22.636    555.838    556.261    555.838    555.941    555.838
 20.370    517.441    556.122    -38.681    555.586    556.018    555.586    555.690    555.586
 20.470    582.000    555.879     26.121    555.333    555.774    555.333    555.438    555.333
 20.570    588.556    555.635     32.921    555.078    555.529    555.078    555.184    555.078
 20.670    532.000    555.391    -23.391    554.823    555.284    554.823    554.930    554.823
 20.770    526.000    555.146    -29.146    554.566    555.038    554.566    554.674    554.566
 20.870    531.000    554.901    -23.901    554.308    554.792    554.308    554.417    554.308
 20.970    583.000    554.655     28.345    554.049    554.545    554.049    554.159    554.049
 21.070    519.859    554.410    -34.551    553.788    554.298    553.788    553.900    553.788
 21.170    537.563    554.164    -16.601    553.527    554.051    553.527    553.639    553.527
 21.270    602.000    553.918     48.082    553.264    553.804    553.264    553.378    553.264
 21.370    569.753    553.672     16.081    553.001    553.557    553.001    553.116    553.001
 21.470    537.000    553.428    -16.428    552.736    553.312    552.736    552.852    552.736
 21.570    588.616    553.195     35.421    552.471    553.078    552.471    552.588    552.471
 21.670    538.000    553.035    -15.035    552.204    552.916    552.204    552.323    552.204
 21.770    512.922    552.816    -39.893    551.937    552.696    551.937    552.057    551.937
 21.870    529.000    552.575    -23.575    551.668    552.453    551.668    551.790    551.668
 21.970    505.000    552.334    -47.334    551.399    552.211    551.399    551.522    551.399
 22.070    612.000    552.096     59.904    551.129    551.971    551.129    551.254    551.129
 22.170    575.000    551.882     23.118    550.858    551.753    550.858    550.987    550.858
 22.270    542.000    551.675     -9.675    550.587    551.544    550.587    550.717    550.587
 22.370    597.927    551.445     46.482    550.314    551.313    550.314    550.447    550.314
 22.470    529.000    551.221    -22.221    550.041    551.087    550.041    550.175    550.041
 22.570    544.000    551.042     -7.042    549.767    550.906    549.767    549.903    549.767
 22.670    591.000    550.841     40.159    549.493    550.703    549.493    549.631    549.493
 22.770    522.000    550.629    -28.629    549.217    550.489    549.217    549.357    549.217
 22.870    539.116    550.424    -11.307    548.941    550.282    548.941    549.083    548.941
 22.970    505.401    550.227    -44.826    548.665    550.084    548.665    548.809    548.665
 23.070    518.192    550.042    -31.850    548.388    549.897    548.388    548.534    548.388
 23.170    539.000    549.872    -10.872    548.110    549.724    548.110    548.259    548.110
 23.270    551.000    549.719      1.281    547.832    549.569    547.832    547.983    547.832
 23.370    564.500    549.591     14.909    547.553    549.438    547.553    547.706    547.553
 23.470    597.000    549.490     47.510    547.274    549.335    547.274    547.430    547.274
 23.570    565.000    549.429     15.571    546.994    549.271    546.994    547.153    546.994
 23.670    508.943    549.420    -40.477    546.714    549.260    546.714    546.875    546.714
 23.770    557.000    549.484      7.516    546.433    549.321    546.433    546.598    546.433
 23.870    530.627    549.651    -19.024    546.152    549.485    546.152    546.320    546.152
 23.970    574.499    549.981     24.518    545.871    549.813    545.871    546.042    545.871
 24.070    576.000    550.617     25.383    545.589    550.445    545.589    545.763    545.589
 24.170    528.451    551.953    -23.501    545.307    551.779    545.307    545.485    545.307
 24.270    569.000    554.998     14.002    545.025    554.823    545.025    545.206    545.025
 24.370    523.999    561.753    -37.754    544.742    561.579    544.742    544.927    544.742
 24.470    673.000    574.825     98.175    544.459    574.657    544.459    544.648    544.459
 24.570    578.000    595.298    -17.298    544.176    595.140    544.176    544.370    544.176
 24.670    609.265    619.068     -9.804    543.893    618.923    543.893    544.091    543.893
 24.770    676.951    634.652     42.298    543.609    634.514    543.609    543.812    543.609
 24.870    594.897    630.854    -35.957    543.326    630.708    543.326    543.533    543.326
 24.970    608.000    610.705     -2.705    543.042    610.539    543.042    543.255    543.042
 25.070    587.336    586.833      0.502    542.758    586.645    542.758    542.977    542.758
 25.170    545.000    568.252    -23.252    542.474    568.045    542.474    542.699    542.474
 25.270    572.000    557.014     14.986    542.190    556.792    542.190    542.421    542.190
 25.370    537.000    551.233    -14.233    541.905    551.000    541.905    542.143    541.905
 25.470    526.000    548.405    -22.405    541.621    548.163    541.621    541.866    541.621
 25.570    530.143    546.891    -16.748    541.337    546.641    541.337    541.590    541.337
 25.670    551.000    545.934      5.066    541.053    545.674    541.053    541.314    541.053
 25.770    500.190    545.241    -45.052    540.768    544.973    540.768    541.039    540.768
 25.870    600.000    544.687     55.313    540.484    544.408    540.484    540.764    540.484
 25.970    553.000    544.235      8.765    540.200    543.946    540.200    540.490    540.200
 26.070    584.000    543.860     40.140    539.916    543.560    539.916    540.217    539.916
 26.170    542.000    543.549     -1.549    539.632    543.236    539.632    539.945    539.632
 26.270    554.000    543.296     10.704    539.348    542.970    539.348    539.674    539.348
 26.370    524.240    543.120    -18.879    539.064    542.779    539.064    539.405    539.064
 26.470    513.690    542.993    -29.303    538.780    542.636    538.780    539.137    538.780
 26.570    521.000    542.899    -21.899    538.497    542.525    538.497    538.871    538.497
 26.670    552.752    542.853      9.900    538.214    542.461    538.214    538.606    538.214
 26.770    542.507    542.871     -0.364    537.931    542.458    537.931    538.344    537.931
 26.870    590.000    542.966     47.034    537.648    542.530    537.648    538.083    537.648
 26.970    514.000    543.155    -29.155    537.365    542.694    537.365    537.826    537.365
 27.070    519.000    543.474    -24.474    537.083    542.985    537.083    537.572    537.083
 27.170    522.000    543.962    -21.962    536.801    543.441    536.801    537.321    536.801
 27.270    548.000    544.638      3.362    536.519    544.082    536.519    537.074    536.519
 27.370    519.950    545.606    -25.656    536.238    545.010    536.238    536.832    536.238
 27.470    526.472    547.022    -20.550    535.957    546.381    535.957    536.596    535.957
 27.570    572.413    549.283     23.130    535.676    548.591    535.676    536.366    535.676
 27.670    544.000    553.790     -9.790    535.396    553.038    535.396    536.144    535.396
 27.770    568.786    565.252      3.534    535.116    564.430    535.116    535.932    535.116
 27.870    634.000    595.515     38.485    534.837    594.604    534.837    535.730    534.837
 27.970    666.198    662.839      3.360    534.558    661.816    534.558    535.542    534.558
 28.070    730.000    775.129    -45.129    534.279    773.967    534.279    535.372    534.279
 28.170    874.000    900.559    -26.559    534.001    899.241    534.001    535.222    534.001
 28.270   1003.879    962.423     41.455    533.723    960.954    533.723    535.098    533.723
 28.370    869.301    910.091    -40.790    533.446    908.469    533.446    535.010    533.446
 28.470    885.000    797.425     87.575    533.169    795.605    533.169    534.966    533.169
 28.570    673.038    710.331    -37.293    532.893    708.227    532.893    534.987    532.893
 28.670    683.000    692.991     -9.991    532.618    690.494    532.618    535.101    532.618
 28.770    749.000    740.367      8.633    532.343    737.327    532.343    535.364    532.343
 28.870    800.000    811.381    -11.381    532.068    807.567    532.068    535.871    532.068
 28.970    886.984    844.935     42.049    531.794    839.960    531.794    536.774    531.794
 29.070    750.000    804.963    -54.963    531.521    798.207    531.521    538.291    531.521
 29.170    686.000    723.178    -37.178    531.248    713.760    531.248    540.680    531.248
 29.270    668.000    648.440     19.560    530.976    635.268    530.976    544.156    530.976
 29.370    605.445    602.707      2.738    530.705    584.666    530.705    548.749    530.705
 29.470    599.000    582.975     16.025    530.434    559.383    530.434    554.026    530.434
 29.570    540.959    577.051    -36.091    530.164    548.509    530.164    558.703    530.164
 29.670    608.415    574.553     33.862    529.895    543.725    529.895    560.720    529.895
 29.770    596.000    570.342     25.658    529.626    541.167    529.626    558.798    529.626
 29.870    585.000    564.062     20.938    529.358    539.506    529.358    553.912    529.358
 29.970    591.408    557.358     34.050    529.091    538.341    529.091    548.106    529.091
 30.070    587.000    551.535     35.465    528.825    537.541    528.825    542.816    528.825
 30.170    511.247    547.127    -35.880    528.559    537.084    528.559    538.600    528.559
 30.270    568.848    544.276     24.572    528.294    537.074    528.294    535.493    528.294
 30.370    521.068    543.223    -22.155    528.030    537.950    528.030    533.300    528.030
 30.470    571.000    544.879     26.121    527.767    540.873    527.767    531.765    527.767
 30.570    499.000    551.197    -52.197    527.504    548.026    527.504    530.663    527.504
 30.670    603.000    564.420     38.580    527.242    561.812    527.242    529.827    527.242
 30.770    604.000    584.401     19.599    526.982    582.189    526.982    529.155    526.982
 30.870    622.000    605.175     16.825    526.722    603.260    526.722    528.585    526.722
 30.970    569.246    614.672    -45.426    526.462    612.995    526.462    528.084    526.462
 31.070    630.675    604.911     25.764    526.204    603.438    526.204    527.632    526.204
 31.170    589.000    583.299      5.701    525.947    582.001    525.947    527.216    525.947
 31.270    523.155    561.906    -38.751    525.690    560.753    525.690    526.828    525.690
 31.370    536.000    546.946    -10.946    525.435    545.910    525.435    526.463    525.435
 31.470    515.000    538.672    -23.672    525.180    537.732    525.180    526.116    525.180
 31.570    579.446    534.726     44.720    524.927    533.867    524.927    525.783    524.927
 31.670    500.433    532.875    -32.442    524.674    532.084    524.674    525.463    524.674
 31.770    535.976    531.882      4.094    524.422    531.150    524.422    525.153    524.422
 31.870    571.000    531.251     39.749    524.171    530.569    524.171    524.851    524.171
 31.970    497.124    530.813    -33.690    523.922    530.176    523.922    524.557    523.922
 32.070    509.000    530.515    -21.515    523.673    529.917    523.673    524.270    523.673
 32.170    553.593    530.329     23.264    523.425    529.766    523.425    523.988    523.425
 32.270    530.543    530.248      0.295    523.178    529.715    523.178    523.711    523.178
 32.370    514.195    530.275    -16.080    522.933    529.768    522.933    523.438    522.933
 32.470    528.928    530.416     -1.489    522.688    529.934    522.688    523.169    522.688
 32.570    595.000    530.690     64.310    522.444    530.229    522.444    522.904    522.444
 32.670    495.387    531.122    -35.734    522.202    530.680    522.202    522.642    522.202
 32.770    505.987    531.748    -25.762    521.960    531.324    521.960    522.383    521.960
 32.870    510.268    532.625    -22.358    521.720    532.217    521.720    522.127    521.720
 32.970    552.795    533.834     18.961    521.480    533.440    521.480    521.873    521.480
 33.070    543.562    535.501      8.061    521.242    535.119    521.242    521.622    521.242
 33.170    500.789    537.856    -37.068    521.005    537.486    521.005    521.373    521.005
 33.270    524.000    541.431    -17.431    520.769    541.071    520.769    521.127    520.769
 33.370    569.533    547.678     21.855    520.534    547.327    520.534    520.882    520.534
 33.470    545.000    560.439    -15.439    520.300    560.094    520.300    520.639    520.300
 33.570    646.000    588.072     57.928    520.067    587.730    520.067    520.399    520.067
 33.670    661.877    643.837     18.040    519.836    643.493    519.836    520.160    519.836
 33.770    756.000    739.777     16.223    519.606    739.424    519.606    519.923    519.606
 33.870    849.000    872.089    -23.089    519.376    871.725    519.376    519.687    519.376
 33.970   1059.000   1004.741     54.259    519.149   1004.372    519.149    519.454    519.149
 34.070   1070.829   1069.702      1.127    518.922   1069.348    518.922    519.222    518.922
 34.170   1024.000   1020.889      3.111    518.696   1020.567    518.696    518.991    518.696
 34.270    906.225    894.432     11.793    518.472    894.138    518.472    518.763    518.472
 34.370    739.000    758.775    -19.775    518.249    758.496    518.249    518.536    518.249
 34.470    695.583    655.643     39.940    518.027    655.369    518.027    518.310    518.027
 34.570    562.629    593.257    -30.627    517.806    592.982    517.806    518.086    517.806
 34.670    535.000    561.224    -26.224    517.587    560.950    517.587    517.863    517.587
 34.770    531.756    546.013    -14.256    517.368    545.739    517.368    517.642    517.368
 34.870    521.532    538.427    -16.894    517.151    538.155    517.151    517.423    517.151
 34.970    500.000    533.996    -33.996    516.936    533.726    516.936    517.205    516.936
 35.070    555.000    530.963     24.037    516.721    530.695    516.721    516.988    516.721
 35.170    566.720    528.681     38.039    516.508    528.415    516.508    516.773    516.508
 35.270    581.000    526.883     54.117    516.296    526.619    516.296    516.560    516.296
 35.370    561.458    525.427     36.031    516.085    525.164    516.085    516.348    516.085
 35.470    539.000    524.223     14.777    515.876    523.962    515.876    516.137    515.876
 35.570    546.000    523.211     22.789    515.668    522.951    515.668    515.928    515.668
 35.670    535.165    522.346     12.819    515.461    522.087    515.461    515.720    515.461
 35.770    519.000    521.597     -2.597    515.256    521.339    515.256    515.514    515.256
 35.870    505.000    520.941    -15.941    515.052    520.683    515.052    515.310    515.052
 35.970    534.000    520.361     13.639    514.849    520.104    514.849    515.106    514.849
 36.070    549.670    519.843     29.826    514.648    519.586    514.648    514.904    514.648
 36.170    524.000    519.379      4.621    514.448    519.122    514.448    514.704    514.448
 36.270    532.000    518.960     13.040    514.249    518.704    514.249    514.505    514.249
 36.370    486.000    518.583    -32.583    514.051    518.327    514.051    514.308    514.051
 36.470    533.826    518.244     15.583    513.855    517.987    513.855    514.112    513.855
 36.570    535.570    517.941     17.629    513.661    517.684    513.661    513.917    513.661
 36.670    506.390    517.677    -11.287    513.467    517.420    513.467    513.724    513.467
 36.770    529.000    517.458     11.542    513.275    517.201    513.275    513.533    513.275
 36.870    515.000    517.308     -2.308    513.085    517.050    513.085    513.342    513.085
 36.970    525.000    517.281      7.719    512.896    517.023    512.896    513.154    512.896
 37.070    523.000    517.507      5.493    512.708    517.249    512.708    512.967    512.708
 37.170    525.823    518.215      7.608    512.521    517.956    512.521    512.781    512.521
 37.270    488.799    519.710    -30.911    512.336    519.450    512.336    512.597    512.336
 37.370    529.000    522.218      6.782    512.153    521.958    512.153    512.414    512.153
 37.470    509.321    525.612    -16.292    511.970    525.352    511.970    512.233    511.970
 37.570    512.150    529.119    -16.969    511.790    528.858    511.790    512.053    511.790
 37.670    543.000    531.311     11.689    511.610    531.051    511.610    511.875    511.610
 37.770    545.000    531.015     13.985    511.432    530.756    511.432    511.698    511.432
 37.870    526.000    528.523     -2.523    511.256    528.265    511.256    511.523    511.256
 37.970    520.000    525.108     -5.108    511.081    524.850    511.081    511.349    511.081
 38.070    513.000    521.783     -8.783    510.907    521.524    510.907    511.177    510.907
 38.170    545.000    518.991     26.009    510.734    518.729    510.734    511.006    510.734
 38.270    514.000    516.878     -2.878    510.564    516.612    510.564    510.837    510.564
 38.370    491.000    515.407    -24.407    510.394    515.137    510.394    510.669    510.394
 38.470    528.000    514.435     13.565    510.226    514.161    510.226    510.503    510.226
 38.570    547.502    513.799     33.703    510.060    513.522    510.060    510.338    510.060
 38.670    523.000    513.367      9.633    509.895    513.088    509.895    510.175    509.895
 38.770    488.000    513.050    -25.050    509.731    512.768    509.731    510.013    509.731
 38.870    492.000    512.793    -20.793    509.569    512.509    509.569    509.853    509.569
 38.970    488.082    512.570    -24.488    509.408    512.284    509.408    509.695    509.408
 39.070    514.000    512.369      1.631    509.249    512.080    509.249    509.538    509.249
 39.170    513.661    512.183      1.478    509.091    511.892    509.091    509.382    509.091
 39.270    497.890    512.009    -14.119    508.935    511.716    508.935    509.228    508.935
 39.370    514.000    511.847      2.153    508.780    511.550    508.780    509.076    508.780
 39.470    483.587    511.693    -28.107    508.626    511.394    508.626    508.925    508.626
 39.570    476.018    511.549    -35.531    508.474    511.247    508.474    508.776    508.474
 39.670    498.222    511.413    -13.190    508.324    511.108    508.324    508.628    508.324
 39.770    484.000    511.284    -27.284    508.175    510.977    508.175    508.482    508.175
 39.870    474.000    511.164    -37.164    508.027    510.853    508.027    508.338    508.027
 39.970    533.999    511.051     22.948    507.881    510.738    507.881    508.195    507.881
 40.070    491.720    510.947    -19.227    507.737    510.630    507.737    508.053    507.737
 40.170    520.000    510.851      9.149    507.594    510.531    507.594    507.914    507.594
 40.270    490.000    510.764    -20.764    507.452    510.441    507.452    507.776    507.452
 40.370    514.000    510.688      3.312    507.312    510.361    507.312    507.639    507.312
 40.470    548.521    510.622     37.899    507.173    510.292    507.173    507.504    507.173
 40.570    540.000    510.569     29.431    507.036    510.235    507.036    507.371    507.036
 40.670    474.288    510.529    -36.241    506.900    510.191    506.900    507.239    506.900
 40.770    443.000    510.506    -67.506    506.766    510.164    506.766    507.109    506.766
 40.870    485.000    510.502    -25.502    506.633    510.156    506.633    506.980    506.633
 40.970    503.000    510.520     -7.520    506.502    510.170    506.502    506.853    506.502
 41.070    478.000    510.566    -32.566    506.373    510.211    506.373    506.728    506.373
 41.170    521.755    510.645     11.110    506.244    510.286    506.244    506.604    506.244
 41.270    504.000    510.765     -6.765    506.118    510.401    506.118    506.482    506.118
 41.370    496.000    510.938    -14.938    505.992    510.570    505.992    506.362    505.992
 41.470    511.000    511.181     -0.181    505.869    510.807    505.869    506.243    505.869
 41.570    494.000    511.517    -17.517    505.746    511.139    505.746    506.126    505.746
 41.670    472.898    511.995    -39.096    505.626    511.611    505.626    506.011    505.626
 41.770    483.028    512.718    -29.690    505.506    512.329    505.506    505.897    505.506
 41.870    523.000    513.937      9.063    505.388    513.544    505.388    505.785    505.388
 41.970    510.000    516.223     -6.223    505.272    515.824    505.272    505.675    505.272
 42.070    504.000    520.690    -16.690    505.157    520.288    505.157    505.566    505.157
 42.170    564.616    529.088     35.528    505.044    528.683    505.044    505.459    505.044
 42.270    543.000    543.371     -0.371    504.932    542.966    504.932    505.354    504.932
 42.370    533.000    564.494    -31.494    504.822    564.092    504.822    505.250    504.822
 42.470    559.000    590.645    -31.645    504.713    590.249    504.713    505.148    504.713
 42.570    578.000    615.750    -37.750    504.606    615.361    504.606    505.048    504.606
 42.670    559.000    630.061    -71.061    504.500    629.674    504.500    504.950    504.500
 42.770    644.000    626.179     17.821    504.395    625.786    504.395    504.854    504.395
 42.870    565.774    606.357    -40.582    504.293    605.947    504.293    504.759    504.293
 42.970    593.800    579.844     13.957    504.191    579.412    504.191    504.666    504.191
 43.070    567.003    555.157     11.847    504.091    554.702    504.091    504.575    504.091
 43.170    505.000    536.585    -31.585    503.993    536.110    503.993    504.486    503.993
 43.270    566.030    524.661     41.369    503.896    524.169    503.896    504.399    503.896
 43.370    529.000    517.876     11.124    503.800    517.369    503.800    504.313    503.800
 43.470    483.100    514.278    -31.178    503.706    513.759    503.706    504.230    503.706
 43.570    480.000    512.365    -32.365    503.614    511.833    503.614    504.148    503.614
 43.670    486.000    511.256    -25.256    503.523    510.712    503.523    504.069    503.523
 43.770    467.458    510.528    -43.070    503.433    509.972    503.433    503.991    503.433
 43.870    548.031    510.000     38.032    503.345    509.431    503.345    503.915    503.345
 43.970    548.000    509.593     38.407    503.258    509.011    503.258    503.842    503.258
 44.070    534.648    509.272     25.375    503.173    508.676    503.173    503.770    503.173
 44.170    568.000    509.016     58.984    503.090    508.405    503.090    503.701    503.090
 44.270    522.717    508.810     13.906    503.007    508.185    503.007    503.634    503.007
 44.370    485.308    508.646    -23.338    502.927    508.005    502.927    503.569    502.927
 44.470    507.000    508.516     -1.516    502.847    507.858    502.847    503.506    502.847
 44.570    479.000    508.415    -29.415    502.769    507.739    502.769    503.446    502.769
 44.670    486.480    508.338    -21.858    502.693    507.644    502.693    503.388    502.693
 44.770    512.557    508.285      4.273    502.618    507.570    502.618    503.332    502.618
 44.870    523.435    508.251     15.184    502.544    507.516    502.544    503.279    502.544
 44.970    517.000    508.236      8.764    502.472    507.479    502.472    503.229    502.472
 45.070    518.660    508.238     10.421    502.402    507.459    502.402    503.182    502.402
 45.170    498.000    508.258    -10.258    502.333    507.454    502.333    503.137    502.333
 45.270    474.152    508.295    -34.143    502.265    507.464    502.265    503.095    502.265
 45.370    500.008    508.349     -8.341    502.198    507.490    502.198    503.057    502.198
 45.470    502.500    508.420     -5.920    502.134    507.532    502.134    503.021    502.134
 45.570    513.000    508.509      4.491    502.070    507.590    502.070    502.989    502.070
 45.670    515.437    508.618      6.819    502.008    507.664    502.008    502.961    502.008
 45.770    516.000    508.747      7.253    501.947    507.757    501.947    502.937    501.947
 45.870    486.447    508.898    -22.451    501.888    507.870    501.888    502.916    501.888
 45.970    526.000    509.074     16.926    501.830    508.004    501.830    502.901    501.830
 46.070    519.000    509.278      9.722    501.774    508.162    501.774    502.889    501.774
 46.170    496.000    509.512    -13.512    501.719    508.348    501.719    502.883    501.719
 46.270    505.000    509.783     -4.783    501.666    508.565    501.666    502.882    501.666
 46.370    502.000    510.095     -8.095    501.613    508.820    501.613    502.888    501.613
 46.470    482.000    510.457    -28.457    501.563    509.119    501.563    502.900    501.563
 46.570    499.000    510.879    -11.879    501.513    509.473    501.513    502.919    501.513
 46.670    538.471    511.378     27.092    501.465    509.897    501.465    502.946    501.465
 46.770    451.000    511.983    -60.983    501.419    510.419    501.419    502.981    501.419
 46.870    488.370    512.753    -24.383    501.373    511.097    501.373    503.027    501.373
 46.970    471.837    513.819    -41.982    501.329    512.062    501.329    503.084    501.329
 47.070    494.422    515.460    -21.038    501.287    513.590    501.287    503.154    501.287
 47.170    538.031    518.200     19.832    501.246    516.202    501.246    503.238    501.246
 47.270    522.381    522.861     -0.480    501.206    520.720    501.206    503.338    501.206
 47.370    543.000    530.447     12.553    501.168    528.143    501.168    503.458    501.168
 47.470    530.356    541.726    -11.371    501.131    539.234    501.131    503.600    501.131
 47.570    553.000    556.538     -3.538    501.095    553.831    501.095    503.769    501.095
 47.670    605.000    573.081     31.919    501.061    570.128    501.061    503.969    501.061
 47.770    576.241    587.510    -11.269    501.027    584.277    501.027    504.206    501.027
 47.870    561.000    594.752    -33.752    500.996    591.201    500.996    504.489    500.996
 47.970    592.000    591.853      0.147    500.965    587.938    500.965    504.828    500.965
 48.070    630.000    580.837     49.163    500.936    576.493    500.936    505.238    500.936
 48.170    559.000    566.641     -7.641    500.909    561.778    500.909    505.740    500.909
 48.270    578.000    553.578     24.422    500.882    548.069    500.882    506.371    500.882
 48.370    545.000    544.036      0.964    500.857    537.690    500.857    507.189    500.857
 48.470    573.000    538.664     34.336    500.833    531.194    500.833    508.295    500.833
 48.570    556.000    537.084     18.916    500.811    528.034    500.811    509.854    500.811
 48.670    551.339    538.636     12.703    500.790    527.292    500.790    512.130    500.790
 48.770    532.000    542.900    -10.900    500.770    528.171    500.770    515.494    500.770
 48.870    554.000    549.871      4.129    500.751    530.196    500.751    520.421    500.751
 48.970    546.000    559.900    -13.900    500.734    533.210    500.734    527.418    500.734
 49.070    592.368    573.539     18.830    500.717    537.369    500.717    536.882    500.717
 49.170    629.071    591.498     37.573    500.703    543.305    500.703    548.888    500.703
 49.270    650.436    615.005     35.431    500.689    552.775    500.689    562.909    500.689
 49.370    655.000    646.996      8.004    500.677    570.216    500.677    577.441    500.677
 49.470    724.062    694.604     29.458    500.666    605.520    500.666    589.724    500.666
 49.570    765.224    772.856     -7.633    500.656    677.246    500.656    596.220    500.656
 49.670    930.000    907.112     22.888    500.647    813.123    500.647    594.559    500.647
 49.770   1120.000   1127.519     -7.519    500.640   1042.620    500.640    585.419    500.640
 49.870   1542.000   1449.873     92.127    500.634   1378.444    500.634    571.906    500.634
 49.970   1847.000   1849.055     -2.055    500.629   1792.161    500.629    557.356    500.629
 50.070   2185.022   2242.201    -57.179    500.625   2198.677    500.625    544.020    500.625
 50.170   2525.000   2501.895     23.105    500.622   2469.501    500.622    532.983    500.622
 50.270   2515.245   2517.557     -2.312    500.621   2493.761    500.621    524.507    500.621
 50.370   2290.000   2278.229     11.771    500.621   2260.667    500.621    518.365    500.621
 50.470   1824.000   1883.439    -59.439    500.622   1870.173    500.622    514.098    500.622
 50.570   1482.000   1465.358     16.642    500.624   1454.969    500.624    511.202    500.624
 50.670   1105.259   1118.552    -13.294    500.628   1110.084    500.628    509.239    500.628
 50.770    836.000    879.874    -43.874    500.632    872.724    500.632    507.880    500.632
 50.870    790.546    740.479     50.068    500.638    734.280    500.638    506.902    500.638
 50.970    664.000    669.821     -5.821    500.645    664.345    500.645    506.169    500.645
 51.070    607.675    636.152    -28.477    500.653    631.247    500.653    505.597    500.653
 51.170    653.130    617.000     36.130    500.662    612.558    500.662    505.138    500.662
 51.270    620.879    601.205     19.674    500.672    597.143    500.672    504.763    500.672
 51.370    564.555    585.844    -21.289    500.684    582.098    500.684    504.453    500.684
 51.470    555.000    571.600    -16.600    500.696    568.118    500.696    504.195    500.696
 51.570    558.000    559.675     -1.675    500.710    556.418    500.710    503.980    500.710
 51.670    507.691    550.692    -43.000    500.724    547.625    500.724    503.800    500.724
 51.770    560.000    544.590     15.410    500.740    541.686    500.740    503.650    500.740
 51.870    542.000    540.879      1.121    500.757    538.115    500.757    503.525    500.757
 51.970    559.000    538.951     20.049    500.775    536.308    500.775    503.421    500.775
 52.070    583.000    538.309     44.691    500.794    535.769    500.794    503.337    500.794
 52.170    535.000    538.671     -3.671    500.814    536.219    500.814    503.269    500.814
 52.270    528.788    539.990    -11.201    500.836    537.612    500.836    503.215    500.836
 52.370    564.000    542.509     21.491    500.858    540.195    500.858    503.174    500.858
 52.470    519.000    546.933    -27.933    500.881    544.670    500.881    503.145    500.881
 52.570    592.000    554.772     37.228    500.906    552.552    500.906    503.126    500.906
 52.670    575.000    568.853      6.147    500.931    566.667    500.931    503.117    500.931
 52.770    560.000    593.727    -33.727    500.957    591.567    500.957    503.116    500.957
 52.870    637.546    635.504      2.042    500.985    633.363    500.985    503.123    500.985
 52.970    734.000    700.457     33.543    501.013    698.327    501.013    503.138    501.013
 53.070    859.000    792.117     66.883    501.043    789.993    501.043    503.160    501.043
 53.170    902.037    907.394     -5.356    501.073    905.272    501.073    503.189    501.073
 53.270    981.105   1032.989    -51.884    501.104   1030.867    501.104    503.225    501.104
 53.370   1145.358   1143.831      1.527    501.137   1141.708    501.137    503.267    501.137
 53.470   1156.000   1207.624    -51.624    501.170   1205.498    501.170    503.315    501.170
 53.570   1166.000   1200.872    -34.872    501.204   1198.738    501.204    503.369    501.204
 53.670   1048.000   1126.539    -78.539    501.240   1124.387    501.240    503.429    501.240
 53.770    951.000   1011.338    -60.338    501.276   1009.156    501.276    503.496    501.276
 53.870    890.000    886.844      3.156    501.313    884.622    501.313    503.568    501.313
 53.970    787.000    775.956     11.044    501.351    773.686    501.351    503.647    501.351
 54.070    651.000    689.877    -38.877    501.390    687.553    501.390    503.732    501.390
 54.170    670.000    630.185     39.815    501.430    627.803    501.430    503.823    501.430
 54.270    629.000    592.588     36.412    501.471    590.145    501.471    503.922    501.471
 54.370    608.000    570.697     37.303    501.512    568.187    501.512    504.027    501.512
 54.470    621.000    558.644     62.356    501.555    556.063    501.555    504.139    501.555
 54.570    592.000    552.215     39.785    501.598    549.556    501.598    504.260    501.598
 54.670    599.000    548.857     50.143    501.643    546.114    501.643    504.388    501.643
 54.770    596.000    547.224     48.776    501.688    544.388    501.688    504.525    501.688
 54.870    535.069    546.674    -11.606    501.734    543.738    501.734    504.672    501.734
 54.970    532.000    546.932    -14.932    501.781    543.885    501.781    504.828    501.781
 55.070    558.000    547.892     10.108    501.829    544.726    501.829    504.995    501.829
 55.170    572.000    549.536     22.464    501.877    546.240    501.877    505.174    501.877
 55.270    552.048    551.900      0.147    501.926    548.462    501.926    505.366    501.926
 55.370    540.288    555.074    -14.786    501.977    551.481    501.977    505.571    501.977
 55.470    542.000    559.224    -17.224    502.028    555.460    502.028    505.792    502.028
 55.570    568.888    564.669      4.219    502.079    560.720    502.079    506.029    502.079
 55.670    573.000    572.077      0.923    502.132    567.924    502.132    506.285    502.132
 55.770    569.000    582.896    -13.896    502.185    578.519    502.185    506.562    502.185
 55.870    615.000    600.200     14.800    502.239    595.576    502.239    506.862    502.239
 55.970    641.000    630.017     10.983    502.294    625.119    502.294    507.188    502.294
 56.070    656.000    682.883    -26.883    502.350    677.679    502.350    507.543    502.350
 56.170    746.000    774.644    -28.644    502.406    769.098    502.406    507.931    502.406
 56.270    838.000    924.810    -86.810    502.463    918.882    502.463    508.356    502.463
 56.370   1103.110   1150.794    -47.684    502.521   1144.440    502.521    508.825    502.521
 56.470   1516.236   1457.986     58.249    502.580   1451.163    502.580    509.343    502.580
 56.570   1792.917   1828.406    -35.489    502.639   1821.072    502.639    509.918    502.639
 56.670   2121.000   2212.496    -91.496    502.699   2204.608    502.699    510.559    502.699
 56.770   2516.000   2529.465    -13.465    502.759   2520.977    502.759    511.278    502.759
 56.870   2698.621   2687.014     11.607    502.821   2677.860    502.821    512.089    502.821
 56.970   2592.823   2629.793    -36.970    502.883   2619.868    502.883    513.008    502.883
 57.070   2376.000   2380.438     -4.438    502.945   2369.580    502.945    514.057    502.945
 57.170   2055.000   2020.604     34.396    503.009   2008.608    503.009    515.266    503.009
 57.270   1599.653   1639.806    -40.152    503.073   1626.436    503.073    516.676    503.073
 57.370   1306.022   1302.999      3.023    503.137   1287.974    503.137    518.347    503.137
 57.470   1091.000   1042.561     48.439    503.202   1025.520    503.202    520.376    503.202
 57.570    875.000    863.157     11.843    503.268    843.593    503.268    522.919    503.268
 57.670    754.000    752.323      1.677    503.334    729.477    503.334    526.232    503.334
 57.770    693.000    691.712      1.288    503.401    664.413    503.401    530.728    503.401
 57.870    705.557    665.181     40.376    503.469    631.635    503.469    537.027    503.469
 57.970    693.000    662.509     30.491    503.537    620.034    503.537    546.012    503.537
 58.070    723.000    679.642     43.358    503.606    624.421    503.606    558.817    503.606
 58.170    733.538    717.062     16.477    503.675    643.979    503.675    576.737    503.675
 58.270    814.721    777.381     37.341    503.745    680.076    503.745    601.018    503.745
 58.370    841.000    862.773    -21.773    503.815    734.033    503.815    632.511    503.815
 58.470    941.000    972.652    -31.652    503.886    805.240    503.886    671.245    503.886
 58.570   1094.000   1101.659     -7.659    503.958    889.655    503.958    715.904    503.958
 58.670   1251.000   1238.750     12.250    504.030    979.496    504.030    763.228    504.030
 58.770   1358.000   1368.280    -10.280    504.102   1064.958    504.102    807.380    504.102
 58.870   1430.033   1473.115    -43.082    504.175   1137.254    504.175    840.008    504.175
 58.970   1578.000   1537.572     40.428    504.248   1189.212    504.248    852.601    504.248
 59.070   1584.000   1550.557     33.443    504.322   1213.628    504.322    841.266    504.322
 59.170   1563.002   1510.838     52.164    504.397   1205.678    504.397    809.590    504.397
 59.270   1409.119   1430.483    -21.364    504.471   1169.022    504.471    765.970    504.471
 59.370   1378.000   1330.867     47.133    504.547   1116.618    504.547    718.822    504.547
 59.470   1193.000   1234.306    -41.306    504.622   1064.820    504.622    674.109    504.622
 59.570   1249.000   1159.535     89.465    504.698   1028.991    504.698    635.208    504.698
 59.670   1076.427   1121.908    -45.481    504.775   1023.091    504.775    603.513    504.775
 59.770   1072.470   1132.518    -60.048    504.852   1058.184    504.852    579.054    504.852
 59.870   1287.000   1193.827     93.173    504.929   1137.560    504.929    561.008    504.929
 59.970   1373.000   1295.362     77.638    505.007   1251.985    505.007    548.143    505.007
 60.070   1485.000   1412.500     72.500    505.085   1378.146    505.085    539.160    505.085
 60.170   1561.000   1509.248     51.752    505.163   1481.205    505.163    532.916    505.163
 60.270   1576.000   1547.693     28.307    505.242   1524.151    505.242    528.517    505.242
 60.370   1542.000   1505.862     36.138    505.321   1485.638    505.321    525.331    505.321
 60.470   1401.236   1391.094     10.142    505.401   1373.405    505.401    522.941    505.401
 60.570   1277.000   1232.914     44.086    505.481   1217.217    505.481    521.087    505.481
 60.670   1071.000   1065.253      5.747    505.561   1051.152    505.561    519.616    505.561
 60.770    926.000    914.405     11.595    505.641    901.592    505.641    518.435    505.641
 60.870    736.000    795.017    -59.017    505.722    783.237    505.722    517.496    505.722
 60.970    744.000    710.998     33.002    505.803    700.030    505.803    516.768    505.803
 61.070    654.000    659.181     -5.181    505.884    648.824    505.884    516.236    505.884
 61.170    650.000    633.875     16.125    505.966    623.941    505.966    515.889    505.966
 61.270    587.000    630.640    -43.640    506.048    620.952    506.048    515.716    506.048
 61.370    692.953    648.340     44.613    506.130    638.738    506.130    515.700    506.130
 61.470    710.000    689.299     20.701    506.212    679.650    506.212    515.812    506.212
 61.570    798.000    757.703     40.297    506.295    747.922    506.295    516.003    506.295
 61.670    883.578    856.622     26.956    506.378    846.695    506.378    516.202    506.378
 61.770    937.225    984.330    -47.105    506.461    974.343    506.461    516.313    506.461
 61.870   1118.000   1131.037    -13.037    506.544   1121.178    506.544    516.240    506.544
 61.970   1263.748   1277.245    -13.497    506.627   1267.761    506.627    515.931    506.627
 62.070   1330.270   1395.005    -64.735    506.711   1386.130    506.711    515.407    506.711
 62.170   1443.000   1454.582    -11.582    506.794   1446.477    506.794    514.746    506.794
 62.270   1390.000   1437.932    -47.932    506.878   1430.662    506.878    514.037    506.878
 62.370   1342.000   1350.004     -8.004    506.962   1343.549    506.962    513.352    506.962
 62.470   1177.722   1215.187    -37.465    507.047   1209.472    507.047    512.735    507.047
 62.570   1061.000   1063.578     -2.578    507.131   1058.499    507.131    512.209    507.131
 62.670    923.000    920.105      2.895    507.215    915.553    507.215    511.779    507.215
 62.770    815.310    800.230     15.080    507.300    796.103    507.300    511.442    507.300
 62.870    703.689    709.890     -6.201    507.385    706.103    507.385    511.185    507.385
 62.970    646.000    647.728     -1.728    507.469    644.212    507.469    510.993    507.469
 63.070    655.579    608.311     47.268    507.554    605.014    507.554    510.854    507.554
 63.170    596.000    585.114     10.886    507.639    581.999    507.639    510.753    507.639
 63.270    589.000    572.500     16.500    507.724    569.539    507.724    510.682    507.724
 63.370    552.000    566.571    -14.571    507.809    563.743    507.809    510.632    507.809
 63.470    548.392    565.250    -16.859    507.894    562.539    507.894    510.599    507.894
 63.570    570.000    568.038      1.962    507.979    565.430    507.979    510.578    507.979
 63.670    537.845    575.719    -37.874    508.064    573.202    508.064    510.567    508.064
 63.770    609.000    590.076     18.924    508.149    587.640    508.149    510.565    508.149
 63.870    626.098    613.518     12.580    508.235    611.151    508.235    510.570    508.235
 63.970    694.629    648.464     46.165    508.320    646.157    508.320    510.582    508.320
 64.070    683.677    696.435    -12.758    508.405    694.178    508.405    510.600    508.405
 64.170    729.507    756.961    -27.455    508.490    754.746    508.490    510.623    508.490
 64.270    844.662    826.562     18.100    508.575    824.384    508.575    510.650    508.575
 64.370    944.000    898.094     45.906    508.660    895.951    508.660    510.682    508.660
 64.470   1002.000    960.997     41.003    508.745    958.894    508.745    510.718    508.745
 64.570    994.000   1003.524     -9.524    508.830   1001.469    508.830    510.758    508.830
 64.670    986.000   1017.322    -31.322    508.914   1015.322    508.914    510.801    508.914
 64.770   1028.100   1001.167     26.932    508.999    999.230    508.999    510.847    508.999
 64.870    994.000    960.496     33.504    509.084    958.622    509.084    510.896    509.084
 64.970    909.000    904.477      4.523    509.168    902.663    509.168    510.948    509.168
 65.070    876.943    843.023     33.920    509.253    841.263    509.253    511.002    509.253
 65.170    788.000    784.164      3.836    509.337    782.449    509.337    511.059    509.337
 65.270    714.559    732.577    -18.018    509.421    730.899    509.421    511.118    509.421
 65.370    674.000    689.781    -15.781    509.505    688.131    509.505    511.179    509.505
 65.470    638.000    655.402    -17.402    509.589    653.774    509.589    511.242    509.589
 65.570    581.762    628.400    -46.638    509.673    626.788    509.673    511.307    509.673
 65.670    643.000    607.628     35.372    509.756    606.027    509.756    511.374    509.756
 65.770    570.000    591.982    -21.982    509.839    590.391    509.839    511.443    509.839
 65.870    625.000    580.487     44.513    509.923    578.905    509.923    511.513    509.923
 65.970    591.000    572.351     18.649    510.006    570.776    510.006    511.585    510.006
 66.070    605.208    566.948     38.260    510.088    565.379    510.088    511.659    510.088
 66.170    587.695    563.782     23.913    510.171    562.219    510.171    511.734    510.171
 66.270    552.917    562.459     -9.542    510.253    560.901    510.253    511.811    510.253
 66.370    574.000    562.688     11.312    510.335    561.134    510.335    511.889    510.335
 66.470    537.734    564.314    -26.580    510.417    562.761    510.417    511.969    510.417
 66.570    545.000    567.382    -22.382    510.498    565.830    510.498    512.051    510.498
 66.670    549.927    572.257    -22.330    510.579    570.705    510.579    512.132    510.579
 66.770    560.000    579.841    -19.841    510.660    578.286    510.660    512.216    510.660
 66.870    623.041    591.902     31.138    510.741    590.341    510.741    512.302    510.741
 66.970    688.000    611.557     76.443    510.821    609.988    510.821    512.390    510.821
 67.070    637.000    643.776     -6.776    510.901    642.194    510.901    512.479    510.901
 67.170    689.000    695.687     -6.687    510.981    694.090    510.981    512.570    510.981
 67.270    711.000    776.304    -65.304    511.061    774.690    511.061    512.663    511.061
 67.370    890.969    895.241     -4.272    511.140    893.607    511.140    512.757    511.140
 67.470   1077.000   1060.187     16.813    511.218   1058.535    511.218    512.853    511.218
 67.570   1279.000   1273.374      5.626    511.297   1271.708    511.297    512.951    511.297
 67.670   1549.398   1527.830     21.568    511.375   1526.159    511.375    513.051    511.375
 67.770   1769.000   1804.532    -35.532    511.452   1802.869    511.452    513.154    511.452
 67.870   1963.000   2071.529   -108.529    511.530   2069.888    511.530    513.258    511.530
 67.970   2297.000   2286.481     10.519    511.606   2284.873    511.606    513.365    511.606
 68.070   2393.000   2405.586    -12.586    511.683   2404.017    511.683    513.475    511.683
 68.170   2363.938   2400.163    -36.225    511.759   2398.621    511.759    513.587    511.759
 68.270   2266.000   2271.695     -5.695    511.835   2270.151    511.835    513.702    511.835
 68.370   1982.328   2050.904    -68.576    511.910   2049.322    511.910    513.821    511.910
 68.470   1842.615   1781.957     60.657    511.984   1780.306    511.984    513.943    511.984
 68.570   1496.601   1506.495     -9.894    512.059   1504.749    512.059    514.069    512.059
 68.670   1275.000   1255.388     19.612    512.133   1253.534    512.133    514.199    512.133
 68.770   1034.741   1046.559    -11.818    512.206   1044.593    512.206    514.333    512.206
 68.870    896.000    886.067      9.933    512.279    883.988    512.279    514.473    512.279
 68.970    769.000    771.068     -2.068    512.351    768.880    512.351    514.618    512.351
 69.070    710.000    693.589     16.411    512.423    691.295    512.423    514.768    512.423
 69.170    672.000    643.993     28.007    512.495    641.594    512.495    514.926    512.495
 69.270    668.000    613.393     54.607    512.565    610.889    512.565    515.091    512.565
 69.370    549.670    594.835    -45.165    512.636    592.221    512.636    515.264    512.636
 69.470    575.000    583.502     -8.502    512.706    580.771    512.706    515.447    512.706
 69.570    594.763    576.375     18.388    512.775    573.518    512.775    515.639    512.775
 69.670    590.169    571.711     18.458    512.844    568.716    512.844    515.843    512.844
 69.770    601.541    568.568     32.973    512.912    565.423    512.912    516.060    512.912
 69.870    574.000    566.462      7.538    512.979    563.153    512.979    516.292    512.979
 69.970    634.000    565.155     68.845    513.046    561.663    513.046    516.540    513.046
 70.070    545.846    564.536    -18.690    513.113    560.843    513.113    516.807    513.113
 70.170    577.000    564.571     12.429    513.179    560.654    513.179    517.095    513.179
 70.270    578.000    565.292     12.708    513.244    561.127    513.244    517.409    513.244
 70.370    558.843    566.814     -7.971    513.309    562.370    513.309    517.750    513.309
 70.470    558.000    569.391    -11.391    513.373    564.636    513.373    518.125    513.373
 70.570    580.952    573.521      7.432    513.436    568.414    513.436    518.538    513.436
 70.670    586.055    580.106      5.949    513.499    574.600    513.499    518.997    513.499
 70.770    618.144    590.683     27.461    513.561    584.722    513.561    519.510    513.561
 70.870    585.709    607.684    -21.974    513.622    601.197    513.622    520.091    513.622
 70.970    599.000    634.648    -35.648    513.683    627.545    513.683    520.759    513.683
 71.070    654.000    676.247    -22.247    513.743    668.407    513.743    521.541    513.743
 71.170    788.436    737.935     50.501    513.803    729.192    513.803    522.486    513.803
 71.270    736.000    825.059    -89.059    513.862    815.171    513.862    523.665    513.862
 71.370    940.449    941.414     -0.966    513.920    930.024    513.920    525.196    513.920
 71.470   1123.982   1087.432     36.550    513.977   1074.004    513.977    527.260    513.977
 71.570   1225.251   1258.399    -33.148    514.034   1242.138    514.034    530.120    514.034
 71.670   1463.000   1443.200     19.800    514.090   1422.948    514.090    534.143    514.090
 71.770   1647.000   1624.015     22.985    514.145   1598.143    514.145    539.806    514.145
 71.870   1872.000   1777.543     94.457    514.199   1743.863    514.199    547.673    514.199
 71.970   1953.673   1879.017     74.656    514.253   1834.740    514.253    558.345    514.253
 72.070   2001.000   1909.974     91.026    514.306   1851.769    514.306    572.360    514.306
 72.170   1845.132   1866.772    -21.640    514.358   1790.957    514.358    590.062    514.358
 72.270   1787.000   1762.661     24.339    514.409   1665.559    514.409    611.437    514.409
 72.370   1544.225   1620.990    -76.764    514.460   1499.448    514.460    635.957    514.460
 72.470   1444.036   1465.911    -21.875    514.510   1317.966    514.510    662.430    514.510
 72.570   1251.000   1316.441    -65.441    514.559   1142.104    514.559    688.882    514.559
 72.670   1146.000   1184.209    -38.209    514.607    986.284    514.607    712.525    514.607
 72.770   1051.727   1073.486    -21.758    514.655    858.140    514.655    729.994    514.655
 72.870    922.000    982.902    -60.902    514.701    759.448    514.701    738.148    514.701
 72.970    921.000    908.332     12.668    514.747    687.762    514.747    735.310    514.747
 73.070    857.000    845.616     11.384    514.792    638.290    514.792    722.111    514.792
 73.170    758.000    791.873    -33.873    514.836    605.559    514.836    701.143    514.836
 73.270    708.000    745.460    -37.460    514.880    584.552    514.880    675.781    514.880
 73.370    675.000    705.511    -30.511    514.922    571.295    514.922    649.134    514.922
 73.470    623.000    671.583    -48.583    514.964    562.969    514.964    623.575    514.964
 73.570    578.000    643.427    -65.427    515.004    557.767    515.004    600.664    515.004
 73.670    650.761    620.820     29.941    515.044    554.629    515.044    581.237    515.044
 73.770    623.955    603.436     20.518    515.083    552.985    515.083    565.540    515.083
 73.870    599.000    590.791      8.209    515.121    552.539    515.121    553.382    515.121
 73.970    575.000    582.245     -7.245    515.158    553.113    515.158    544.304    515.158
 74.070    590.000    577.050     12.950    515.194    554.541    515.194    537.722    515.194
 74.170    560.938    574.391    -13.453    515.230    556.601    515.230    533.045    515.230
 74.270    529.969    573.434    -43.465    515.264    558.979    515.264    529.750    515.264
 74.370    593.071    573.349     19.723    515.297    561.264    515.297    527.418    515.297
 74.470    608.000    573.344     34.656    515.330    562.978    515.330    525.736    515.330
 74.570    664.000    572.745     91.255    515.362    563.665    515.362    524.486    515.362
 74.670    632.000    571.124     60.876    515.392    563.039    515.392    523.521    515.392
 74.770    695.000    568.400    126.600    515.422    561.113    515.422    522.750    515.422
 74.870    633.000    564.825     68.175    515.451    558.199    515.451    522.115    515.451
 74.970    645.000    560.856     84.144    515.478    554.789    515.478    521.578    515.478
 75.070    598.000    557.007     40.993    515.505    551.422    515.505    521.116    515.505
 75.170    580.000    553.784     26.216    515.531    548.619    515.531    520.715    515.531
 75.270    630.000    551.668     78.332    515.556    546.874    515.556    520.363    515.556
 75.370    538.000    551.138    -13.138    515.579    546.672    515.579    520.052    515.579
 75.470    538.000    552.686    -14.686    515.602    548.513    515.602    519.777    515.602
 75.570    540.517    556.832    -16.316    515.624    552.921    515.624    519.531    515.624
 75.670    565.000    564.090      0.910    515.645    560.413    515.645    519.312    515.645
 75.770    578.000    574.885      3.115    515.664    571.418    515.664    519.114    515.664
 75.870    571.000    589.426    -18.426    515.683    586.148    515.683    518.937    515.683
 75.970    559.722    607.536    -47.814    515.701    604.428    515.701    518.776    515.701
 76.070    584.000    628.502    -44.502    515.717    625.547    515.717    518.631    515.717
 76.170    614.000    650.968    -36.968    515.733    648.152    515.733    518.498    515.733
 76.270    658.852    672.915    -14.063    515.747    670.228    515.747    518.377    515.747
 76.370    705.519    691.758     13.761    515.761    689.190    515.761    518.266    515.761
 76.470    692.000    704.675    -12.675    515.773    702.220    515.773    518.164    515.773
 76.570    688.844    709.306    -20.463    515.785    706.959    515.785    518.070    515.785
 76.670    688.000    704.668    -16.668    515.795    702.423    515.795    517.983    515.795
 76.770    679.000    691.626    -12.626    515.804    689.479    515.804    517.903    515.804
 76.870    673.041    672.471      0.570    515.812    670.417    515.812    517.827    515.812
 76.970    655.000    650.002      4.998    515.819    648.033    515.819    517.757    515.819
 77.070    631.000    626.808      4.192    515.825    624.919    515.825    517.691    515.825
 77.170    591.000    604.919    -13.919    515.830    603.103    515.830    517.629    515.830
 77.270    579.812    585.686     -5.874    515.833    583.938    515.833    517.571    515.833
 77.370    601.000    569.799     31.201    515.836    568.112    515.836    517.516    515.836
 77.470    544.318    557.379    -13.061    515.837    555.749    515.837    517.463    515.837
 77.570    540.000    548.140     -8.140    515.837    546.562    515.837    517.413    515.837
 77.670    517.000    541.561    -24.561    515.837    540.031    515.837    517.365    515.837
 77.770    529.000    537.043     -8.043    515.835    535.558    515.835    517.318    515.835
 77.870    533.727    534.021     -0.293    515.831    532.577    515.831    517.274    515.831
 77.970    518.963    532.027    -13.064    515.827    530.622    515.827    517.231    515.827
 78.070    524.000    530.709     -6.709    515.822    529.341    515.822    517.189    515.822
 78.170    474.000    529.823    -55.823    515.815    528.488    515.815    517.149    515.815
 78.270    527.000    529.194     -2.194    515.807    527.891    515.807    517.109    515.807
 78.370    501.720    528.742    -27.022    515.798    527.469    515.798    517.070    515.798
 78.470    502.000    528.448    -26.448    515.788    527.203    515.788    517.033    515.788
 78.570    542.000    528.267     13.733    515.777    527.048    515.777    516.996    515.777
 78.670    544.325    528.191     16.134    515.765    526.995    515.765    516.960    515.765
 78.770    550.907    528.229     22.679    515.751    527.054    515.751    516.924    515.751
 78.870    476.000    528.395    -52.395    515.736    527.240    515.736    516.890    515.736
 78.970    527.339    528.713     -1.373    515.720    527.574    515.720    516.857    515.720
 79.070    491.638    529.211    -37.573    515.703    528.086    515.703    516.826    515.703
 79.170    535.000    529.917      5.083    515.684    528.802    515.684    516.797    515.684
 79.270    512.000    530.856    -18.856    515.665    529.747    515.665    516.771    515.665
 79.370    532.000    532.053     -0.053    515.644    530.945    515.644    516.748    515.644
 79.470    550.000    533.535     16.465    515.622    532.422    515.622    516.731    515.622
 79.570    567.000    535.337     31.663    515.598    534.212    515.598    516.719    515.598
 79.670    528.000    537.517     -9.517    515.574    536.372    515.574    516.713    515.574
 79.770    552.000    540.169     11.831    515.548    538.996    515.548    516.716    515.548
 79.870    492.000    543.449    -51.449    515.521    542.239    515.521    516.726    515.521
 79.970    558.206    547.593     10.613    515.493    546.338    515.493    516.743    515.493
 80.070    530.000    552.945    -22.945    515.463    551.637    515.463    516.767    515.463
 80.170    531.000    559.945    -28.945    515.433    558.579    515.433    516.795    515.433
 80.270    578.181    569.084      9.096    515.401    567.659    515.401    516.825    515.401
 80.370    593.000    580.805     12.195    515.367    579.324    515.367    516.851    515.367
 80.470    596.000    595.387      0.613    515.333    593.857    515.333    516.868    515.333
 80.570    606.000    612.831     -6.831    515.297    611.268    515.297    516.870    515.297
 80.670    623.941    632.779     -8.838    515.260    631.205    515.260    516.849    515.260
 80.770    689.440    654.466     34.974    515.222    652.907    515.222    516.802    515.222
 80.870    689.000    676.749     12.251    515.182    675.229    515.182    516.729    515.182
 80.970    674.000    698.222    -24.222    515.142    696.763    515.142    516.634    515.142
 81.070    722.000    717.430      4.570    515.100    716.048    515.100    516.523    515.100
 81.170    743.000    733.065      9.935    515.056    731.767    515.056    516.402    515.056
 81.270    755.441    744.085     11.355    515.012    742.874    515.012    516.277    515.012
 81.370    743.000    749.803     -6.803    514.966    748.675    514.966    516.154    514.966
 81.470    726.000    749.962    -23.962    514.919    748.911    514.919    516.034    514.919
 81.570    764.575    744.748     19.827    514.870    743.765    514.870    515.920    514.870
 81.670    732.000    734.728     -2.728    514.820    733.803    514.820    515.814    514.820
 81.770    765.155    720.797     44.358    514.769    719.920    514.769    515.715    514.769
 81.870    702.243    704.142     -1.898    514.717    703.304    514.717    515.623    514.717
 81.970    698.000    686.073     11.927    514.664    685.266    514.664    515.537    514.664
 82.070    629.758    667.764    -38.006    514.609    666.980    514.609    515.456    514.609
 82.170    644.000    650.044     -6.044    514.552    649.276    514.552    515.379    514.552
 82.270    589.886    633.356    -43.470    514.495    632.600    514.495    515.305    514.495
 82.370    629.000    617.873     11.127    514.436    617.126    514.436    515.233    514.436
 82.470    596.283    603.671     -7.388    514.376    602.929    514.376    515.163    514.376
 82.570    638.000    590.855     47.145    514.315    590.116    514.315    515.093    514.315
 82.670    599.000    579.588     19.412    514.252    578.849    514.252    515.023    514.252
 82.770    580.069    570.046     10.023    514.188    569.306    514.188    514.953    514.188
 82.870    551.000    562.389    -11.389    514.123    561.647    514.123    514.883    514.123
 82.970    530.880    556.737    -25.856    514.056    555.992    514.056    514.812    514.056
 83.070    581.000    553.156     27.844    513.988    552.408    513.988    514.741    513.988
 83.170    555.000    551.644      3.356    513.919    550.891    513.919    514.668    513.919
 83.270    520.000    552.103    -32.103    513.848    551.345    513.848    514.595    513.848
 83.370    536.000    554.324    -18.324    513.776    553.561    513.776    514.521    513.776
 83.470    536.000    557.975    -21.975    513.703    557.206    513.703    514.446    513.703
 83.570    539.000    562.598    -23.598    513.629    561.824    513.629    514.370    513.629
 83.670    579.000    567.625     11.375    513.553    566.847    513.553    514.293    513.553
 83.770    538.000    572.402    -34.402    513.476    571.620    513.476    514.215    513.476
 83.870    560.000    576.245    -16.245    513.397    575.460    513.397    514.136    513.397
 83.970    600.000    578.524     21.476    513.317    577.738    513.317    514.057    513.317
 84.070    558.000    578.799    -20.799    513.236    578.014    513.236    513.976    513.236
 84.170    554.000    576.938    -22.938    513.154    576.156    513.154    513.894    513.154
 84.270    531.760    573.150    -41.390    513.070    572.371    513.070    513.811    513.070
 84.370    603.331    567.901     35.430    512.985    567.126    512.985    513.727    512.985
 84.470    601.315    561.769     39.546    512.899    560.998    512.899    513.641    512.899
 84.570    513.481    555.320    -41.839    512.811    554.552    512.811    513.555    512.811
 84.670    576.000    549.038     26.962    512.722    548.273    512.722    513.468    512.722
 84.770    516.000    543.286    -27.286    512.632    542.523    512.632    513.380    512.632
 84.870    529.074    538.299     -9.225    512.540    537.537    512.540    513.291    512.540
 84.970    535.000    534.186      0.814    512.447    533.424    512.447    513.200    512.447
 85.070    507.000    530.954    -23.954    512.353    530.190    512.353    513.109    512.353
 85.170    525.000    528.534     -3.534    512.257    527.769    512.257    513.017    512.257
 85.270    516.000    526.820    -10.820    512.160    526.053    512.160    512.923    512.160
 85.370    548.000    525.692     22.308    512.062    524.921    512.062    512.829    512.062
 85.470    520.000    525.040     -5.040    511.962    524.265    511.962    512.733    511.962
 85.570    537.000    524.784     12.216    511.862    524.004    511.862    512.637    511.862
 85.670    542.000    524.878     17.122    511.759    524.093    511.759    512.539    511.759
 85.770    514.000    525.318    -11.318    511.656    524.527    511.656    512.441    511.656
 85.870    535.000    526.145      8.855    511.551    525.347    511.551    512.341    511.551
 85.970    517.955    527.440     -9.485    511.445    526.635    511.445    512.240    511.445
 86.070    542.000    529.329     12.671    511.338    528.515    511.338    512.139    511.338
 86.170    503.000    531.967    -28.967    511.229    531.144    511.229    512.036    511.229
 86.270    533.000    535.535     -2.535    511.119    534.701    511.119    511.933    511.119
 86.370    534.000    540.212     -6.212    511.008    539.365    511.008    511.829    511.008
 86.470    590.172    546.152     44.020    510.895    545.291    510.895    511.723    510.895
 86.570    536.000    553.449    -17.449    510.781    552.570    510.781    511.617    510.781
 86.670    599.000    562.093     36.907    510.666    561.196    510.666    511.510    510.666
 86.770    560.591    571.941    -11.350    510.550    571.024    510.550    511.402    510.550
 86.870    590.000    582.680      7.320    510.432    581.743    510.432    511.293    510.432
 86.970    585.070    593.819     -8.749    510.313    592.861    510.313    511.183    510.313
 87.070    609.731    604.687      5.044    510.193    603.708    510.193    511.073    510.193
 87.170    546.000    614.470    -68.470    510.071    613.472    510.071    510.962    510.071
 87.270    630.000    622.280      7.720    509.948    621.266    509.948    510.849    509.948
 87.370    664.154    627.295     36.859    509.824    626.268    509.824    510.737    509.824
 87.470    606.998    628.953    -21.955    509.699    627.917    509.699    510.623    509.699
 87.570    642.000    627.112     14.888    509.572    626.070    509.572    510.509    509.572
 87.670    669.000    622.096     46.904    509.444    621.051    509.444    510.394    509.444
 87.770    656.737    614.587     42.150    509.315    613.540    509.315    510.279    509.315
 87.870    616.000    605.490     10.510    509.185    604.442    509.185    510.163    509.185
 87.970    553.704    595.748    -42.045    509.053    594.699    509.053    510.046    509.053
 88.070    577.422    586.242     -8.819    508.920    585.189    508.920    509.929    508.920
 88.170    619.000    577.740     41.260    508.786    576.682    508.786    509.812    508.786
 88.270    634.000    570.853     63.147    508.650    569.788    508.650    509.694    508.650
 88.370    582.000    566.009     15.991    508.514    564.935    508.514    509.576    508.514
 88.470    628.000    563.440     64.560    508.376    562.356    508.376    509.457    508.376
 88.570    592.000    563.187     28.813    508.237    562.090    508.237    509.339    508.237
 88.670    550.000    565.108    -15.108    508.096    563.997    508.096    509.220    508.096
 88.770    571.000    568.893      2.107    507.955    567.767    507.955    509.102    507.955
 88.870    572.000    574.085     -2.085    507.812    572.943    507.812    508.983    507.812
 88.970    589.000    580.100      8.900    507.668    578.940    507.668    508.865    507.668
 89.070    604.531    586.261     18.270    507.523    585.080    507.523    508.747    507.523
 89.170    551.401    591.831    -40.430    507.376    590.629    507.376    508.630    507.376
 89.270    625.000    596.084     28.916    507.229    594.857    507.229    508.513    507.229
 89.370    648.000    598.396     49.604    507.080    597.141    507.080    508.397    507.080
 89.470    572.000    598.365    -26.365    506.930    597.079    506.930    508.281    506.930
 89.570    610.000    595.909     14.091    506.779    594.585    506.779    508.166    506.779
 89.670    566.438    591.266    -24.828    506.626    589.901    506.626    508.054    506.626
 89.770    593.000    584.918      8.082    506.473    583.506    506.473    507.943    506.473
 89.870    543.000    577.459    -34.459    506.318    575.996    506.318    507.834    506.318
 89.970    568.255    569.487     -1.232    506.162    567.969    506.162    507.727    506.162
 90.070    549.015    561.534    -12.520    506.005    559.956    506.005    507.623    506.005
 90.170    521.000    554.028    -33.028    505.847    552.386    505.847    507.521    505.847
 90.270    558.942    547.277     11.666    505.688    545.567    505.688    507.424    505.688
 90.370    544.000    541.466      2.534    505.528    539.683    505.528    507.331    505.528
 90.470    522.000    536.674    -14.674    505.366    534.813    505.366    507.242    505.366
 90.570    520.931    532.887    -11.956    505.203    530.941    505.203    507.160    505.203
 90.670    524.000    530.030     -6.030    505.040    527.991    505.040    507.086    505.040
 90.770    531.000    527.991      3.009    504.875    525.849    504.875    507.022    504.875
 90.870    486.772    526.648    -39.877    504.709    524.391    504.709    506.970    504.709
 90.970    529.000    525.890      3.110    504.542    523.500    504.542    506.934    504.542
 91.070    485.000    525.630    -40.630    504.374    523.084    504.374    506.920    504.374
 91.170    505.000    525.810    -20.810    504.204    523.080    504.204    506.934    504.204
 91.270    512.000    526.385    -14.385    504.034    523.432    504.034    506.986    504.034
 91.370    514.000    527.460    -13.460    503.863    524.232    503.863    507.088    503.863
 91.470    554.002    529.105     24.897    503.690    525.536    503.690    507.255    503.690
 91.570    519.000    531.436    -12.436    503.517    527.440    503.517    507.508    503.517
 91.670    545.852    534.630     11.223    503.342    530.096    503.342    507.868    503.342
 91.770    499.515    538.907    -39.392    503.167    533.700    503.167    508.364    503.167
 91.870    536.000    544.512     -8.512    502.990    538.465    502.990    509.024    502.990
 91.970    527.000    551.703    -24.703    502.813    544.619    502.813    509.880    502.813
 92.070    548.093    560.730    -12.638    502.634    552.379    502.634    510.964    502.634
 92.170    525.121    571.804    -46.683    502.455    561.928    502.455    512.304    502.455
 92.270    610.301    585.063     25.238    502.274    573.383    502.274    513.921    502.274
 92.370    606.000    600.548      5.452    502.093    586.771    502.093    515.830    502.093
 92.470    608.569    618.165     -9.596    501.910    602.001    501.910    518.027    501.910
 92.570    634.011    637.669     -3.658    501.727    618.846    501.727    520.496    501.727
 92.670    674.000    658.645     15.355    501.542    636.929    501.542    523.196    501.542
 92.770    701.147    680.508     20.639    501.357    655.731    501.357    526.066    501.357
 92.870    669.962    702.522    -32.560    501.171    674.605    501.171    529.014    501.171
 92.970    769.000    723.854     45.146    500.983    692.839    500.983    531.921    500.983
 93.070    718.000    743.687    -25.687    500.795    709.766    500.795    534.637    500.795
 93.170    727.149    761.353    -34.204    500.606    724.893    500.606    536.985    500.606
 93.270    789.507    776.437     13.070    500.416    737.995    500.416    538.778    500.416
 93.370    746.000    788.838    -42.838    500.225    749.143    500.225    539.842    500.225
 93.470    810.268    798.723     11.545    500.034    758.626    500.034    540.054    500.034
 93.570    757.253    806.448    -49.195    499.841    766.841    499.841    539.373    499.841
 93.670    825.000    812.490     12.510    499.648    774.212    499.648    537.854    499.648
 93.770    825.000    817.422      7.578    499.453    781.178    499.453    535.628    499.453
 93.870    779.703    821.912    -42.209    499.258    788.230    499.258    532.874    499.258
 93.970    854.000    826.694     27.306    499.062    795.912    499.062    529.780    499.062
 94.070    843.000    832.462     10.538    498.866    804.748    498.866    526.518    498.866
 94.170    835.000    839.709     -4.709    498.668    815.082    498.668    523.234    498.668
 94.270    901.000    848.551     52.449    498.470    826.919    498.470    520.044    498.470
 94.370    918.000    858.632     59.368    498.271    839.813    498.271    517.034    498.271
 94.470    821.000    869.091    -48.091    498.071    852.844    498.071    514.266    498.071
 94.570    866.122    878.635    -12.513    497.870    864.684    497.870    511.774    497.870
 94.670    900.112    885.682     14.430    497.669    873.737    497.669    509.574    497.669
 94.770    860.038    888.592    -28.554    497.467    878.362    497.467    507.664    497.467
 94.870    903.000    885.972     17.028    497.264    877.181    497.264    506.032    497.264
 94.970    925.367    877.004     48.363    497.061    869.397    497.061    504.652    497.061
 95.070    866.791    861.664      5.126    496.856    855.016    496.856    503.498    496.856
 95.170    825.410    840.745    -15.336    496.652    834.861    496.652    502.537    496.652
 95.270    840.000    815.676     24.324    496.446    810.390    496.446    501.739    496.446
 95.370    819.000    788.265     30.735    496.240    783.443    496.240    501.073    496.240
 95.470    769.000    760.464      8.536    496.033    755.996    496.033    500.514    496.033
 95.570    684.316    734.191    -49.876    495.826    729.990    495.826    500.039    495.826
 95.670    736.000    711.286     24.714    495.617    707.283    495.617    499.630    495.617
 95.770    684.231    693.371     -9.140    495.409    689.513    495.409    499.272    495.409
 95.870    697.000    681.866     15.134    495.199    678.112    495.199    498.953    495.199
 95.970    680.437    677.983      2.454    494.990    674.300    494.990    498.665    494.990
 96.070    659.727    682.729    -23.002    494.779    679.091    494.779    498.402    494.779
 96.170    690.000    696.907     -6.907    494.568    693.293    494.568    498.157    494.568
 96.270    723.079    721.103      1.975    494.357    717.495    494.357    497.930    494.357
 96.370    714.000    755.643    -41.643    494.145    752.025    494.145    497.716    494.145
 96.470    862.000    800.518     61.482    493.932    796.878    493.932    497.514    493.932
 96.570    823.900    855.295    -31.395    493.719    851.620    493.719    497.324    493.719
 96.670    936.068    919.008     17.060    493.506    915.288    493.506    497.144    493.506
 96.770   1035.614    990.072     45.542    493.292    986.297    493.292    496.975    493.292
 96.870   1095.000   1066.221     28.779    493.078   1062.383    493.078    496.817    493.078
 96.970   1170.510   1144.493     26.017    492.863   1140.585    492.863    496.668    492.863
 97.070   1208.000   1221.271    -13.271    492.648   1217.285    492.648    496.531    492.648
 97.170   1288.000   1292.404     -4.404    492.432   1288.334    492.432    496.404    492.432
 97.270   1418.440   1353.456     64.985    492.216   1349.293    492.216    496.289    492.216
 97.370   1368.000   1400.124    -32.124    492.000   1395.862    492.000    496.186    492.000
 97.470   1484.000   1428.845     55.155    491.783   1424.475    491.783    496.096    491.783
 97.570   1405.000   1437.440    -32.440    491.566   1432.949    491.566    496.020    491.566
 97.670   1447.000   1425.557     21.443    491.348   1420.931    491.348    495.960    491.348
 97.770   1369.992   1394.694    -24.702    491.131   1389.914    491.131    495.918    491.131
 97.870   1294.000   1347.799    -53.799    490.913   1342.841    490.913    495.895    490.913
 97.970   1284.000   1288.698     -4.698    490.695   1283.536    490.695    495.896    490.695
 98.070   1157.431   1221.571    -64.140    490.476   1216.172    490.476    495.925    490.476
 98.170   1178.235   1150.561     27.674    490.257   1144.887    490.257    495.987    490.257
 98.270   1130.000   1079.537     50.463    490.038   1073.542    490.038    496.092    490.038
 98.370   1011.000   1011.936     -0.936    489.819   1005.563    489.819    496.248    489.819
 98.470    964.440    950.691     13.749    489.600    943.870    489.600    496.472    489.600
 98.570    887.000    898.202    -11.202    489.380    890.845    489.380    496.782    489.380
 98.670    860.612    856.366      4.246    489.161    848.359    489.161    497.204    489.161
 98.770    794.000    826.623    -32.623    488.941    817.822    488.941    497.768    488.941
 98.870    829.928    810.035     19.893    488.721    800.255    488.721    498.517    488.721
 98.970    744.000    807.356    -63.356    488.501    796.363    488.501    499.500    488.501
 99.070    850.000    819.097     30.903    488.281    806.599    488.281    500.777    488.281
 99.170    783.000    845.544    -62.544    488.061    831.176    488.061    502.417    488.061
 99.270    863.000    886.796    -23.796    487.841    870.118    487.841    504.501    487.841
 99.370    927.000    942.668    -15.668    487.621    923.149    487.621    507.116    487.621
 99.470    955.155   1012.625    -57.469    487.400    989.647    487.400    510.353    487.400
 99.570   1129.000   1095.705     33.295    487.180   1068.558    487.180    514.302    487.180
 99.670   1185.151   1190.418     -5.267    486.960   1158.308    486.960    519.048    486.960
 99.770   1313.000   1294.659     18.341    486.740   1256.722    486.740    524.661    486.740
 99.870   1404.000   1405.650     -1.650    486.520   1360.977    486.520    531.190    486.520
 99.970   1569.000   1519.942     49.058    486.300   1467.604    486.300    538.649    486.300
100.070   1664.000   1633.493     30.507    486.080   1572.589    486.080    547.015    486.080
100.170   1816.000   1741.882     74.118    485.861   1671.579    485.861    556.217    485.861
100.270   1843.000   1840.642      2.358    485.641   1760.236    485.641    566.125    485.641
100.370   1931.335   1925.671      5.665    485.422   1834.648    485.422    576.549    485.422
100.470   2033.000   1993.580     39.420    485.203   1891.682    485.203    587.230    485.203
100.570   2005.000   2041.843    -36.843    484.984   1929.141    484.984    597.840    484.984
100.670   2134.000   2068.773     65.227    484.765   1945.737    484.765    607.977    484.765
100.770   2129.447   2073.451     55.996    484.547   1941.013    484.547    617.177    484.547
100.870   2069.000   2055.793     13.207    484.329   1915.393    484.329    624.934    484.329
100.970   2077.000   2016.769     60.231    484.111   1870.346    484.111    630.747    484.111
101.070   1942.000   1958.620    -16.620    483.893   1808.549    483.893    634.180    483.893
101.170   1956.000   1884.870     71.130    483.676   1733.812    483.676    634.947    483.676
101.270   1894.000   1800.021     93.979    483.459   1650.720    483.459    632.966    483.459
101.370   1737.216   1709.038     28.178    483.243   1564.093    483.243    628.382    483.243
101.470   1605.000   1616.779    -11.779    483.027   1478.453    483.027    621.533    483.027
101.570   1478.000   1527.541    -49.541    482.812   1397.636    482.812    612.881    482.812
101.670   1437.000   1444.759     -7.759    482.596   1324.569    482.596    602.935    482.596
101.770   1332.000   1370.861    -38.861    482.382   1261.181    482.382    592.195    482.382
101.870   1272.000   1307.223    -35.223    482.168   1208.402    482.168    581.107    482.168
101.970   1216.000   1254.208    -38.208    481.954   1166.217    481.954    570.052    481.954
102.070   1204.000   1211.259     -7.259    481.741   1133.759    481.741    559.338    481.741
102.170   1189.000   1177.026     11.974    481.529   1109.440    481.529    549.204    481.529
102.270   1104.000   1149.536    -45.536    481.317   1091.118    481.317    539.820    481.317
102.370   1101.000   1126.412    -25.412    481.105   1076.301    481.105    531.299    481.105
102.470   1067.000   1105.131    -38.131    480.895   1062.411    480.895    523.698    480.895
102.570   1075.000   1083.336     -8.336    480.685   1047.077    480.685    517.027    480.685
102.670   1095.872   1059.139     36.733    480.476   1028.438    480.476    511.261    480.476
102.770   1041.000   1031.349      9.651    480.267   1005.357    480.267    506.345    480.267
102.870   1025.396    999.552     25.843    480.059    977.495    480.059    502.202    480.059
102.970    966.000    964.029      1.971    479.852    945.219    479.852    498.747    479.852
103.070    918.168    925.558     -7.390    479.646    909.399    479.646    495.888    479.646
103.170    912.000    885.204     26.796    479.441    871.190    479.441    493.533    479.441
103.270    853.000    844.137      8.863    479.236    831.847    479.236    491.599    479.236
103.370    792.000    803.498    -11.498    479.032    792.590    479.032    490.008    479.032
103.470    762.100    764.319     -2.218    478.830    754.516    478.830    488.693    478.830
103.570    766.000    727.464     38.536    478.628    718.548    478.628    487.596    478.628
103.670    664.000    693.596    -29.596    478.427    685.397    478.427    486.672    478.427
103.770    700.000    663.166     36.834    478.227    655.550    478.227    485.882    478.227
103.870    661.000    636.408     24.592    478.028    629.273    478.028    485.196    478.028
103.970    581.085    613.366    -32.280    477.830    606.632    477.830    484.591    477.830
104.070    615.000    593.920     21.080    477.633    587.526    477.633    484.049    477.633
104.170    619.000    577.829     41.171    477.437    571.727    477.437    483.557    477.437
104.270    538.596    564.765    -26.169    477.242    558.916    477.242    483.105    477.242
104.370    553.000    554.355     -1.355    477.049    548.728    477.049    482.685    477.049
104.470    548.000    546.211      1.789    476.856    540.781    476.856    482.293    476.856
104.570    535.591    539.980     -4.389    476.665    534.726    476.665    481.924    476.665
104.670    559.000    535.328     23.672    476.475    530.232    476.475    481.574    476.475
104.770    535.000    531.974      3.026    476.286    527.019    476.286    481.242    476.286
104.870    576.000    529.690     46.310    476.098    524.862    476.098    480.926    476.098
104.970    561.193    528.305     32.888    475.912    523.591    475.912    480.624    475.912
105.070    526.000    527.702     -1.702    475.727    523.090    475.727    480.336    475.727
105.170    522.000    527.815     -5.815    475.544    523.295    475.544    480.059    475.544
105.270    572.780    528.623     44.157    475.362    524.185    475.362    479.794    475.362
105.370    530.000    530.148     -0.148    475.181    525.782    475.181    479.539    475.181
105.470    550.000    532.444     17.556    475.001    528.142    475.001    479.294    475.001
105.570    520.081    535.591    -15.510    474.824    531.344    474.824    479.059    474.824
105.670    536.776    539.687     -2.912    474.647    535.488    474.647    478.833    474.647
105.770    530.000    544.834    -14.834    474.472    540.675    474.472    478.615    474.472
105.870    571.000    551.123     19.877    474.299    546.997    474.299    478.405    474.299
105.970    576.000    558.620     17.380    474.128    554.521    474.128    478.204    474.128
106.070    564.612    567.352     -2.740    473.958    563.274    473.958    478.010    473.958
106.170    590.624    577.295     13.329    473.789    573.231    473.789    477.823    473.789
106.270    569.000    588.361    -19.361    473.622    584.307    473.622    477.644    473.622
106.370    564.000    600.397    -36.397    473.457    596.346    473.457    477.472    473.457
106.470    603.000    613.177    -10.177    473.294    609.125    473.294    477.307    473.294
106.570    601.000    626.408    -25.408    473.133    622.350    473.133    477.149    473.133
106.670    681.825    639.731     42.094    472.973    635.667    472.973    476.993    472.973
106.770    700.504    652.751     47.754    472.815    648.673    472.815    476.847    472.815
106.870    666.000    665.026      0.974    472.659    660.929    472.659    476.710    472.659
106.970    678.000    676.114      1.886    472.505    671.994    472.505    476.579    472.505
107.070    679.000    685.607     -6.607    472.353    681.460    472.353    476.454    472.353
107.170    672.000    693.178    -21.178    472.203    689.001    472.203    476.337    472.203
107.270    656.000    698.639    -42.639    472.055    694.428    472.055    476.226    472.055
107.370    705.944    701.977      3.967    471.909    697.727    471.909    476.122    471.909
107.470    659.000    703.364    -44.364    471.765    699.071    471.765    476.026    471.765
107.570    639.000    703.132    -64.132    471.623    698.791    471.623    475.935    471.623
107.670    712.000    701.703     10.297    471.483    697.319    471.483    475.843    471.483
107.770    657.223    699.563    -42.340    471.345    695.122    471.345    475.767    471.345
107.870    707.000    697.151      9.849    471.210    692.646    471.210    475.700    471.210
107.970    672.176    694.842    -22.666    471.077    690.267    471.077    475.640    471.077
108.070    645.986    692.914    -46.927    470.946    688.264    470.946    475.589    470.946
108.170    667.000    691.529    -24.529    470.817    686.798    470.817    475.546    470.817
108.270    682.000    690.725     -8.725    470.691    685.906    470.691    475.511    470.691
108.370    690.161    690.412     -0.251    470.567    685.499    470.567    475.485    470.567
108.470    723.000    690.387     32.613    470.446    685.372    470.446    475.468    470.446
108.570    713.000    690.343     22.657    470.327    685.220    470.327    475.461    470.327
108.670    696.013    689.910      6.103    470.210    684.671    470.210    475.463    470.210
108.770    674.000    688.690    -14.690    470.096    683.327    470.096    475.476    470.096
108.870    694.196    686.315      7.881    469.984    680.819    469.984    475.499    469.984
108.970    658.628    682.500    -23.873    469.876    676.863    469.876    475.534    469.876
109.070    706.605    677.091     29.514    469.769    671.302    469.769    475.581    469.769
109.170    639.000    670.078    -31.078    469.666    664.127    469.666    475.640    469.666
109.270    634.000    661.592    -27.592    469.565    655.469    469.565    475.711    469.565
109.370    662.895    651.872     11.023    469.466    645.565    469.466    475.797    469.466
109.470    654.000    641.224     12.776    469.371    634.721    469.371    475.897    469.371
109.570    585.097    629.983    -44.887    469.278    623.270    469.278    476.013    469.278
109.670    604.000    618.486    -14.486    469.189    611.550    469.189    476.145    469.189
109.770    619.731    607.048     12.683    469.102    599.873    469.102    476.295    469.102
109.870    586.000    595.930     -9.930    469.018    588.501    469.018    476.464    469.018
109.970    555.275    585.405    -30.129    468.937    577.703    468.937    476.654    468.937
110.070    580.000    575.685      4.315    468.859    567.691    468.859    476.865    468.859
110.170    541.000    566.899    -25.899    468.784    558.592    468.784    477.102    468.784
110.270    587.000    559.143     27.857    468.712    550.498    468.712    477.365    468.712
110.370    558.000    552.467      5.533    468.643    543.457    468.643    477.660    468.643
110.470    549.000    546.882      2.118    468.577    537.476    468.577    477.989    468.577
110.570    572.395    542.365     30.031    468.515    532.525    468.515    478.357    468.515
110.670    581.000    538.863     42.137    468.456    528.548    468.456    478.773    468.456
110.770    559.783    536.309     23.474    468.400    525.466    468.400    479.242    468.400
110.870    549.000    534.621     14.379    468.347    523.190    468.347    479.777    468.347
110.970    540.000    533.715      6.285    468.298    521.621    468.298    480.389    468.298
111.070    501.000    533.510    -32.510    468.252    520.663    468.252    481.095    468.252
111.170    501.544    533.933    -32.389    468.209    520.222    468.209    481.915    468.209
111.270    533.485    534.920     -1.435    468.170    520.210    468.170    482.875    468.170
111.370    515.842    536.424    -20.581    468.135    520.549    468.135    484.003    468.135
111.470    581.942    538.412     43.530    468.103    521.169    468.103    485.338    468.103
111.570    541.000    540.870      0.130    468.075    522.013    468.075    486.923    468.075
111.670    559.000    543.802     15.198    468.050    523.033    468.050    488.810    468.050
111.770    567.555    547.231     20.323    468.029    524.192    468.029    491.059    468.029
111.870    542.427    551.199     -8.772    468.011    525.463    468.011    493.739    468.011
111.970    567.000    555.769     11.231    467.998    526.831    467.998    496.926    467.998
112.070    606.736    561.020     45.717    467.988    528.292    467.988    500.706    467.988
112.170    565.754    567.049     -1.294    467.982    529.850    467.982    505.171    467.982
112.270    551.000    573.967    -22.967    467.980    531.520    467.980    510.417    467.980
112.370    595.000    581.896     13.104    467.982    533.324    467.982    516.544    467.982
112.470    598.697    590.965      7.733    467.988    535.293    467.988    523.648    467.988
112.570    594.000    601.304     -7.304    467.998    537.466    467.998    531.824    467.998
112.670    617.000    613.047      3.953    468.012    539.893    468.012    541.154    468.012
112.770    628.000    626.323      1.677    468.030    542.636    468.030    551.705    468.030
112.870    678.624    641.260     37.365    468.052    545.774    468.052    563.523    468.052
112.970    643.620    657.979    -14.359    468.079    549.413    468.079    576.630    468.079
113.070    641.000    676.605    -35.605    468.109    553.687    468.109    591.010    468.109
113.170    704.000    697.265      6.735    468.144    558.777    468.144    606.614    468.144
113.270    728.000    720.100      7.900    468.184    564.918    468.184    623.345    468.184
113.370    714.223    745.277    -31.054    468.227    572.420    468.227    641.062    468.227
113.470    773.000    773.006     -0.006    468.275    581.686    468.275    659.569    468.275
113.570    765.000    803.556    -38.556    468.328    593.237    468.328    678.618    468.328
113.670    854.000    837.285     16.715    468.385    607.735    468.385    697.901    468.385
113.770    922.944    874.661     48.284    468.447    626.014    468.447    717.054    468.447
113.870    912.000    916.291     -4.291    468.513    649.104    468.513    735.653    468.513
113.970    904.396    962.956    -58.561    468.584    678.262    468.584    753.222    468.584
114.070    977.000   1015.640    -38.640    468.659    714.989    468.659    769.243    468.659
114.170   1093.000   1075.561     17.439    468.740    761.044    468.740    783.176    468.740
114.270   1130.695   1144.209    -13.514    468.825    818.447    468.825    794.489    468.825
114.370   1268.811   1223.372     45.439    468.915    889.463    468.915    802.706    468.915
114.470   1269.413   1315.147    -45.734    469.010    976.564    469.010    807.450    469.010
114.570   1356.340   1421.926    -65.586    469.109   1082.370    469.109    808.495    469.109
114.670   1543.000   1546.342     -3.342    469.214   1209.559    469.214    805.793    469.214
114.770   1710.000   1691.150     18.850    469.324   1360.750    469.324    799.483    469.324
114.870   1940.000   1859.069     80.931    469.439   1538.355    469.439    789.871    469.439
114.970   2168.000   2052.568    115.432    469.559   1744.411    469.559    777.388    469.559
115.070   2328.000   2273.630     54.370    469.684   1980.392    469.684    762.546    469.684
115.170   2518.000   2523.506     -5.506    469.814   2247.009    469.814    745.885    469.814
115.270   2889.000   2802.486     86.514    469.950   2544.021    469.950    727.938    469.950
115.370   3146.454   3109.696     36.758    470.091   2870.054    470.091    709.205    470.091
115.470   3506.682   3442.936     63.746    470.237   3222.463    470.237    690.136    470.237
115.570   3904.827   3798.577    106.250    470.389   3597.223    470.389    671.127    470.389
115.670   4028.000   4171.506   -143.506    470.547   3988.889    470.547    652.513    470.547
115.770   4565.000   4555.146      9.854    470.709   4390.607    470.709    634.573    470.709
115.870   4823.034   4941.539   -118.505    470.878   4794.201    470.878    617.528    470.878
115.970   5253.000   5321.503    -68.503    471.052   5190.321    471.052    601.548    471.052
116.070   5764.348   5684.862     79.486    471.232   5568.674    471.232    586.750    471.232
116.170   5834.000   6020.765   -186.765    471.417   5918.340    471.417    573.207    471.417
116.270   6317.935   6318.116     -0.181    471.608   6228.188    471.608    560.951    471.608
116.370   6657.000   6566.126     90.874    471.805   6487.436    471.805    549.978    471.805
116.470   6777.000   6755.005     21.995    472.008   6686.325    472.008    540.255    472.008
116.570   6949.031   6876.745     72.285    472.217   6816.902    472.217    531.724    472.217
116.670   6924.333   6925.887     -1.554    472.432   6873.779    472.432    524.309    472.432
116.770   7013.869   6900.112    113.756    472.653   6854.722    472.653    517.922    472.653
116.870   6803.000   6800.507      2.493    472.880   6760.908    472.880    512.467    472.880
116.970   6797.000   6631.401    165.599    473.113   6596.761    473.113    507.846    473.113
117.070   6538.000   6399.878    138.122    473.353   6369.458    473.353    503.960    473.353
117.170   6138.000   6115.071     22.929    473.598   6088.223    473.598    500.714    473.598
117.270   5583.000   5787.290   -204.290    473.850   5763.453    473.850    498.021    473.850
117.370   5269.000   5427.380   -158.380    474.109   5406.074    474.109    495.798    474.109
117.470   5004.000   5046.121    -42.121    474.373   5026.938    474.373    493.974    474.373
117.570   4731.581   4653.774     77.807    474.645   4636.371    474.645    492.483    474.645
117.670   4170.134   4259.739    -89.605    474.922   4243.832    474.922    491.271    474.922
117.770   3980.259   3872.313    107.947    475.207   3857.665    475.207    490.288    475.207
117.870   3636.000   3498.521    137.479    475.498   3484.939    475.498    489.496    475.498
117.970   3237.000   3144.031     92.969    475.795   3131.356    475.795    488.861    475.795
118.070   2871.640   2813.128     58.512    476.100   2801.232    476.100    488.355    476.100
118.170   2567.389   2508.765     58.624    476.411   2497.543    476.411    487.956    476.411
118.270   2262.118   2232.656     29.462    476.729   2222.024    476.729    487.646    476.729
118.370   1993.031   1985.413      7.618    477.054   1975.303    477.054    487.410    477.054
118.470   1786.000   1766.712     19.288    477.386   1757.069    477.386    487.238    477.386
118.570   1580.000   1575.469      4.531    477.726   1566.248    477.726    487.120    477.726
118.670   1380.526   1410.019    -29.493    478.072   1401.183    478.072    487.049    478.072
118.770   1230.000   1268.289    -38.289    478.425   1259.807    478.425    487.020    478.425
118.870   1141.000   1147.963     -6.963    478.786   1139.809    478.786    487.028    478.786
118.970   1002.000   1046.618    -44.618    479.153   1038.769    479.153    487.069    479.153
119.070    994.000    961.845     32.155    479.529    954.282    479.529    487.141    479.529
119.170    955.000    891.340     63.660    479.911    884.044    479.911    487.242    479.911
119.270    881.000    832.965     48.035    480.301    825.921    480.301    487.370    480.301
119.370    813.000    784.795     28.205    480.699    777.986    480.699    487.524    480.699
119.470    692.000    745.132    -53.132    481.104    738.543    481.104    487.703    481.104
119.570    701.000    712.511    -11.511    481.516    706.128    481.516    487.905    481.516
119.670    659.000    685.690    -26.690    481.937    679.499    481.937    488.131    481.937
119.770    711.210    663.635     47.575    482.365    657.621    482.365    488.381    482.365
119.870    600.000    645.494    -45.494    482.801    639.643    482.801    488.653    482.801
119.970    637.000    630.575      6.425    483.245    624.872    483.245    488.949    483.245
120.070    629.043    618.323     10.721    483.696    612.752    483.696    489.268    483.696
120.170    575.000    608.293    -33.293    484.156    602.840    484.156    489.610    484.156
120.270    638.000    600.135     37.864    484.624    594.784    484.624    489.976    484.624
120.370    594.783    593.574      1.208    485.100    588.308    485.100    490.368    485.100
120.470    577.000    588.394    -11.394    485.584    583.196    485.584    490.784    485.584
120.570    560.532    584.425    -23.892    486.076    579.278    486.076    491.227    486.076
120.670    596.000    581.537     14.463    486.577    576.421    486.577    491.696    486.577
120.770    608.622    579.626     28.996    487.086    574.523    487.086    492.193    487.086
120.870    590.609    578.611     11.998    487.603    573.501    487.603    492.719    487.603
120.970    573.000    578.426     -5.426    488.129    573.288    488.129    493.274    488.129
121.070    591.000    579.016     11.984    488.663    573.829    488.663    493.858    488.663
121.170    581.000    580.331      0.669    489.206    575.073    489.206    494.473    489.206
121.270    622.434    582.325     40.109    489.758    576.974    489.758    495.119    489.758
121.370    576.000    584.949     -8.949    490.318    579.484    490.318    495.795    490.318
121.470    559.009    588.152    -29.143    490.888    582.552    490.888    496.502    490.888
121.570    564.000    591.878    -27.878    491.466    586.121    491.466    497.238    491.466
121.670    578.000    596.061    -18.061    492.053    590.129    492.053    498.004    492.053
121.770    612.000    600.630     11.370    492.649    594.503    492.649    498.796    492.649
121.870    584.000    605.502    -21.502    493.254    599.165    493.254    499.614    493.254
121.970    635.000    610.585     24.415    493.868    604.025    493.868    500.454    493.868
122.070    648.000    615.781     32.219    494.492    608.986    494.492    501.315    494.492
122.170    674.000    620.980     53.020    495.124    613.943    495.124    502.193    495.124
122.270    618.000    626.070     -8.070    495.766    618.787    495.766    503.083    495.766
122.370    603.879    630.931    -27.052    496.418    623.405    496.418    503.981    496.418
122.470    612.000    635.447    -23.447    497.079    627.683    497.079    504.882    497.079
122.570    636.000    639.503     -3.503    497.749    631.513    497.749    505.781    497.749
122.670    674.000    642.995     31.005    498.429    634.797    498.429    506.671    498.429
122.770    658.000    645.834     12.166    499.119    637.452    499.119    507.546    499.119
122.870    719.000    647.951     71.049    499.818    639.415    499.818    508.401    499.818
122.970    658.000    649.306      8.694    500.527    640.651    500.527    509.229    500.527
123.070    672.000    649.883     22.117    501.246    641.152    501.246    510.025    501.246
123.170    656.315    649.697      6.619    501.976    640.935    501.976    510.785    501.976
123.270    633.000    648.786    -15.786    502.715    640.042    502.715    511.506    502.715
123.370    643.000    647.212     -4.212    503.464    638.534    503.464    512.187    503.464
123.470    622.000    645.047    -23.047    504.223    636.485    504.223    512.828    504.223
123.570    660.770    642.376     18.393    504.992    633.977    504.992    513.433    504.992
123.670    681.000    639.288     41.712    505.772    631.096    505.772    514.004    505.772
123.770    676.000    635.875     40.125    506.562    627.926    506.562    514.548    506.562
123.870    630.000    632.225     -2.225    507.363    624.551    507.363    515.071    507.363
123.970    650.000    628.420     21.580    508.174    621.046    508.174    515.579    508.174
124.070    598.000    624.533    -26.533    508.996    617.479    508.996    516.077    508.996
124.170    629.000    620.629      8.371    509.828    613.909    509.828    516.572    509.828
124.270    664.066    616.761     47.305    510.671    610.384    510.671    517.069    510.671
124.370    649.022    612.971     36.051    511.525    606.940    511.525    517.574    511.525
124.470    585.000    609.289    -24.289    512.389    603.604    512.389    518.091    512.389
124.570    624.000    605.735     18.265    513.265    600.390    513.265    518.624    513.265
124.670    588.000    602.319    -14.319    514.152    597.307    514.152    519.176    514.152
124.770    603.000    599.044      3.956    515.049    594.353    515.049    519.750    515.049
124.870    591.000    595.908     -4.908    515.958    591.525    515.958    520.350    515.958
124.970    568.147    592.905    -24.758    516.878    588.814    516.878    520.976    516.878
