AC_425764
R_wp: 6.257
Temperature (K): 1074.000
Counts: 83929.00
Wavelength (Ã…): 2.52098
COMMENTS
Hello World
END OF HEADER
   tth       Y_obs     Y_calc      Y_res    Background    SrFe12O19_Nuc    SrFe12O19_Mag
  9.970    616.000    583.706     32.294    583.609    583.706    583.609
 10.070    587.000    583.513      3.487    583.407    583.513    583.407
 10.170    590.000    583.319      6.681    583.203    583.319    583.203
 10.270    585.000    583.124      1.876    582.996    583.124    582.996
 10.370    614.000    582.929     31.071    582.786    582.929    582.786
 10.470    571.000    582.734    -11.734    582.575    582.734    582.575
 10.570    617.000    582.539     34.461    582.360    582.539    582.360
 10.670    608.000    582.345     25.655    582.144    582.345    582.144
 10.770    602.000    582.155     19.845    581.925    582.155    581.925
 10.870    549.000    581.968    -32.968    581.704    581.968    581.704
 10.970    577.000    581.786     -4.786    581.481    581.786    581.481
 11.070    615.000    581.614     33.386    581.256    581.614    581.256
 11.170    540.000    581.455    -41.455    581.028    581.455    581.028
 11.270    613.000    581.314     31.686    580.799    581.314    580.799
 11.370    552.000    581.202    -29.202    580.567    581.202    580.567
 11.470    572.000    581.166     -9.166    580.333    581.166    580.333
 11.570    599.000    581.177     17.823    580.097    581.177    580.097
 11.670    623.000    581.382     41.618    579.860    581.382    579.860
 11.770    608.000    582.565     25.435    579.620    582.565    579.620
 11.870    648.000    588.909     59.091    579.378    588.909    579.378
 11.970    678.000    613.517     64.483    579.134    613.517    579.134
 12.070    651.000    673.328    -22.328    578.889    673.328    578.889
 12.170    702.000    752.519    -50.519    578.642    752.519    578.642
 12.270    687.000    782.874    -95.874    578.392    782.874    578.392
 12.370    632.000    727.205    -95.205    578.142    727.205    578.142
 12.470    659.000    646.474     12.526    577.889    646.474    577.889
 12.570    590.000    598.729     -8.729    577.634    598.729    577.634
 12.670    575.000    582.847     -7.847    577.378    582.847    577.378
 12.770    617.000    579.209     37.791    577.121    579.209    577.121
 12.870    569.000    578.191     -9.191    576.861    578.191    576.861
 12.970    567.000    577.604    -10.604    576.600    577.604    576.600
 13.070    588.000    577.133     10.867    576.338    577.133    576.338
 13.170    594.000    576.723     17.277    576.074    576.723    576.074
 13.270    565.000    576.351    -11.351    575.808    576.351    575.808
 13.370    565.000    576.004    -11.004    575.541    576.004    575.541
 13.470    588.000    575.675     12.325    575.272    575.675    575.272
 13.570    524.000    575.357    -51.357    575.002    575.357    575.002
 13.670    598.000    575.048     22.952    574.731    575.048    574.731
 13.770    560.000    574.744    -14.744    574.458    574.744    574.458
 13.870    599.000    574.445     24.555    574.184    574.445    574.184
 13.970    578.000    574.149      3.851    573.909    574.149    573.909
 14.070    580.000    573.855      6.145    573.632    573.855    573.632
 14.170    589.000    573.563     15.437    573.354    573.563    573.354
 14.270    520.000    573.279    -53.279    573.075    573.279    573.075
 14.370    538.000    572.989    -34.989    572.794    572.989    572.794
 14.470    573.000    572.699      0.301    572.513    572.699    572.513
 14.570    548.000    572.408    -24.408    572.230    572.408    572.230
 14.670    520.000    572.118    -52.118    571.946    572.118    571.946
 14.770    562.000    571.828     -9.828    571.661    571.828    571.661
 14.870    581.000    571.537      9.463    571.375    571.537    571.375
 14.970    591.000    571.246     19.754    571.088    571.246    571.088
 15.070    591.000    570.954     20.046    570.800    570.954    570.800
 15.170    550.000    570.662    -20.662    570.511    570.662    570.511
 15.270    581.000    570.369     10.631    570.220    570.369    570.220
 15.370    570.000    570.076     -0.076    569.929    570.076    569.929
 15.470    580.000    569.782     10.218    569.637    569.782    569.637
 15.570    532.000    569.488    -37.488    569.345    569.488    569.345
 15.670    593.000    569.193     23.807    569.051    569.193    569.051
 15.770    553.000    568.898    -15.898    568.756    568.898    568.756
 15.870    571.000    568.602      2.398    568.461    568.602    568.461
 15.970    578.000    568.305      9.695    568.165    568.305    568.165
 16.070    595.000    568.008     26.992    567.868    568.008    567.868
 16.170    548.000    567.710    -19.710    567.570    567.710    567.570
 16.270    565.000    567.412     -2.412    567.271    567.412    567.271
 16.370    556.000    567.113    -11.113    566.972    567.113    566.972
 16.470    558.000    566.813     -8.813    566.672    566.813    566.672
 16.570    577.000    566.513     10.487    566.372    566.513    566.372
 16.670    557.000    566.213     -9.213    566.071    566.213    566.071
 16.770    524.000    565.912    -41.912    565.769    565.912    565.769
 16.870    570.000    565.611      4.389    565.467    565.611    565.467
 16.970    554.000    565.309    -11.309    565.164    565.309    565.164
 17.070    560.000    565.007     -5.007    564.861    565.007    564.861
 17.170    534.000    564.704    -30.704    564.557    564.704    564.557
 17.270    535.000    564.401    -29.401    564.252    564.401    564.252
 17.370    593.000    564.078     28.922    563.947    564.078    563.947
 17.470    580.000    563.775     16.225    563.642    563.775    563.642
 17.570    549.000    563.472    -14.472    563.336    563.472    563.336
 17.670    570.000    563.212      6.788    563.030    563.212    563.030
 17.770    566.000    562.919      3.081    562.724    562.919    562.724
 17.870    530.000    562.616    -32.616    562.417    562.616    562.417
 17.970    526.000    562.312    -36.312    562.110    562.312    562.110
 18.070    545.000    562.008    -17.008    561.802    562.008    561.802
 18.170    606.000    561.703     44.297    561.494    561.703    561.494
 18.270    545.000    561.399    -16.399    561.186    561.399    561.186
 18.370    543.000    561.094    -18.094    560.878    561.094    560.878
 18.470    530.000    560.790    -30.790    560.569    560.790    560.569
 18.570    556.000    560.485     -4.485    560.261    560.485    560.261
 18.670    544.000    560.180    -16.180    559.952    560.180    559.952
 18.770    535.000    559.875    -24.875    559.642    559.875    559.642
 18.870    563.000    559.570      3.430    559.333    559.570    559.333
 18.970    561.000    559.265      1.735    559.024    559.265    559.024
 19.070    544.000    558.960    -14.960    558.714    558.960    558.714
 19.170    571.000    558.655     12.345    558.405    558.655    558.405
 19.270    595.000    558.350     36.650    558.095    558.350    558.095
 19.370    568.000    558.046      9.954    557.785    558.046    557.785
 19.470    588.000    557.741     30.259    557.475    557.741    557.475
 19.570    553.000    557.440     -4.440    557.166    557.440    557.166
 19.670    584.000    557.143     26.857    556.856    557.143    556.856
 19.770    522.000    556.840    -34.840    556.546    556.840    556.546
 19.870    569.000    556.536     12.464    556.237    556.536    556.237
 19.970    588.000    556.233     31.767    555.927    556.233    555.927
 20.070    554.000    555.930     -1.930    555.617    555.930    555.617
 20.170    548.000    555.628     -7.628    555.308    555.628    555.308
 20.270    565.000    555.326      9.674    554.999    555.326    554.999
 20.370    545.000    555.024    -10.024    554.689    555.024    554.689
 20.470    527.000    554.723    -27.723    554.380    554.723    554.380
 20.570    564.000    554.422      9.578    554.072    554.422    554.072
 20.670    514.000    554.122    -40.122    553.763    554.122    553.763
 20.770    525.000    553.822    -28.822    553.455    553.822    553.455
 20.870    586.000    553.523     32.477    553.146    553.523    553.146
 20.970    556.000    553.224      2.776    552.838    553.224    552.838
 21.070    538.000    552.926    -14.926    552.531    552.926    552.531
 21.170    539.000    552.629    -13.629    552.223    552.629    552.223
 21.270    588.000    552.333     35.667    551.916    552.333    551.916
 21.370    598.000    552.037     45.963    551.609    552.037    551.609
 21.470    539.000    551.742    -12.742    551.303    551.742    551.303
 21.570    541.000    551.448    -10.448    550.997    551.448    550.997
 21.670    546.000    551.155     -5.155    550.691    551.155    550.691
 21.770    562.000    550.863     11.137    550.386    550.863    550.386
 21.870    563.000    550.573     12.427    550.081    550.573    550.081
 21.970    553.000    550.283      2.717    549.776    550.283    549.776
 22.070    600.000    549.995     50.005    549.472    549.995    549.472
 22.170    537.000    549.707    -12.707    549.168    549.707    549.168
 22.270    590.000    549.422     40.578    548.865    549.422    548.865
 22.370    564.000    549.137     14.863    548.562    549.137    548.562
 22.470    561.000    548.855     12.145    548.260    548.855    548.260
 22.570    547.000    548.574     -1.574    547.958    548.574    547.958
 22.670    549.000    548.295      0.705    547.657    548.295    547.657
 22.770    534.000    548.019    -14.019    547.356    548.019    547.356
 22.870    559.000    547.744     11.256    547.056    547.744    547.056
 22.970    553.000    547.473      5.527    546.756    547.473    546.756
 23.070    542.000    547.204     -5.204    546.457    547.204    546.457
 23.170    518.000    546.939    -28.939    546.159    546.939    546.159
 23.270    543.000    546.678     -3.678    545.861    546.678    545.861
 23.370    563.000    546.421     16.579    545.564    546.421    545.564
 23.470    538.000    546.171     -8.171    545.267    546.171    545.267
 23.570    529.000    545.927    -16.927    544.971    545.927    544.971
 23.670    559.000    545.692     13.308    544.676    545.692    544.676
 23.770    533.000    545.468    -12.468    544.382    545.468    544.382
 23.870    589.000    545.260     43.740    544.088    545.260    544.088
 23.970    585.000    545.073     39.927    543.795    545.073    543.795
 24.070    523.000    544.917    -21.917    543.502    544.917    543.502
 24.170    562.000    544.820     17.180    543.210    544.820    543.210
 24.270    549.000    544.923      4.077    542.919    544.923    542.919
 24.370    575.000    546.057     28.943    542.629    546.057    542.629
 24.470    581.000    551.529     29.471    542.340    551.529    542.340
 24.570    591.000    568.699     22.301    542.051    568.699    542.051
 24.670    613.000    602.629     10.371    541.763    602.629    541.763
 24.770    640.000    639.765      0.235    541.476    639.765    541.476
 24.870    622.000    649.055    -27.055    541.190    649.055    541.190
 24.970    620.000    619.997      0.003    540.904    619.997    540.904
 25.070    605.000    580.232     24.768    540.620    580.232    540.620
 25.170    552.000    555.003     -3.003    540.336    555.003    540.336
 25.270    532.000    545.369    -13.369    540.053    545.369    540.053
 25.370    523.000    542.797    -19.797    539.771    542.797    539.771
 25.470    573.000    542.086     30.914    539.490    542.086    539.490
 25.570    555.000    541.732     13.268    539.210    541.732    539.210
 25.670    582.000    541.468     40.532    538.931    541.468    538.931
 25.770    562.000    541.255     20.745    538.653    541.255    538.653
 25.870    559.000    541.082     17.918    538.375    541.082    538.375
 25.970    553.000    540.944     12.056    538.099    540.944    538.099
 26.070    553.000    540.840     12.160    537.823    540.840    537.823
 26.170    584.000    540.772     43.228    537.549    540.772    537.549
 26.270    546.000    540.742      5.258    537.275    540.742    537.275
 26.370    525.000    540.756    -15.756    537.003    540.756    537.003
 26.470    589.000    540.820     48.180    536.731    540.820    536.731
 26.570    561.000    540.951     20.049    536.461    540.951    536.461
 26.670    547.000    541.156      5.844    536.191    541.156    536.191
 26.770    538.000    541.444     -3.444    535.923    541.444    535.923
 26.870    565.000    541.846     23.154    535.656    541.846    535.656
 26.970    559.000    542.393     16.607    535.389    542.393    535.389
 27.070    594.000    543.128     50.872    535.124    543.128    535.124
 27.170    559.000    544.115     14.885    534.860    544.115    534.860
 27.270    557.000    545.445     11.555    534.597    545.445    534.597
 27.370    540.000    547.271     -7.271    534.334    547.271    534.334
 27.470    578.000    549.887     28.113    534.074    549.887    534.074
 27.570    544.000    554.020    -10.020    533.814    554.020    533.814
 27.670    559.000    561.565     -2.565    533.555    561.565    533.555
 27.770    554.000    576.830    -22.830    533.297    576.830    533.297
 27.870    571.000    607.193    -36.193    533.041    607.193    533.041
 27.970    641.000    660.446    -19.446    532.786    660.446    532.786
 28.070    750.000    737.011     12.989    532.531    737.011    532.531
 28.170    835.000    818.642     16.358    532.278    818.642    532.278
 28.270    921.000    860.905     60.095    532.027    860.905    532.027
 28.370    923.000    831.078     91.922    531.776    831.078    531.776
 28.470    777.000    762.657     14.343    531.526    762.657    531.526
 28.570    695.000    706.039    -11.039    531.278    706.039    531.278
 28.670    656.000    686.576    -30.576    531.031    686.576    531.031
 28.770    726.000    704.943     21.057    530.785    704.943    530.785
 28.870    834.000    741.214     92.786    530.541    741.214    530.541
 28.970    819.000    758.428     60.572    530.297    758.428    530.297
 29.070    753.000    730.449     22.551    530.055    730.449    530.055
 29.170    769.000    675.794     93.206    529.814    675.794    529.814
 29.270    653.000    623.339     29.661    529.574    623.339    529.574
 29.370    580.000    585.911     -5.911    529.336    585.911    529.336
 29.470    572.000    563.899      8.101    529.099    563.899    529.099
 29.570    631.000    552.410     78.590    528.863    552.410    528.863
 29.670    634.000    546.596     87.404    528.628    546.596    528.628
 29.770    608.000    543.327     64.673    528.395    543.327    528.395
 29.870    598.000    541.178     56.822    528.163    541.178    528.163
 29.970    559.000    539.706     19.294    527.932    539.706    527.932
 30.070    618.000    538.722     79.278    527.703    538.722    527.703
 30.170    545.000    538.183      6.817    527.475    538.183    527.475
 30.270    567.000    538.235     28.765    527.248    538.235    527.248
 30.370    557.000    539.328     17.672    527.022    539.328    527.022
 30.470    549.000    542.543      6.457    526.798    542.543    526.798
 30.570    555.000    549.675      5.325    526.575    549.675    526.575
 30.670    579.000    562.509     16.491    526.354    562.509    526.354
 30.770    570.000    580.927    -10.927    526.134    580.927    526.134
 30.870    604.000    600.343      3.657    525.915    600.343    525.915
 30.970    635.000    610.238     24.762    525.697    610.238    525.697
 31.070    612.000    602.507      9.493    525.481    602.507    525.481
 31.170    532.000    583.384    -51.384    525.267    583.384    525.267
 31.270    560.000    563.645     -3.645    525.053    563.645    525.053
 31.370    565.000    548.932     16.068    524.841    548.932    524.841
 31.470    543.000    540.023      2.977    524.631    540.023    524.631
 31.570    548.000    535.336     12.664    524.422    535.336    524.422
 31.670    534.000    532.994      1.006    524.214    532.994    524.214
 31.770    518.000    531.750    -13.750    524.007    531.750    524.007
 31.870    557.000    531.002     25.998    523.802    531.002    523.802
 31.970    503.000    530.515    -27.515    523.599    530.515    523.599
 32.070    529.000    530.203     -1.203    523.397    530.203    523.397
 32.170    505.000    530.031    -25.031    523.196    530.031    523.196
 32.270    584.000    529.986     54.014    522.996    529.986    522.996
 32.370    501.000    530.066    -29.066    522.799    530.066    522.799
 32.470    550.000    530.279     19.721    522.602    530.279    522.602
 32.570    552.000    530.639     21.361    522.407    530.639    522.407
 32.670    510.000    531.175    -21.175    522.213    531.175    522.213
 32.770    528.000    531.926     -3.926    522.021    531.926    522.021
 32.870    534.000    532.952      1.048    521.830    532.952    521.830
 32.970    512.000    534.339    -22.339    521.641    534.339    521.641
 33.070    556.000    536.222     19.778    521.453    536.222    521.453
 33.170    547.000    538.841      8.159    521.267    538.841    521.267
 33.270    554.000    542.734     11.266    521.082    542.734    521.082
 33.370    572.000    549.301     22.699    520.898    549.301    520.898
 33.470    574.000    562.101     11.899    520.716    562.101    520.716
 33.570    568.000    588.665    -20.665    520.536    588.665    520.536
 33.670    674.000    640.810     33.190    520.357    640.810    520.357
 33.770    727.000    729.680     -2.680    520.179    729.680    520.179
 33.870    917.000    853.881     63.119    520.003    853.881    520.003
 33.970   1000.000    984.489     15.511    519.828    984.489    519.828
 34.070   1013.000   1058.191    -45.191    519.655   1058.191    519.655
 34.170    988.000   1023.047    -35.047    519.484   1023.047    519.484
 34.270    940.000    906.853     33.147    519.313    906.853    519.313
 34.370    784.000    775.362      8.638    519.145    775.362    519.145
 34.470    646.000    671.047    -25.047    518.977    671.047    518.977
 34.570    590.000    604.729    -14.729    518.812    604.729    518.812
 34.670    524.000    568.799    -44.799    518.647    568.799    518.647
 34.770    564.000    550.962     13.038    518.485    550.962    518.485
 34.870    540.000    541.915     -1.915    518.323    541.915    518.323
 34.970    528.000    536.701     -8.701    518.164    536.701    518.164
 35.070    515.000    533.209    -18.209    518.005    533.209    518.005
 35.170    515.000    530.624    -15.624    517.849    530.624    517.849
 35.270    554.000    528.612     25.388    517.693    528.612    517.693
 35.370    505.000    526.999    -21.999    517.540    526.999    517.540
 35.470    481.000    525.679    -44.679    517.387    525.679    517.387
 35.570    526.000    524.747      1.253    517.237    524.747    517.237
 35.670    498.000    523.863    -25.863    517.088    523.863    517.088
 35.770    519.000    523.070     -4.070    516.940    523.070    516.940
 35.870    550.000    522.382     27.618    516.794    522.382    516.794
 35.970    520.000    521.779     -1.779    516.649    521.779    516.649
 36.070    535.000    521.246     13.754    516.506    521.246    516.506
 36.170    520.000    520.781     -0.781    516.364    520.781    516.364
 36.270    531.000    520.362     10.638    516.224    520.362    516.224
 36.370    517.000    519.996     -2.996    516.085    519.996    516.085
 36.470    485.000    519.656    -34.656    515.948    519.656    515.948
 36.570    477.000    519.336    -42.336    515.813    519.336    515.813
 36.670    484.000    519.043    -35.043    515.679    519.043    515.679
 36.770    509.000    518.775     -9.775    515.546    518.775    515.546
 36.870    539.000    518.534     20.466    515.415    518.534    515.415
 36.970    506.000    518.341    -12.341    515.286    518.341    515.286
 37.070    499.000    518.247    -19.247    515.158    518.247    515.158
 37.170    466.000    518.308    -52.308    515.031    518.308    515.031
 37.270    500.000    519.025    -19.025    514.906    519.025    514.906
 37.370    506.000    521.426    -15.426    514.783    521.426    514.783
 37.470    515.000    526.385    -11.385    514.661    526.385    514.661
 37.570    553.000    533.741     19.259    514.540    533.741    514.540
 37.670    522.000    540.595    -18.595    514.421    540.595    514.421
 37.770    532.000    542.690    -10.690    514.304    542.690    514.304
 37.870    499.000    538.534    -39.534    514.188    538.534    514.188
 37.970    579.000    531.218     47.782    514.074    531.218    514.074
 38.070    526.000    524.686      1.314    513.961    524.686    513.961
 38.170    502.000    520.521    -18.521    513.850    520.521    513.850
 38.270    522.000    518.306      3.694    513.740    518.306    513.740
 38.370    511.000    517.151     -6.151    513.631    517.151    513.631
 38.470    485.000    516.483    -31.483    513.525    516.483    513.525
 38.570    502.000    516.063    -14.063    513.419    516.063    513.419
 38.670    507.000    515.789     -8.789    513.316    515.789    513.316
 38.770    522.000    515.596      6.404    513.213    515.596    513.213
 38.870    521.000    515.445      5.555    513.112    515.445    513.112
 38.970    515.000    515.385     -0.385    513.013    515.385    513.013
 39.070    501.000    515.283    -14.283    512.915    515.283    512.915
 39.170    498.000    515.178    -17.178    512.819    515.178    512.819
 39.270    514.000    515.080     -1.080    512.724    515.080    512.724
 39.370    484.000    514.990    -30.990    512.631    514.990    512.631
 39.470    496.000    514.905    -18.905    512.539    514.905    512.539
 39.570    528.000    514.827     13.173    512.449    514.827    512.449
 39.670    469.000    514.755    -45.755    512.360    514.755    512.360
 39.770    551.000    514.689     36.311    512.273    514.689    512.273
 39.870    492.000    514.629    -22.629    512.187    514.629    512.187
 39.970    484.000    514.576    -30.576    512.103    514.576    512.103
 40.070    500.000    514.529    -14.529    512.020    514.529    512.020
 40.170    510.000    514.489     -4.489    511.938    514.489    511.938
 40.270    514.000    514.456     -0.456    511.859    514.456    511.859
 40.370    530.000    514.432     15.568    511.780    514.432    511.780
 40.470    492.000    514.417    -22.417    511.703    514.417    511.703
 40.570    473.000    514.412    -41.412    511.628    514.412    511.628
 40.670    499.000    514.419    -15.419    511.554    514.419    511.554
 40.770    497.000    514.439    -17.439    511.481    514.439    511.481
 40.870    497.000    514.474    -17.474    511.410    514.474    511.410
 40.970    526.000    514.528     11.472    511.340    514.528    511.340
 41.070    522.000    514.604      7.396    511.272    514.604    511.272
 41.170    518.000    514.706      3.294    511.206    514.706    511.206
 41.270    528.000    514.852     13.148    511.140    514.852    511.140
 41.370    544.000    515.037     28.963    511.076    515.037    511.076
 41.470    487.000    515.269    -28.269    511.014    515.269    511.014
 41.570    471.000    515.574    -44.574    510.953    515.574    510.953
 41.670    507.000    515.983     -8.983    510.894    515.983    510.894
 41.770    513.000    516.564     -3.564    510.836    516.564    510.836
 41.870    506.000    517.483    -11.483    510.779    517.483    510.779
 41.970    538.000    519.164     18.836    510.724    519.164    510.724
 42.070    490.000    522.536    -32.536    510.670    522.536    510.670
 42.170    531.000    529.277      1.723    510.618    529.277    510.618
 42.270    497.000    541.634    -44.634    510.567    541.634    510.567
 42.370    522.000    561.355    -39.355    510.517    561.355    510.517
 42.470    611.000    587.761     23.239    510.469    587.761    510.469
 42.570    610.000    615.660     -5.660    510.422    615.660    510.422
 42.670    610.000    634.977    -24.977    510.377    634.977    510.377
 42.770    606.000    635.781    -29.781    510.333    635.781    510.333
 42.870    585.000    617.559    -32.559    510.291    617.559    510.291
 42.970    527.000    589.891    -62.891    510.249    589.891    510.249
 43.070    513.000    563.139    -50.139    510.210    563.139    510.210
 43.170    519.000    542.858    -23.858    510.171    542.858    510.171
 43.270    485.000    530.013    -45.013    510.134    530.013    510.134
 43.370    498.000    522.957    -24.957    510.099    522.957    510.099
 43.470    528.000    519.423      8.577    510.064    519.423    510.064
 43.570    502.000    517.675    -15.675    510.032    517.675    510.032
 43.670    466.000    516.732    -50.732    510.000    516.732    510.000
 43.770    488.000    516.147    -28.147    509.970    516.147    509.970
 43.870    506.000    515.745     -9.745    509.941    515.745    509.941
 43.970    497.000    515.452    -18.452    509.914    515.452    509.914
 44.070    527.000    515.351     11.649    509.887    515.351    509.887
 44.170    506.000    515.266     -9.266    509.863    515.266    509.863
 44.270    498.000    515.155    -17.155    509.839    515.155    509.839
 44.370    517.000    515.088      1.912    509.817    515.088    509.817
 44.470    489.000    515.046    -26.046    509.796    515.046    509.796
 44.570    530.000    515.029     14.971    509.777    515.029    509.777
 44.670    444.000    515.036    -71.036    509.759    515.036    509.759
 44.770    494.000    515.063    -21.063    509.742    515.063    509.742
 44.870    509.000    515.109     -6.109    509.726    515.109    509.726
 44.970    491.000    515.173    -24.173    509.712    515.173    509.712
 45.070    546.000    515.253     30.747    509.699    515.253    509.699
 45.170    487.000    515.350    -28.350    509.687    515.350    509.687
 45.270    517.000    515.433      1.567    509.677    515.433    509.677
 45.370    499.000    515.563    -16.563    509.668    515.563    509.668
 45.470    505.000    515.710    -10.710    509.660    515.710    509.660
 45.570    468.000    515.874    -47.874    509.653    515.874    509.653
 45.670    497.000    516.058    -19.058    509.648    516.058    509.648
 45.770    522.000    516.261      5.739    509.644    516.261    509.644
 45.870    500.000    516.485    -16.485    509.641    516.485    509.641
 45.970    484.000    516.734    -32.734    509.639    516.734    509.639
 46.070    475.000    516.988    -41.988    509.639    516.988    509.639
 46.170    475.000    517.291    -42.291    509.640    517.291    509.640
 46.270    519.000    517.628      1.372    509.642    517.628    509.642
 46.370    508.000    518.003    -10.003    509.645    518.003    509.645
 46.470    517.000    518.423     -1.423    509.649    518.423    509.649
 46.570    505.000    518.895    -13.895    509.655    518.895    509.655
 46.670    521.000    519.432      1.568    509.662    519.432    509.662
 46.770    531.000    520.051     10.949    509.670    520.051    509.670
 46.870    519.000    520.790     -1.790    509.679    520.790    509.679
 46.970    511.000    521.733    -10.733    509.690    521.733    509.690
 47.070    497.000    523.082    -26.082    509.701    523.082    509.701
 47.170    496.000    525.276    -29.276    509.714    525.276    509.714
 47.270    545.000    529.173     15.827    509.728    529.173    509.728
 47.370    522.000    535.988    -13.988    509.743    535.988    509.743
 47.470    507.000    546.826    -39.826    509.760    546.826    509.760
 47.570    532.000    562.263    -30.263    509.777    562.263    509.777
 47.670    585.000    580.970      4.030    509.796    580.970    509.796
 47.770    652.000    599.069     52.931    509.815    599.069    509.815
 47.870    621.000    610.562     10.438    509.836    610.562    509.836
 47.970    582.000    610.628    -28.628    509.858    610.628    509.858
 48.070    615.000    599.933     15.067    509.881    599.933    509.881
 48.170    591.000    583.925      7.075    509.905    583.925    509.905
 48.270    564.000    568.351     -4.351    509.930    568.351    509.930
 48.370    544.000    556.649    -12.649    509.957    556.649    509.957
 48.470    550.000    549.816      0.184    509.984    549.816    509.984
 48.570    506.000    547.245    -41.245    510.013    547.245    510.013
 48.670    523.000    547.769    -24.769    510.042    547.769    510.042
 48.770    523.000    550.399    -27.399    510.073    550.399    510.073
 48.870    504.000    554.612    -50.612    510.105    554.612    510.105
 48.970    523.000    560.375    -37.375    510.137    560.375    510.137
 49.070    600.000    568.179     31.821    510.171    568.179    510.171
 49.170    542.000    579.357    -37.357    510.206    579.357    510.206
 49.270    629.000    596.863     32.137    510.242    596.863    510.242
 49.370    655.000    626.627     28.373    510.279    626.627    510.279
 49.470    701.000    679.102     21.898    510.316    679.102    510.316
 49.570    782.000    769.817     12.183    510.355    769.817    510.355
 49.670    875.000    916.940    -41.940    510.395    916.940    510.395
 49.770   1079.000   1134.247    -55.247    510.436   1134.247    510.436
 49.870   1434.000   1420.142     13.858    510.478   1420.142    510.478
 49.970   1835.000   1745.857     89.143    510.521   1745.857    510.521
 50.070   2257.000   2046.860    210.140    510.565   2046.860    510.565
 50.170   2461.000   2229.223    231.777    510.609   2229.223    510.609
 50.270   2515.000   2217.092    297.908    510.655   2217.092    510.655
 50.370   2300.000   2016.765    283.235    510.702   2016.765    510.702
 50.470   1850.000   1710.266    139.734    510.749   1710.266    510.749
 50.570   1454.000   1389.934     64.066    510.798   1389.934    510.798
 50.670   1061.000   1117.383    -56.383    510.847   1117.383    510.847
 50.770    912.000    919.517     -7.517    510.898    919.517    510.898
 50.870    710.000    796.016    -86.016    510.949    796.016    510.949
 50.970    657.000    729.793    -72.793    511.001    729.793    511.001
 51.070    625.000    697.201    -72.201    511.054    697.201    511.054
 51.170    614.000    676.633    -62.633    511.108    676.633    511.108
 51.270    544.000    654.961   -110.961    511.163    654.961    511.163
 51.370    584.000    629.509    -45.509    511.219    629.509    511.219
 51.470    549.000    604.062    -55.062    511.275    604.062    511.275
 51.570    562.000    583.156    -21.156    511.333    583.156    511.333
 51.670    624.000    568.808     55.192    511.391    568.808    511.391
 51.770    520.000    560.300    -40.300    511.450    560.300    511.450
 51.870    519.000    555.649    -36.649    511.510    555.649    511.510
 51.970    557.000    552.981      4.019    511.571    552.981    511.571
 52.070    577.000    551.220     25.780    511.632    551.220    511.632
 52.170    573.000    550.011     22.989    511.695    550.011    511.695
 52.270    606.000    549.387     56.613    511.758    549.387    511.758
 52.370    575.000    549.547     25.453    511.822    549.547    511.822
 52.470    592.000    550.879     41.121    511.887    550.879    511.887
 52.570    582.000    554.235     27.765    511.952    554.235    511.952
 52.670    584.000    561.489     22.511    512.018    561.489    512.018
 52.770    636.000    576.349     59.651    512.085    576.349    512.085
 52.870    621.000    605.021     15.979    512.153    605.021    512.153
 52.970    769.000    655.806    113.194    512.222    655.806    512.222
 53.070    794.000    736.530     57.470    512.291    736.530    512.291
 53.170    861.000    849.540     11.460    512.361    849.540    512.361
 53.270   1035.000    985.811     49.189    512.432    985.811    512.432
 53.370   1172.000   1121.207     50.793    512.503   1121.207    512.503
 53.470   1194.000   1218.518    -24.518    512.575   1218.518    512.575
 53.570   1169.000   1241.287    -72.287    512.648   1241.287    512.648
 53.670   1114.000   1179.197    -65.197    512.721   1179.197    512.721
 53.770    969.000   1058.159    -89.159    512.796   1058.159    512.796
 53.870    847.000    918.396    -71.396    512.870    918.396    512.870
 53.970    725.000    791.759    -66.759    512.946    791.759    512.946
 54.070    718.000    694.776     23.224    513.022    694.776    513.022
 54.170    677.000    630.178     46.822    513.099    630.178    513.099
 54.270    618.000    592.092     25.908    513.176    592.092    513.176
 54.370    612.000    571.863     40.137    513.254    571.863    513.254
 54.470    567.000    561.980      5.020    513.333    561.980    513.333
 54.570    576.000    557.468     18.532    513.412    557.468    513.412
 54.670    569.000    555.615     13.385    513.492    555.615    513.492
 54.770    542.000    555.155    -13.155    513.572    555.155    513.572
 54.870    598.000    555.570     42.430    513.653    555.570    513.653
 54.970    541.000    556.673    -15.673    513.735    556.673    513.735
 55.070    564.000    558.425      5.575    513.817    558.425    513.817
 55.170    585.000    560.837     24.163    513.900    560.837    513.900
 55.270    571.000    563.978      7.022    513.983    563.978    513.983
 55.370    590.000    567.977     22.023    514.067    567.977    514.067
 55.470    562.000    573.051    -11.051    514.151    573.051    514.151
 55.570    599.000    579.606     19.394    514.236    579.606    514.236
 55.670    585.000    588.464     -3.464    514.321    588.464    514.321
 55.770    566.000    601.333    -35.333    514.407    601.333    514.407
 55.870    564.000    621.634    -57.634    514.493    621.634    514.493
 55.970    620.000    655.699    -35.699    514.580    655.699    514.580
 56.070    675.000    713.963    -38.963    514.667    713.963    514.667
 56.170    745.000    811.232    -66.232    514.755    811.232    514.755
 56.270    896.000    964.635    -68.635    514.843    964.635    514.843
 56.370   1135.000   1188.207    -53.207    514.932   1188.207    514.932
 56.470   1455.000   1484.478    -29.478    515.021   1484.478    515.021
 56.570   1711.000   1835.409   -124.409    515.110   1835.409    515.110
 56.670   2149.000   2195.547    -46.547    515.200   2195.547    515.200
 56.770   2508.000   2490.592     17.408    515.290   2490.592    515.290
 56.870   2603.000   2633.229    -30.229    515.381   2633.229    515.381
 56.970   2575.000   2571.291      3.709    515.472   2571.291    515.472
 57.070   2344.000   2329.924     14.076    515.564   2329.924    515.564
 57.170   2090.000   1988.763    101.237    515.656   1988.763    515.656
 57.270   1714.000   1629.925     84.075    515.748   1629.925    515.748
 57.370   1326.000   1310.756     15.244    515.840   1310.756    515.840
 57.470   1018.000   1059.920    -41.920    515.933   1059.920    515.933
 57.570    847.000    882.459    -35.459    516.027    882.459    516.027
 57.670    803.000    768.387     34.613    516.120    768.387    516.120
 57.770    734.000    701.818     32.182    516.214    701.818    516.214
 57.870    681.000    667.824     13.176    516.308    667.824    516.308
 57.970    667.000    655.829     11.171    516.403    655.829    516.403
 58.070    679.000    660.041     18.959    516.498    660.041    516.498
 58.170    700.000    678.209     21.791    516.593    678.209    516.593
 58.270    761.000    709.867     51.133    516.688    709.867    516.688
 58.370    806.000    754.574     51.426    516.784    754.574    516.784
 58.470    925.000    810.477    114.523    516.880    810.477    516.880
 58.570   1093.000    873.165    219.835    516.976    873.165    516.976
 58.670   1222.000    935.677    286.323    517.072    935.677    517.072
 58.770   1274.000    990.938    283.062    517.169    990.938    517.169
 58.870   1431.000   1034.779    396.221    517.266   1034.779    517.266
 58.970   1455.000   1065.172    389.828    517.363   1065.172    517.363
 59.070   1547.000   1079.774    467.226    517.460   1079.774    517.460
 59.170   1457.000   1077.856    379.144    517.558   1077.856    517.558
 59.270   1405.000   1064.572    340.428    517.655   1064.572    517.655
 59.370   1377.000   1049.554    327.446    517.753   1049.554    517.753
 59.470   1266.000   1041.633    224.367    517.851   1041.633    517.851
 59.570   1144.000   1046.679     97.321    517.949   1046.679    517.949
 59.670   1154.000   1070.128     83.872    518.048   1070.128    518.048
 59.770   1183.000   1118.471     64.529    518.146   1118.471    518.146
 59.870   1279.000   1195.057     83.943    518.245   1195.057    518.245
 59.970   1329.000   1294.151     34.849    518.343   1294.151    518.343
 60.070   1404.000   1398.054      5.946    518.442   1398.054    518.442
 60.170   1498.000   1477.626     20.374    518.541   1477.626    518.541
 60.270   1603.000   1500.446    102.554    518.640   1500.446    518.640
 60.370   1555.000   1449.827    105.173    518.739   1449.827    518.739
 60.470   1474.000   1337.612    136.388    518.838   1337.612    518.838
 60.570   1271.000   1192.978     78.022    518.937   1192.978    518.937
 60.670   1132.000   1044.426     87.574    519.036   1044.426    519.036
 60.770    930.000    911.983     18.017    519.136    911.983    519.136
 60.870    796.000    806.436    -10.436    519.235    806.436    519.235
 60.970    738.000    730.862      7.138    519.334    730.862    519.334
 61.070    678.000    683.319     -5.319    519.434    683.319    519.434
 61.170    667.000    659.993      7.007    519.533    659.993    519.533
 61.270    595.000    657.861    -62.861    519.633    657.861    519.633
 61.370    652.000    676.153    -24.153    519.732    676.153    519.732
 61.470    669.000    716.351    -47.351    519.831    716.351    519.831
 61.570    726.000    780.819    -54.819    519.931    780.819    519.931
 61.670    889.000    870.546     18.454    520.030    870.546    520.030
 61.770    992.000    982.514      9.486    520.129    982.514    520.129
 61.870   1102.000   1107.502     -5.502    520.228   1107.502    520.228
 61.970   1228.000   1228.819     -0.819    520.328   1228.819    520.328
 62.070   1355.000   1322.806     32.194    520.427   1322.806    520.427
 62.170   1416.000   1364.399     51.601    520.526   1364.399    520.526
 62.270   1416.000   1340.065     75.935    520.625   1340.065    520.625
 62.370   1333.000   1257.565     75.435    520.723   1257.565    520.723
 62.470   1146.000   1139.798      6.202    520.822   1139.798    520.822
 62.570    965.000   1011.456    -46.456    520.921   1011.456    520.921
 62.670    928.000    891.353     36.647    521.019    891.353    521.019
 62.770    742.000    790.821    -48.821    521.117    790.821    521.117
 62.870    661.000    713.773    -52.773    521.216    713.773    521.216
 62.970    673.000    659.376     13.624    521.314    659.376    521.314
 63.070    639.000    623.636     15.364    521.411    623.636    521.411
 63.170    615.000    601.629     13.371    521.509    601.629    521.509
 63.270    613.000    588.952     24.048    521.607    588.952    521.607
 63.370    582.000    582.440     -0.440    521.704    582.440    521.704
 63.470    593.000    580.331     12.669    521.801    580.331    521.801
 63.570    598.000    582.168     15.832    521.898    582.168    521.898
 63.670    553.000    588.626    -35.626    521.995    588.626    521.995
 63.770    636.000    601.315     34.685    522.091    601.315    522.091
 63.870    586.000    622.458    -36.458    522.187    622.458    522.187
 63.970    647.000    654.361     -7.361    522.283    654.361    522.283
 64.070    682.000    698.510    -16.510    522.379    698.510    522.379
 64.170    778.000    754.660     23.340    522.474    754.660    522.474
 64.270    832.000    819.808     12.192    522.570    819.808    522.570
 64.370    885.000    887.624     -2.624    522.665    887.624    522.665
 64.470    968.000    948.496     19.504    522.759    948.496    522.759
 64.570   1028.000    991.390     36.610    522.853    991.390    522.853
 64.670    995.000   1008.028    -13.028    522.948   1008.028    522.948
 64.770   1074.000    996.783     77.217    523.041    996.783    523.041
 64.870    918.000    962.751    -44.751    523.135    962.751    523.135
 64.970    942.000    915.049     26.951    523.228    915.049    523.228
 65.070    896.000    863.343     32.657    523.320    863.343    523.320
 65.170    800.000    814.712    -14.712    523.413    814.712    523.413
 65.270    734.000    772.239    -38.239    523.505    772.239    523.505
 65.370    671.000    735.679    -64.679    523.596    735.679    523.596
 65.470    630.000    703.338    -73.338    523.688    703.338    523.688
 65.570    570.000    673.908   -103.908    523.779    673.908    523.779
 65.670    625.000    647.288    -22.288    523.869    647.288    523.869
 65.770    543.000    624.310    -81.310    523.959    624.310    523.959
 65.870    601.000    605.819     -4.819    524.049    605.819    524.049
 65.970    530.000    592.312    -62.312    524.138    592.312    524.138
 66.070    547.000    583.554    -36.554    524.227    583.554    524.227
 66.170    537.000    578.788    -41.788    524.315    578.788    524.315
 66.270    500.000    577.093    -77.093    524.403    577.093    524.403
 66.370    562.000    577.627    -15.627    524.491    577.627    524.491
 66.470    570.000    579.908     -9.908    524.578    579.908    524.578
 66.570    566.000    583.835    -17.835    524.664    583.835    524.664
 66.670    534.000    589.784    -55.784    524.751    589.784    524.751
 66.770    588.000    598.771    -10.771    524.836    598.771    524.836
 66.870    555.000    612.762    -57.762    524.921    612.762    524.921
 66.970    623.000    635.090    -12.090    525.006    635.090    525.006
 67.070    616.000    670.882    -54.882    525.090    670.882    525.090
 67.170    701.000    727.239    -26.239    525.174    727.239    525.174
 67.270    792.000    812.809    -20.809    525.257    812.809    525.257
 67.370    891.000    936.408    -45.408    525.339    936.408    525.339
 67.470   1090.000   1104.575    -14.575    525.421   1104.575    525.421
 67.570   1289.000   1318.342    -29.342    525.503   1318.342    525.503
 67.670   1523.000   1569.970    -46.970    525.584   1569.970    525.584
 67.770   1757.000   1840.513    -83.513    525.664   1840.513    525.664
 67.870   2120.000   2098.914     21.086    525.744   2098.914    525.744
 67.970   2279.000   2304.591    -25.591    525.823   2304.591    525.823
 68.070   2457.000   2413.411     43.589    525.901   2413.411    525.901
 68.170   2414.000   2398.908     15.092    525.979   2398.908    525.979
 68.270   2331.000   2265.100     65.900    526.057   2265.100    526.057
 68.370   2097.000   2044.460     52.540    526.133   2044.460    526.133
 68.470   1830.000   1780.490     49.510    526.209   1780.490    526.209
 68.570   1491.000   1512.426    -21.426    526.285   1512.426    526.285
 68.670   1278.000   1268.678      9.322    526.360   1268.678    526.360
 68.770    968.000   1065.315    -97.315    526.434   1065.315    526.434
 68.870    880.000    907.922    -27.922    526.507    907.922    526.507
 68.970    791.000    793.928     -2.928    526.580    793.928    526.580
 69.070    689.000    716.032    -27.032    526.652    716.032    526.652
 69.170    693.000    665.296     27.704    526.724    665.296    526.724
 69.270    641.000    633.356      7.644    526.795    633.356    526.795
 69.370    571.000    613.547    -42.547    526.865    613.547    526.865
 69.470    611.000    601.164      9.836    526.934    601.164    526.934
 69.570    571.000    593.191    -22.191    527.003    593.191    527.003
 69.670    570.000    587.842    -17.842    527.071    587.842    527.071
 69.770    549.000    584.131    -35.131    527.138    584.131    527.138
 69.870    603.000    581.534     21.466    527.205    581.534    527.205
 69.970    574.000    579.788     -5.788    527.271    579.788    527.271
 70.070    594.000    578.763     15.237    527.336    578.763    527.336
 70.170    589.000    578.347     10.653    527.400    578.347    527.400
 70.270    583.000    578.709      4.291    527.464    578.709    527.464
 70.370    562.000    579.893    -17.893    527.526    579.893    527.526
 70.470    578.000    582.163     -4.163    527.588    582.163    527.588
 70.570    590.000    586.032      3.968    527.650    586.032    527.650
 70.670    606.000    592.433     13.567    527.710    592.433    527.710
 70.770    582.000    602.937    -20.937    527.770    602.937    527.770
 70.870    577.000    619.835    -42.835    527.829    619.835    527.829
 70.970    615.000    647.019    -32.019    527.887    647.019    527.887
 71.070    630.000    688.943    -58.943    527.944    688.943    527.944
 71.170    724.000    750.928    -26.928    528.000    750.928    528.000
 71.270    829.000    838.087     -9.087    528.056    838.087    528.056
 71.370    962.000    953.888      8.112    528.110    953.888    528.110
 71.470   1111.000   1098.388     12.612    528.164   1098.388    528.164
 71.570   1227.000   1266.524    -39.524    528.217   1266.524    528.217
 71.670   1467.000   1446.904     20.096    528.269   1446.904    528.269
 71.770   1640.000   1621.455     18.545    528.321   1621.455    528.321
 71.870   1871.000   1766.442    104.558    528.371   1766.442    528.371
 71.970   1864.000   1856.313      7.687    528.420   1856.313    528.420
 72.070   1969.000   1871.773     97.227    528.469   1871.773    528.469
 72.170   1887.000   1809.030     77.970    528.517   1809.030    528.517
 72.270   1720.000   1682.058     37.942    528.564   1682.058    528.564
 72.370   1655.000   1515.252    139.748    528.609   1515.252    528.609
 72.470   1487.000   1333.867    153.133    528.654   1333.867    528.654
 72.570   1308.000   1158.459    149.541    528.699   1158.459    528.699
 72.670   1177.000   1003.046    173.954    528.742   1003.046    528.742
 72.770   1061.000    875.056    185.944    528.784    875.056    528.784
 72.870    875.000    776.239     98.761    528.825    776.239    528.825
 72.970    848.000    704.226    143.774    528.866    704.226    528.866
 73.070    791.000    654.332    136.668    528.905    654.332    528.905
 73.170    709.000    621.181     87.819    528.943    621.181    528.943
 73.270    707.000    599.754    107.246    528.981    599.754    528.981
 73.370    666.000    586.086     79.914    529.017    586.086    529.017
 73.470    636.000    577.318     58.682    529.053    577.318    529.053
 73.570    582.000    571.587     10.413    529.087    571.587    529.087
 73.670    603.000    567.764     35.236    529.121    567.764    529.121
 73.770    588.000    565.240     22.760    529.153    565.240    529.153
 73.870    573.000    563.682      9.318    529.185    563.682    529.185
 73.970    575.000    562.908     12.092    529.215    562.908    529.215
 74.070    582.000    562.788     19.212    529.245    562.788    529.245
 74.170    601.000    563.183     37.817    529.273    563.183    529.273
 74.270    643.000    563.908     79.092    529.301    563.908    529.301
 74.370    586.000    564.726     21.274    529.327    564.726    529.327
 74.470    658.000    565.359     92.641    529.353    565.359    529.353
 74.570    657.000    565.525     91.475    529.377    565.525    529.377
 74.670    589.000    565.027     23.973    529.401    565.027    529.401
 74.770    643.000    563.834     79.166    529.423    563.834    529.423
 74.870    654.000    562.109     91.891    529.444    562.109    529.444
 74.970    591.000    560.145     30.855    529.464    560.145    529.464
 75.070    616.000    558.291     57.709    529.483    558.291    529.483
 75.170    578.000    556.912     21.088    529.501    556.912    529.501
 75.270    551.000    556.392     -5.392    529.518    556.392    529.518
 75.370    574.000    557.151     16.849    529.534    557.151    529.534
 75.470    576.000    559.665     16.335    529.549    559.665    529.549
 75.570    532.000    564.464    -32.464    529.563    564.464    529.563
 75.670    608.000    572.095     35.905    529.575    572.095    529.575
 75.770    591.000    583.037      7.963    529.587    583.037    529.587
 75.870    595.000    597.558     -2.558    529.597    597.558    529.597
 75.970    625.000    615.549      9.451    529.606    615.549    529.606
 76.070    664.000    636.369     27.631    529.614    636.369    529.614
 76.170    655.000    658.734     -3.734    529.622    658.734    529.622
 76.270    692.000    680.695     11.305    529.627    680.695    529.627
 76.370    684.000    699.716    -15.716    529.632    699.716    529.632
 76.470    638.000    712.978    -74.978    529.636    712.978    529.636
 76.570    657.000    718.057    -61.057    529.638    718.057    529.638
 76.670    694.000    713.883    -19.883    529.640    713.883    529.640
 76.770    665.000    701.263    -36.263    529.640    701.263    529.640
 76.870    656.000    682.520    -26.520    529.639    682.520    529.639
 76.970    644.000    660.436    -16.436    529.637    660.436    529.637
 77.070    636.000    637.594     -1.594    529.634    637.594    529.634
 77.170    600.000    616.032    -16.032    529.629    616.032    529.629
 77.270    566.000    597.075    -31.075    529.624    597.075    529.624
 77.370    483.000    581.427    -98.427    529.617    581.427    529.617
 77.470    531.000    569.218    -38.218    529.609    569.218    529.609
 77.570    573.000    560.162     12.838    529.600    560.162    529.600
 77.670    518.000    553.742    -35.742    529.589    553.742    529.589
 77.770    544.000    549.361     -5.361    529.578    549.361    529.578
 77.870    512.000    546.457    -34.457    529.565    546.457    529.565
 77.970    529.000    544.564    -15.564    529.551    544.564    529.551
 78.070    538.000    543.332     -5.332    529.536    543.332    529.536
 78.170    516.000    542.520    -26.520    529.520    542.520    529.520
 78.270    533.000    541.976     -8.976    529.502    541.976    529.502
 78.370    539.000    541.394     -2.394    529.484    541.394    529.484
 78.470    544.000    541.146      2.854    529.464    541.146    529.464
 78.570    508.000    540.997    -32.997    529.443    540.997    529.443
 78.670    475.000    540.946    -65.946    529.420    540.946    529.420
 78.770    543.000    541.006      1.994    529.397    541.006    529.397
 78.870    504.000    541.206    -37.206    529.372    541.206    529.372
 78.970    524.000    541.590    -17.590    529.346    541.590    529.346
 79.070    506.000    542.216    -36.216    529.319    542.216    529.319
 79.170    517.000    543.154    -26.154    529.290    543.154    529.290
 79.270    523.000    544.478    -21.478    529.260    544.478    529.260
 79.370    543.000    546.254     -3.254    529.230    546.254    529.230
 79.470    523.000    548.533    -25.533    529.197    548.533    529.197
 79.570    533.000    551.341    -18.341    529.164    551.341    529.164
 79.670    513.000    554.681    -41.681    529.129    554.681    529.129
 79.770    502.000    558.543    -56.543    529.093    558.543    529.093
 79.870    538.000    562.922    -24.922    529.056    562.922    529.056
 79.970    531.000    567.843    -36.843    529.018    567.843    529.018
 80.070    554.000    573.408    -19.408    528.978    573.408    528.978
 80.170    538.000    579.830    -41.830    528.937    579.830    528.937
 80.270    597.000    587.444      9.556    528.895    587.444    528.895
 80.370    626.000    596.631     29.369    528.851    596.631    528.851
 80.470    587.000    607.711    -20.711    528.806    607.711    528.806
 80.570    578.000    620.834    -42.834    528.760    620.834    528.760
 80.670    600.000    635.890    -35.890    528.713    635.890    528.713
 80.770    674.000    652.461     21.539    528.665    652.461    528.665
 80.870    657.000    669.831    -12.831    528.615    669.831    528.615
 80.970    687.000    687.084     -0.084    528.564    687.084    528.564
 81.070    733.000    703.254     29.746    528.511    703.254    528.511
 81.170    778.000    717.436     60.564    528.458    717.436    528.458
 81.270    701.000    728.835    -27.835    528.403    728.835    528.403
 81.370    754.000    736.802     17.198    528.346    736.802    528.346
 81.470    741.000    740.964      0.036    528.289    740.964    528.289
 81.570    734.000    741.081     -7.081    528.230    741.081    528.230
 81.670    749.000    737.091     11.909    528.170    737.091    528.170
 81.770    713.000    729.193    -16.193    528.109    729.193    528.109
 81.870    692.000    717.970    -25.970    528.046    717.970    528.046
 81.970    702.000    704.289     -2.289    527.982    704.289    527.982
 82.070    716.000    689.174     26.826    527.917    689.174    527.917
 82.170    682.000    673.367      8.633    527.851    673.367    527.851
 82.270    677.000    657.399     19.601    527.783    657.399    527.783
 82.370    589.000    641.652    -52.652    527.714    641.652    527.714
 82.470    635.000    626.503      8.497    527.643    626.503    527.643
 82.570    583.000    612.365    -29.365    527.572    612.365    527.572
 82.670    589.000    599.634    -10.634    527.499    599.634    527.499
 82.770    590.000    588.620      1.380    527.425    588.620    527.425
 82.870    558.000    579.511    -21.511    527.349    579.511    527.349
 82.970    582.000    572.389      9.611    527.272    572.389    527.272
 83.070    556.000    567.244    -11.244    527.194    567.244    527.194
 83.170    498.000    563.985    -65.985    527.115    563.985    527.115
 83.270    553.000    562.445     -9.445    527.034    562.445    527.034
 83.370    540.000    562.292    -22.292    526.952    562.292    526.952
 83.470    542.000    563.391    -21.391    526.869    563.391    526.869
 83.570    562.000    565.275     -3.275    526.784    565.275    526.784
 83.670    600.000    567.514     32.486    526.699    567.514    526.699
 83.770    557.000    569.645    -12.645    526.612    569.645    526.612
 83.870    615.000    571.206     43.794    526.523    571.206    526.523
 83.970    577.000    571.806      5.194    526.434    571.806    526.434
 84.070    557.000    571.208    -14.208    526.343    571.208    526.343
 84.170    588.000    569.397     18.603    526.250    569.397    526.250
 84.270    560.000    566.559     -6.559    526.157    566.559    526.157
 84.370    575.000    563.006     11.994    526.062    563.006    526.062
 84.470    544.000    559.082    -15.082    525.966    559.082    525.966
 84.570    564.000    555.100      8.900    525.869    555.100    525.869
 84.670    556.000    551.312      4.688    525.770    551.312    525.770
 84.770    558.000    547.902     10.098    525.670    547.902    525.670
 84.870    593.000    544.984     48.016    525.569    544.984    525.569
 84.970    542.000    542.609     -0.609    525.466    542.609    525.466
 85.070    533.000    540.776     -7.776    525.363    540.776    525.363
 85.170    536.000    539.454     -3.454    525.258    539.454    525.258
 85.270    499.000    538.590    -39.590    525.151    538.590    525.151
 85.370    476.000    538.130    -62.130    525.044    538.130    525.044
 85.470    521.000    538.028    -17.028    524.935    538.028    524.935
 85.570    508.000    538.175    -30.175    524.825    538.175    524.825
 85.670    512.000    538.726    -26.726    524.714    538.726    524.714
 85.770    515.000    539.623    -24.623    524.601    539.623    524.601
 85.870    530.000    540.925    -10.925    524.487    540.925    524.487
 85.970    543.000    542.728      0.272    524.372    542.728    524.372
 86.070    541.000    545.174     -4.174    524.256    545.174    524.256
 86.170    536.000    548.435    -12.435    524.138    548.435    524.138
 86.270    557.000    552.727      4.273    524.019    552.727    524.019
 86.370    511.000    558.288    -47.288    523.899    558.288    523.899
 86.470    573.000    565.347      7.653    523.778    565.347    523.778
 86.570    575.000    574.088      0.912    523.655    574.088    523.655
 86.670    612.000    584.590     27.410    523.532    584.590    523.532
 86.770    568.000    596.764    -28.764    523.407    596.764    523.407
 86.870    623.000    610.268     12.732    523.280    610.268    523.280
 86.970    613.000    624.606    -11.606    523.153    624.606    523.153
 87.070    617.000    638.936    -21.936    523.024    638.936    523.024
 87.170    651.000    652.225     -1.225    522.894    652.225    522.894
 87.270    636.000    663.295    -27.295    522.763    663.295    522.763
 87.370    650.000    670.979    -20.979    522.631    670.979    522.631
 87.470    632.000    674.377    -42.377    522.497    674.377    522.497
 87.570    655.000    673.107    -18.107    522.363    673.107    522.363
 87.670    685.000    667.413     17.587    522.227    667.413    522.227
 87.770    639.000    658.048    -19.048    522.090    658.048    522.090
 87.870    625.000    646.049    -21.049    521.951    646.049    521.951
 87.970    618.000    632.548    -14.548    521.812    632.548    521.812
 88.070    603.000    618.649    -15.649    521.671    618.649    521.671
 88.170    602.000    605.333     -3.333    521.529    605.333    521.529
 88.270    560.000    593.388    -33.388    521.386    593.388    521.386
 88.370    600.000    583.367     16.633    521.242    583.367    521.242
 88.470    581.000    575.554      5.446    521.097    575.554    521.097
 88.570    590.000    570.056     19.944    520.950    570.056    520.950
 88.670    559.000    566.725     -7.725    520.803    566.725    520.803
 88.770    575.000    565.278      9.722    520.654    565.278    520.654
 88.870    558.000    565.321     -7.321    520.504    565.321    520.504
 88.970    576.000    566.387      9.613    520.353    566.387    520.353
 89.070    620.000    567.976     52.024    520.201    567.976    520.201
 89.170    567.000    569.586     -2.586    520.047    569.586    520.047
 89.270    575.000    570.753      4.247    519.893    570.753    519.893
 89.370    628.000    571.106     56.894    519.737    571.106    519.737
 89.470    569.000    570.428     -1.428    519.581    570.428    519.581
 89.570    548.000    568.688    -20.688    519.423    568.688    519.423
 89.670    581.000    566.023     14.977    519.264    566.023    519.264
 89.770    560.000    562.674     -2.674    519.104    562.674    519.104
 89.870    537.000    558.922    -21.922    518.943    558.922    518.943
 89.970    530.000    555.037    -25.037    518.781    555.037    518.781
 90.070    578.000    551.249     26.751    518.618    551.249    518.618
 90.170    536.000    547.738    -11.738    518.453    547.738    518.453
 90.270    579.000    544.630     34.370    518.288    544.630    518.288
 90.370    553.000    541.994     11.006    518.122    541.994    518.122
 90.470    521.000    539.856    -18.856    517.954    539.856    517.954
 90.570    537.000    538.203     -1.203    517.786    538.203    517.786
 90.670    535.000    537.000     -2.000    517.616    537.000    517.616
 90.770    527.000    536.197     -9.197    517.446    536.197    517.446
 90.870    525.000    535.746    -10.746    517.274    535.746    517.274
 90.970    509.000    535.607    -26.607    517.102    535.607    517.102
 91.070    552.000    535.760     16.240    516.928    535.760    516.928
 91.170    541.000    536.207      4.793    516.754    536.207    516.754
 91.270    492.000    536.976    -44.976    516.578    536.976    516.578
 91.370    538.000    538.133     -0.133    516.402    538.133    516.402
 91.470    509.000    539.773    -30.773    516.225    539.773    516.225
 91.570    516.000    542.031    -26.031    516.046    542.031    516.046
 91.670    578.000    545.075     32.925    515.867    545.075    515.867
 91.770    536.000    549.103    -13.103    515.687    549.103    515.687
 91.870    510.000    554.331    -44.331    515.505    554.331    515.505
 91.970    556.000    560.982     -4.982    515.323    560.982    515.323
 92.070    564.000    569.265     -5.265    515.140    569.265    515.140
 92.170    555.000    579.355    -24.355    514.956    579.355    514.956
 92.270    571.000    591.179    -20.179    514.771    591.179    514.771
 92.370    585.000    605.149    -20.149    514.586    605.149    514.586
 92.470    653.000    621.014     31.986    514.399    621.014    514.399
 92.570    658.000    638.592     19.408    514.211    638.592    514.211
 92.670    703.000    657.578     45.422    514.023    657.578    514.023
 92.770    662.000    677.531    -15.531    513.834    677.531    513.834
 92.870    728.000    697.893     30.107    513.644    697.893    513.644
 92.970    724.000    718.040      5.960    513.453    718.040    513.453
 93.070    764.000    737.389     26.611    513.261    737.389    513.261
 93.170    770.000    755.522     14.478    513.068    755.522    513.068
 93.270    812.000    772.262     39.738    512.875    772.262    512.875
 93.370    786.000    787.649     -1.649    512.681    787.649    512.681
 93.470    813.000    801.822     11.178    512.486    801.822    512.486
 93.570    857.000    814.899     42.101    512.290    814.899    512.290
 93.670    849.000    826.912     22.088    512.093    826.912    512.093
 93.770    792.000    837.845    -45.845    511.896    837.845    511.896
 93.870    811.000    847.727    -36.727    511.698    847.727    511.698
 93.970    772.000    856.738    -84.738    511.499    856.738    511.499
 94.070    810.000    865.194    -55.194    511.300    865.194    511.300
 94.170    824.000    873.419    -49.419    511.100    873.419    511.100
 94.270    876.000    881.550     -5.550    510.899    881.550    510.899
 94.370    925.000    889.384     35.616    510.697    889.384    510.697
 94.470    932.000    896.310     35.690    510.495    896.310    510.495
 94.570    893.000    901.333     -8.333    510.292    901.333    510.292
 94.670    898.000    903.203     -5.203    510.089    903.203    510.089
 94.770    928.000    900.659     27.341    509.884    900.659    509.884
 94.870    973.000    892.760     80.240    509.680    892.760    509.680
 94.970    911.000    879.196     31.804    509.474    879.196    509.474
 95.070    902.000    860.412     41.588    509.268    860.412    509.268
 95.170    841.000    837.507      3.493    509.061    837.507    509.061
 95.270    860.000    811.995     48.005    508.854    811.995    508.854
 95.370    793.000    785.561      7.439    508.646    785.561    508.646
 95.470    821.000    759.905     61.095    508.438    759.905    508.438
 95.570    804.000    736.650     67.350    508.229    736.650    508.229
 95.670    732.000    717.308     14.692    508.019    717.308    508.019
 95.770    696.000    703.264     -7.264    507.809    703.264    507.809
 95.870    646.000    695.772    -49.772    507.599    695.772    507.599
 95.970    713.000    695.955     17.045    507.388    695.955    507.388
 96.070    725.000    704.799     20.201    507.176    704.799    507.176
 96.170    719.000    723.131     -4.131    506.964    723.131    506.964
 96.270    749.000    751.577     -2.577    506.752    751.577    506.752
 96.370    769.000    790.492    -21.492    506.539    790.492    506.539
 96.470    851.000    839.863     11.137    506.326    839.863    506.326
 96.570    839.000    899.201    -60.201    506.112    899.201    506.112
 96.670    990.000    967.429     22.571    505.898    967.429    505.898
 96.770    964.000   1042.794    -78.794    505.684   1042.794    505.684
 96.870   1076.000   1122.683    -46.683    505.469   1122.683    505.469
 96.970   1135.000   1204.148    -69.148    505.254   1204.148    505.254
 97.070   1251.000   1283.166    -32.166    505.038   1283.166    505.038
 97.170   1298.000   1355.310    -57.310    504.822   1355.310    504.822
 97.270   1323.000   1415.896    -92.896    504.606   1415.896    504.606
 97.370   1440.000   1460.480    -20.480    504.390   1460.480    504.390
 97.470   1455.000   1485.552    -30.552    504.173   1485.552    504.173
 97.570   1416.000   1489.242    -73.242    503.956   1489.242    503.956
 97.670   1465.000   1471.729     -6.729    503.739   1471.729    503.739
 97.770   1401.000   1435.114    -34.114    503.521   1435.114    503.521
 97.870   1311.000   1382.886    -71.886    503.304   1382.886    503.304
 97.970   1308.000   1319.255    -11.255    503.086   1319.255    503.086
 98.070   1248.000   1248.610     -0.610    502.868   1248.610    502.868
 98.170   1159.000   1175.157    -16.157    502.649   1175.157    502.649
 98.270   1129.000   1102.696     26.304    502.431   1102.696    502.431
 98.370   1001.000   1034.499    -33.499    502.212   1034.499    502.212
 98.470    936.000    973.268    -37.268    501.994    973.268    501.994
 98.570    870.000    921.142    -51.142    501.775    921.142    501.775
 98.670    880.000    879.760      0.240    501.556    879.760    501.556
 98.770    821.000    850.335    -29.335    501.337    850.335    501.337
 98.870    852.000    833.732     18.268    501.118    833.732    501.118
 98.970    810.000    830.540    -20.540    500.899    830.540    500.899
 99.070    799.000    841.116    -42.116    500.680    841.116    500.680
 99.170    816.000    865.615    -49.615    500.461    865.615    500.461
 99.270    849.000    903.974    -54.974    500.242    903.974    500.242
 99.370    910.000    955.878    -45.878    500.023    955.878    500.023
 99.470    966.000   1020.705    -54.705    499.804   1020.705    499.804
 99.570   1103.000   1097.447      5.553    499.585   1097.447    499.585
 99.670   1157.000   1184.633    -27.633    499.366   1184.633    499.366
 99.770   1288.000   1280.238      7.762    499.147   1280.238    499.147
 99.870   1345.000   1381.620    -36.620    498.929   1381.620    498.929
 99.970   1557.000   1485.503     71.497    498.710   1485.503    498.710
100.070   1592.000   1588.069      3.931    498.492   1588.069    498.492
100.170   1770.000   1685.212     84.788    498.274   1685.212    498.274
100.270   2014.000   1772.924    241.076    498.056   1772.924    498.056
100.370   1903.000   1847.733     55.267    497.838   1847.733    497.838
100.470   2007.000   1906.937    100.063    497.621   1906.937    497.621
100.570   1995.000   1948.607     46.393    497.404   1948.607    497.404
100.670   2005.000   1971.386     33.614    497.187   1971.386    497.187
100.770   2076.000   1974.353    101.647    496.970   1974.353    496.970
100.870   2092.000   1957.114    134.886    496.754   1957.114    496.754
100.970   1993.000   1920.135     72.865    496.538   1920.135    496.538
101.070   1955.000   1865.119     89.881    496.322   1865.119    496.322
101.170   1918.000   1795.146    122.854    496.107   1795.146    496.107
101.270   1815.000   1714.422    100.578    495.892   1714.422    495.892
101.370   1750.000   1627.727    122.273    495.677   1627.727    495.677
101.470   1578.000   1539.807     38.193    495.463   1539.807    495.463
101.570   1514.000   1454.896     59.104    495.250   1454.896    495.250
101.670   1414.000   1376.410     37.590    495.036   1376.410    495.036
101.770   1359.000   1306.788     52.212    494.824   1306.788    494.824
101.870   1297.000   1247.441     49.559    494.612   1247.441    494.612
101.970   1302.000   1198.756    103.244    494.400   1198.756    494.400
102.070   1203.000   1160.170     42.830    494.189   1160.170    494.189
102.170   1141.000   1130.289     10.711    493.979   1130.289    493.979
102.270   1164.000   1107.039     56.961    493.769   1107.039    493.769
102.370   1145.000   1087.972     57.028    493.560   1087.972    493.560
102.470   1147.000   1070.455     76.545    493.351   1070.455    493.351
102.570   1071.000   1052.072     18.928    493.143   1052.072    493.143
102.670   1020.000   1030.935    -10.935    492.936   1030.935    492.936
102.770    977.000   1005.911    -28.911    492.729   1005.911    492.729
102.870   1049.000    976.669     72.331    492.524    976.669    492.524
102.970    977.000    943.571     33.429    492.319    943.571    492.319
103.070    909.000    907.455      1.545    492.114    907.455    492.114
103.170    897.000    869.414     27.586    491.911    869.414    491.911
103.270    808.000    830.622    -22.622    491.708    830.622    491.708
103.370    779.000    792.211    -13.211    491.507    792.211    491.507
103.470    813.000    755.196     57.804    491.306    755.196    491.306
103.570    726.000    720.417      5.583    491.106    720.417    491.106
103.670    735.000    688.513     46.487    490.907    688.513    490.907
103.770    740.000    659.907     80.093    490.709    659.907    490.709
103.870    629.000    634.813     -5.813    490.512    634.813    490.512
103.970    660.000    613.253     46.747    490.315    613.253    490.315
104.070    582.000    595.093    -13.093    490.120    595.093    490.120
104.170    566.000    580.085    -14.085    489.926    580.085    489.926
104.270    556.000    567.902    -11.902    489.733    567.902    489.733
104.370    535.000    558.185    -23.185    489.541    558.185    489.541
104.470    569.000    550.569     18.431    489.351    550.569    489.351
104.570    571.000    544.712     26.288    489.161    544.712    489.161
104.670    550.000    540.309      9.691    488.972    540.309    488.972
104.770    594.000    537.108     56.892    488.785    537.108    488.785
104.870    622.000    534.907     87.093    488.599    534.907    488.599
104.970    580.000    533.561     46.439    488.414    533.561    488.414
105.070    535.000    532.975      2.025    488.231    532.975    488.231
105.170    536.000    533.099      2.901    488.049    533.099    488.049
105.270    502.000    533.926    -31.926    487.868    533.926    487.868
105.370    551.000    535.477     15.523    487.688    535.477    487.688
105.470    555.000    537.802     17.198    487.510    537.802    487.510
105.570    545.000    540.964      4.036    487.333    540.964    487.333
105.670    591.000    545.033     45.967    487.158    545.033    487.158
105.770    527.000    550.076    -23.076    486.984    550.076    486.984
105.870    593.000    556.145     36.855    486.811    556.145    486.811
105.970    568.000    563.262      4.738    486.640    563.262    486.640
106.070    539.000    571.418    -32.418    486.471    571.418    486.471
106.170    572.000    580.553     -8.553    486.303    580.553    486.303
106.270    587.000    590.560     -3.560    486.137    590.560    486.137
106.370    638.000    601.273     36.727    485.972    601.273    485.972
106.470    616.000    612.474      3.526    485.810    612.474    485.810
106.570    615.000    623.892     -8.892    485.648    623.892    485.648
106.670    569.000    635.214    -66.214    485.489    635.214    485.489
106.770    637.000    646.095     -9.095    485.331    646.095    485.331
106.870    619.000    656.176    -37.176    485.175    656.176    485.175
106.970    688.000    665.117     22.883    485.021    665.117    485.021
107.070    670.000    672.633     -2.633    484.868    672.633    484.868
107.170    671.000    678.545     -7.545    484.718    678.545    484.718
107.270    726.000    682.822     43.178    484.569    682.822    484.569
107.370    661.000    685.604    -24.604    484.422    685.604    484.422
107.470    686.000    687.191     -1.191    484.277    687.191    484.277
107.570    703.000    687.998     15.002    484.135    687.998    484.135
107.670    723.000    688.495     34.505    483.994    688.495    483.994
107.770    664.000    689.140    -25.140    483.855    689.140    483.855
107.870    699.000    690.328      8.672    483.718    690.328    483.718
107.970    703.000    692.348     10.652    483.583    692.348    483.583
108.070    642.000    695.366    -53.366    483.451    695.366    483.451
108.170    646.000    699.402    -53.402    483.320    699.402    483.320
108.270    685.000    704.332    -19.332    483.192    704.332    483.192
108.370    603.000    709.891   -106.891    483.066    709.891    483.066
108.470    643.000    715.678    -72.678    482.943    715.678    482.943
108.570    688.000    721.221    -33.221    482.821    721.221    482.821
108.670    737.000    725.948     11.052    482.702    725.948    482.702
108.770    676.000    729.282    -53.282    482.585    729.282    482.585
108.870    735.000    730.689      4.311    482.471    730.689    482.471
108.970    683.000    729.747    -46.747    482.359    729.747    482.359
109.070    715.000    726.209    -11.209    482.249    726.209    482.249
109.170    640.000    720.033    -80.033    482.142    720.033    482.142
109.270    653.000    711.384    -58.384    482.037    711.384    482.037
109.370    648.000    700.597    -52.597    481.935    700.597    481.935
109.470    644.000    688.117    -44.117    481.836    688.117    481.836
109.570    633.000    674.449    -41.449    481.739    674.449    481.739
109.670    616.000    660.116    -44.116    481.645    660.116    481.645
109.770    642.000    645.613     -3.613    481.553    645.613    481.553
109.870    639.000    631.391      7.609    481.464    631.391    481.464
109.970    662.000    617.837     44.163    481.378    617.837    481.378
110.070    584.000    605.266    -21.266    481.295    605.266    481.295
110.170    622.000    593.907     28.093    481.214    593.907    481.214
110.270    588.000    583.922      4.078    481.137    583.922    481.137
110.370    559.000    575.385    -16.385    481.062    575.385    481.062
110.470    569.000    568.308      0.692    480.990    568.308    480.990
110.570    523.000    562.645    -39.645    480.921    562.645    480.921
110.670    525.000    558.309    -33.309    480.855    558.309    480.855
110.770    533.000    555.180    -22.180    480.792    555.180    480.792
110.870    568.000    553.113     14.887    480.732    553.113    480.732
110.970    579.000    551.985     27.015    480.676    551.985    480.676
111.070    575.000    551.642     23.358    480.622    551.642    480.622
111.170    570.000    551.947     18.053    480.571    551.947    480.571
111.270    536.000    552.777    -16.777    480.524    552.777    480.524
111.370    530.000    554.020    -24.020    480.480    554.020    480.480
111.470    560.000    555.580      4.420    480.439    555.580    480.439
111.570    497.000    557.377    -60.377    480.402    557.377    480.402
111.670    508.000    559.347    -51.347    480.368    559.347    480.368
111.770    537.000    561.443    -24.443    480.337    561.443    480.337
111.870    545.000    563.634    -18.634    480.310    563.634    480.310
111.970    615.000    565.910     49.090    480.286    565.910    480.286
112.070    569.000    568.273      0.727    480.265    568.273    480.265
112.170    606.000    570.741     35.259    480.248    570.741    480.248
112.270    538.000    573.358    -35.358    480.235    573.358    480.235
112.370    511.000    576.164    -65.164    480.226    576.164    480.226
112.470    565.000    579.219    -14.219    480.219    579.219    480.219
112.570    565.000    582.594    -17.594    480.217    582.594    480.217
112.670    585.000    586.374     -1.374    480.219    586.374    480.219
112.770    618.000    590.665     27.335    480.224    590.665    480.224
112.870    590.000    595.600     -5.600    480.233    595.600    480.233
112.970    616.000    601.344     14.656    480.246    601.344    480.246
113.070    678.000    608.111     69.889    480.262    608.111    480.262
113.170    675.000    616.175     58.825    480.283    616.175    480.283
113.270    700.000    625.884     74.116    480.307    625.884    480.307
113.370    692.000    637.685     54.315    480.336    637.685    480.336
113.470    744.000    652.145     91.855    480.369    652.145    480.369
113.570    749.000    669.971     79.029    480.405    669.971    480.405
113.670    818.000    692.040    125.960    480.446    692.040    480.446
113.770    843.000    719.422    123.578    480.491    719.422    480.491
113.870    875.000    753.399    121.601    480.540    753.399    480.540
113.970    906.000    795.483    110.517    480.594    795.483    480.594
114.070   1048.000    847.423    200.577    480.652    847.423    480.652
114.170   1070.000    911.201    158.799    480.714    911.201    480.714
114.270   1112.000    989.004    122.996    480.780    989.004    480.780
114.370   1141.000   1083.195     57.805    480.851   1083.195    480.851
114.470   1322.000   1196.232    125.768    480.926   1196.232    480.926
114.570   1455.000   1330.609    124.391    481.006   1330.609    481.006
114.670   1511.000   1488.709     22.291    481.091   1488.709    481.091
114.770   1722.000   1672.694     49.306    481.180   1672.694    481.180
114.870   1906.000   1884.338     21.662    481.273   1884.338    481.273
114.970   2195.000   2124.866     70.134    481.371   2124.866    481.371
115.070   2382.000   2394.776    -12.776    481.474   2394.776    481.474
115.170   2611.000   2693.674    -82.674    481.582   2693.674    481.582
115.270   2935.000   3020.123    -85.123    481.695   3020.123    481.695
115.370   3145.000   3371.513   -226.513    481.812   3371.513    481.812
115.470   3473.000   3743.977   -270.977    481.934   3743.977    481.934
115.570   3790.000   4132.325   -342.325    482.061   4132.325    482.061
115.670   4206.000   4530.092   -324.092    482.194   4530.092    482.194
115.770   4471.000   4929.507   -458.507    482.331   4929.507    482.331
115.870   4822.000   5321.640   -499.640    482.473   5321.640    482.473
115.970   5190.000   5696.547   -506.547    482.620   5696.547    482.620
116.070   5551.000   6043.517   -492.517    482.773   6043.517    482.773
116.170   6186.000   6351.444   -165.444    482.931   6351.444    482.931
116.270   6204.000   6609.369   -405.369    483.094   6609.369    483.094
116.370   6623.000   6807.208   -184.208    483.262   6807.208    483.262
116.470   6784.000   6936.640   -152.640    483.436   6936.640    483.436
116.570   6880.000   6991.998   -111.998    483.614   6991.998    483.614
116.670   6866.000   6970.977   -104.977    483.799   6970.977    483.799
116.770   6984.000   6874.941    109.059    483.989   6874.941    483.989
116.870   6802.000   6708.726     93.274    484.184   6708.726    484.184
116.970   6599.000   6480.011    118.989    484.385   6480.011    484.385
117.070   6495.000   6198.447    296.553    484.592   6198.447    484.592
117.170   5871.000   5874.745     -3.745    484.804   5874.745    484.804
117.270   5666.000   5519.905    146.095    485.022   5519.905    485.022
117.370   5285.000   5144.623    140.377    485.246   5144.623    485.246
117.470   4865.000   4758.882    106.118    485.476   4758.882    485.476
117.570   4542.000   4371.685    170.315    485.711   4371.685    485.711
117.670   4250.000   3990.878    259.122    485.952   3990.878    485.952
117.770   3955.000   3623.050    331.950    486.200   3623.050    486.200
117.870   3621.000   3273.490    347.510    486.453   3273.490    486.453
117.970   3290.000   2946.195    343.805    486.712   2946.195    486.712
118.070   2900.000   2643.928    256.072    486.978   2643.928    486.978
118.170   2635.000   2368.316    266.684    487.249   2368.316    487.249
118.270   2229.000   2119.987    109.013    487.527   2119.987    487.527
118.370   2036.000   1898.718    137.282    487.811   1898.718    487.811
118.470   1809.000   1703.597    105.403    488.102   1703.597    488.102
118.570   1508.000   1533.182    -25.182    488.398   1533.182    488.398
118.670   1370.000   1385.653    -15.653    488.701   1385.653    488.701
118.770   1238.000   1258.947    -20.947    489.011   1258.947    489.011
118.870   1169.000   1150.886     18.114    489.327   1150.886    489.327
118.970   1095.000   1059.276     35.724    489.650   1059.276    489.650
119.070   1029.000    981.995     47.005    489.979    981.995    489.979
119.170    841.000    917.049    -76.049    490.315    917.049    490.315
119.270    818.000    862.620    -44.620    490.658    862.620    490.658
119.370    760.000    817.082    -57.082    491.007    817.082    491.007
119.470    751.000    779.012    -28.012    491.363    779.012    491.363
119.570    736.000    747.186    -11.186    491.726    747.186    491.726
119.670    686.000    720.564    -34.564    492.096    720.564    492.096
119.770    675.000    698.273    -23.273    492.473    698.273    492.473
119.870    653.000    679.592    -26.592    492.857    679.592    492.857
119.970    606.000    663.924    -57.924    493.248    663.924    493.248
120.070    598.000    650.783    -52.783    493.646    650.783    493.646
120.170    614.000    639.775    -25.775    494.052    639.775    494.052
120.270    568.000    630.577    -62.577    494.464    630.577    494.464
120.370    583.000    622.934    -39.934    494.884    622.934    494.884
120.470    570.000    616.636    -46.636    495.311    616.636    495.311
120.570    581.000    611.518    -30.518    495.746    611.518    495.746
120.670    570.000    607.445    -37.445    496.188    607.445    496.188
120.770    606.000    604.309      1.691    496.637    604.309    496.637
120.870    565.000    602.024    -37.024    497.095    602.024    497.095
120.970    547.000    600.516    -53.516    497.559    600.516    497.559
121.070    592.000    599.723     -7.723    498.032    599.723    498.032
121.170    567.000    599.592    -32.592    498.512    599.592    498.512
121.270    554.000    600.071    -46.071    499.000    600.071    499.000
121.370    590.000    601.110    -11.110    499.496    601.110    499.496
121.470    570.000    602.655    -32.655    499.999    602.655    499.999
121.570    557.000    604.658    -47.658    500.511    604.658    500.511
121.670    578.000    607.056    -29.056    501.031    607.056    501.031
121.770    586.000    609.785    -23.785    501.558    609.785    501.558
121.870    607.000    612.774     -5.774    502.094    612.774    502.094
121.970    622.000    615.944      6.056    502.638    615.944    502.638
122.070    638.000    619.212     18.788    503.190    619.212    503.190
122.170    649.000    622.488     26.512    503.751    622.488    503.751
122.270    581.000    625.679    -44.679    504.320    625.679    504.320
122.370    622.000    628.689     -6.689    504.897    628.689    504.897
122.470    647.000    631.423     15.577    505.483    631.423    505.483
122.570    603.000    633.795    -30.795    506.077    633.795    506.077
122.670    611.000    635.727    -24.727    506.680    635.727    506.680
122.770    681.000    637.159     43.841    507.292    637.159    507.292
122.870    641.000    638.047      2.953    507.912    638.047    507.912
122.970    642.000    638.372      3.628    508.541    638.372    508.541
123.070    656.000    638.135     17.865    509.179    638.135    509.179
123.170    687.000    637.354     49.646    509.826    637.354    509.826
123.270    664.000    636.063     27.937    510.481    636.063    510.481
123.370    666.000    634.306     31.694    511.146    634.306    511.146
123.470    649.000    632.134     16.866    511.820    632.134    511.820
123.570    646.000    629.602     16.398    512.503    629.602    512.503
123.670    613.000    626.762    -13.762    513.195    626.762    513.195
123.770    620.000    623.667     -3.667    513.896    623.667    513.896
123.870    630.000    620.393      9.607    514.607    620.393    514.607
123.970    614.000    616.982     -2.982    515.327    616.982    515.327
124.070    651.000    613.484     37.516    516.056    613.484    516.056
124.170    547.000    609.946    -62.946    516.795    609.946    516.795
124.270    617.000    606.408     10.592    517.544    606.408    517.544
124.370    590.000    602.906    -12.906    518.302    602.906    518.302
124.470    622.000    599.471     22.529    519.069    599.471    519.069
124.570    592.000    596.126     -4.126    519.847    596.126    519.847
124.670    594.000    592.891      1.109    520.634    592.891    520.634
124.770    573.000    589.784    -16.784    521.432    589.784    521.432
124.870    575.000    586.816    -11.816    522.239    586.816    522.239
124.970    608.000    583.998     24.002    523.056    583.998    523.056
