neutron_powder_diffraction_0014
R_wp: 3.780
Temperature (K): 467.569
Counts: 83108.00
Wavelength (Ã…): 2.52098
COMMENTS
Test file for demonstrating the .xyy file format in Reel1.0
END OF HEADER
   tth       Y_obs     Y_calc      Y_res    Background    Phase_1_Nuc    Phase_1_Mag    Phase_2_Nuc    Phase_2_Mag
  9.970    706.000    731.331    -25.331    729.668    730.663    730.335    729.668    729.668
 10.070    764.000    730.307     33.693    728.556    729.632    729.231    728.556    728.556
 10.170    780.000    729.299     50.701    727.451    728.617    728.132    727.451    727.451
 10.270    713.000    728.311    -15.311    726.351    727.621    727.040    726.351    726.351
 10.370    679.000    727.344    -48.344    725.257    726.647    725.954    725.257    725.257
 10.470    713.000    726.402    -13.402    724.170    725.698    724.873    724.170    724.170
 10.570    713.869    725.490    -11.621    723.088    724.778    723.799    723.088    723.088
 10.670    700.000    724.612    -24.612    722.012    723.892    722.731    722.012    722.012
 10.770    768.000    723.777     44.223    720.942    723.049    721.669    720.942    720.942
 10.870    776.000    722.993     53.007    719.877    722.257    720.612    719.877    719.877
 10.970    761.449    722.274     39.175    718.819    721.529    719.562    718.819    718.819
 11.070    782.000    721.637     60.363    717.766    720.884    718.518    717.766    717.766
 11.170    696.731    721.108    -24.377    716.719    720.347    717.479    716.719    716.719
 11.270    673.814    720.725    -46.911    715.678    719.954    716.447    715.678    715.678
 11.370    722.000    720.546      1.454    714.643    719.766    715.421    714.643    714.643
 11.470    717.040    720.680     -3.641    713.614    719.891    714.400    713.614    713.614
 11.570    754.000    721.360     32.640    712.590    720.560    713.385    712.590    712.590
 11.670    762.000    723.111     38.889    711.572    722.300    712.377    711.572    711.572
 11.770    786.000    727.059     58.941    710.560    726.236    711.374    710.560    710.560
 11.870    727.827    735.077     -7.250    709.554    734.240    710.377    709.554    709.554
 11.970    740.493    749.318     -8.825    708.553    748.463    709.386    708.553    708.553
 12.070    776.193    771.196      4.998    707.558    770.317    708.401    707.558    707.558
 12.170    765.550    798.357    -32.806    706.568    797.452    707.422    706.568    706.568
 12.270    886.000    821.640     64.360    705.585    820.712    706.449    705.585    705.585
 12.370    866.000    827.138     38.862    704.607    826.196    705.481    704.607    704.607
 12.470    771.768    809.716    -37.948    703.634    808.772    704.519    703.634    703.634
 12.570    727.228    780.707    -53.479    702.668    779.768    703.563    702.668    702.668
 12.670    724.000    753.313    -29.313    701.706    752.378    702.613    701.706    701.706
 12.770    704.000    733.165    -29.165    700.751    732.229    701.669    700.751    700.751
 12.870    696.000    720.359    -24.359    699.801    719.418    700.730    699.801    699.801
 12.970    693.422    712.784    -19.362    698.857    711.836    699.798    698.857    698.857
 13.070    634.000    708.221    -74.221    697.918    707.263    698.871    697.918    697.918
 13.170    742.000    705.180     36.820    696.985    704.211    697.950    696.985    696.985
 13.270    653.000    702.889    -49.889    696.057    701.909    697.034    696.057    696.057
 13.370    654.000    701.005    -47.005    695.135    700.013    696.125    695.135    695.135
 13.470    663.000    699.367    -36.367    694.218    698.362    695.221    694.218    694.218
 13.570    707.413    697.898      9.515    693.307    696.881    694.323    693.307    693.307
 13.670    705.188    696.554      8.635    692.401    695.523    693.430    692.401    692.401
 13.770    675.629    695.303    -19.675    691.501    694.260    692.544    691.501    691.501
 13.870    706.775    694.126     12.649    690.607    693.068    691.663    690.607    690.607
 13.970    705.000    693.006     11.994    689.717    691.934    690.788    689.717    689.717
 14.070    717.000    691.932     25.068    688.833    690.846    689.918    688.833    688.833
 14.170    710.248    690.898     19.350    687.955    689.798    689.055    687.955    687.955
 14.270    736.449    689.894     46.555    687.082    688.778    688.197    687.082    687.082
 14.370    678.560    688.916    -10.357    686.215    687.786    687.344    686.215    686.215
 14.470    676.000    687.963    -11.963    685.352    686.816    686.498    685.352    685.352
 14.570    653.000    687.039    -34.039    684.495    685.876    685.657    684.495    684.495
 14.670    649.000    686.141    -37.141    683.644    684.962    684.823    683.644    683.644
 14.770    680.000    685.242     -5.242    682.798    684.046    683.993    682.798    682.798
 14.870    659.000    684.355    -25.355    681.957    683.143    683.169    681.957    681.957
 14.970    675.106    683.482     -8.375    681.122    682.252    682.351    681.122    681.122
 15.070    680.000    682.621     -2.621    680.291    681.373    681.539    680.291    680.291
 15.170    617.000    681.775    -64.775    679.466    680.509    680.732    679.466    679.466
 15.270    669.302    680.935    -11.633    678.647    679.651    679.931    678.647    678.647
 15.370    676.000    680.105     -4.105    677.832    678.802    679.136    677.832    677.832
 15.470    653.595    679.284    -25.689    677.023    677.961    678.346    677.023    677.023
 15.570    688.178    678.472      9.707    676.219    677.129    677.562    676.219    676.219
 15.670    691.000    677.668     13.332    675.421    676.305    676.783    675.421    675.421
 15.770    641.000    676.873    -35.873    674.627    675.489    676.011    674.627    674.627
 15.870    661.000    676.085    -15.085    673.839    674.680    675.243    673.839    673.839
 15.970    680.000    675.305      4.695    673.056    673.879    674.482    673.056    673.056
 16.070    630.559    674.533    -43.974    672.278    673.084    673.726    672.278    672.278
 16.170    618.000    673.768    -55.768    671.505    672.296    672.976    671.505    671.505
 16.270    690.000    673.010     16.990    670.737    671.515    672.232    670.737    670.737
 16.370    636.883    672.259    -35.376    669.975    670.740    671.493    669.975    669.975
 16.470    632.871    671.515    -38.644    669.217    669.972    670.760    669.217    669.217
 16.570    662.000    670.778     -8.778    668.465    669.210    670.033    668.465    668.465
 16.670    688.000    670.047     17.953    667.718    668.454    669.311    667.718    667.718
 16.770    682.035    669.324     12.711    666.975    667.704    668.595    666.975    666.975
 16.870    688.667    668.607     20.060    666.238    666.960    667.885    666.238    666.238
 16.970    696.332    667.898     28.433    665.506    666.224    667.181    665.506    665.506
 17.070    710.832    667.200     43.632    664.779    665.496    666.482    664.779    664.779
 17.170    708.659    666.503     42.157    664.057    664.770    665.789    664.057    664.057
 17.270    634.851    665.812    -30.961    663.340    664.050    665.102    663.340    663.340
 17.370    672.000    665.138      6.862    662.628    663.345    664.421    662.628    662.628
 17.470    649.000    664.472    -15.472    661.920    662.646    663.746    661.920    661.920
 17.570    644.000    663.866    -19.866    661.218    662.005    663.079    661.218    661.218
 17.670    627.000    663.213    -36.213    660.521    661.319    662.415    660.521    660.521
 17.770    641.000    662.555    -21.555    659.829    660.626    661.757    659.829    659.829
 17.870    685.000    661.902     23.098    659.141    659.939    661.104    659.141    659.141
 17.970    657.000    661.256     -4.256    658.459    659.257    660.458    658.459    658.459
 18.070    651.000    660.616     -9.616    657.781    658.580    659.817    657.781    657.781
 18.170    608.483    659.986    -51.502    657.108    657.911    659.183    657.108    657.108
 18.270    691.000    659.386     31.614    656.440    657.272    658.554    656.440    656.440
 18.370    665.000    658.769      6.231    655.777    656.615    657.931    655.777    655.777
 18.470    629.000    658.155    -29.155    655.119    655.960    657.314    655.119    655.119
 18.570    676.000    657.548     18.452    654.465    655.310    656.703    654.465    654.465
 18.670    658.000    656.946      1.054    653.816    654.664    656.098    653.816    653.816
 18.770    692.406    656.352     36.054    653.173    654.025    655.500    653.173    653.173
 18.870    700.000    655.763     44.237    652.533    653.390    654.907    652.533    652.533
 18.970    622.757    655.182    -32.425    651.899    652.760    654.321    651.899    651.899
 19.070    694.300    654.608     39.692    651.269    652.137    653.741    651.269    651.269
 19.170    676.782    654.050     22.731    650.644    651.528    653.167    650.644    650.644
 19.270    674.000    653.491     20.509    650.024    650.916    652.599    650.024    650.024
 19.370    643.000    652.937     -9.937    649.409    650.307    652.038    649.409    649.409
 19.470    625.000    652.393    -27.393    648.798    649.706    651.485    648.798    648.798
 19.570    614.000    651.892    -37.892    648.191    649.134    650.949    648.191    648.191
 19.670    619.975    651.397    -31.422    647.590    648.567    650.420    647.590    647.590
 19.770    614.000    650.882    -36.882    646.993    647.989    649.886    646.993    646.993
 19.870    635.000    650.385    -15.385    646.401    647.427    649.358    646.401    646.401
 19.970    697.194    649.876     47.318    645.813    646.852    648.837    645.813    645.813
 20.070    647.000    649.372     -2.372    645.230    646.280    648.322    645.230    645.230
 20.170    691.854    648.878     42.976    644.651    645.715    647.815    644.651    644.651
 20.270    701.000    648.409     52.591    644.077    645.171    647.315    644.077    644.077
 20.370    637.000    647.953    -10.953    643.508    644.631    646.829    643.508    643.508
 20.470    607.000    647.519    -40.519    642.943    644.098    646.363    642.943    642.943
 20.570    621.980    647.067    -25.087    642.382    643.561    645.888    642.382    642.382
 20.670    606.000    646.645    -40.645    641.826    643.053    645.419    641.826    641.826
 20.770    620.000    646.258    -26.258    641.275    642.576    644.956    641.275    641.275
 20.870    667.000    645.828     21.172    640.728    642.055    644.501    640.728    640.728
 20.970    606.903    645.400    -38.497    640.185    641.532    644.054    640.185    640.185
 21.070    611.099    644.985    -33.885    639.647    641.017    643.615    639.647    639.647
 21.170    644.000    644.602     -0.602    639.114    640.530    643.185    639.114    639.114
 21.270    613.793    644.222    -30.429    638.585    640.044    642.763    638.585    638.585
 21.370    596.365    643.834    -47.469    638.060    639.545    642.349    638.060    638.060
 21.470    678.045    643.460     34.585    637.539    639.054    641.945    637.539    637.539
 21.570    674.000    643.108     30.892    637.023    638.577    641.554    637.023    637.023
 21.670    643.000    642.765      0.235    636.511    638.104    641.173    636.511    636.511
 21.770    631.000    642.422    -11.422    636.004    637.630    640.797    636.004    636.004
 21.870    646.000    642.092      3.908    635.501    637.163    640.431    635.501    635.501
 21.970    615.000    641.773    -26.773    635.002    636.701    640.075    635.002    635.002
 22.070    650.000    641.467      8.533    634.508    636.245    639.730    634.508    634.508
 22.170    622.000    641.174    -19.174    634.017    635.797    639.395    634.017    634.017
 22.270    638.090    640.897     -2.807    633.532    635.355    639.073    633.532    633.532
 22.370    648.000    640.635      7.365    633.050    634.923    638.762    633.050    633.050
 22.470    648.285    640.390      7.895    632.572    634.499    638.464    632.572    632.572
 22.570    594.000    640.165    -46.165    632.099    634.086    638.178    632.099    632.099
 22.670    637.777    639.959     -2.182    631.630    633.683    637.907    631.630    631.630
 22.770    683.688    639.774     43.914    631.165    633.290    637.649    631.165    631.165
 22.870    601.197    639.617    -38.420    630.705    632.914    637.408    630.705    630.705
 22.970    622.000    639.482    -17.482    630.248    632.549    637.181    630.248    630.248
 23.070    575.000    639.373    -64.373    629.796    632.199    636.970    629.796    629.796
 23.170    618.000    639.295    -21.295    629.347    631.866    636.776    629.347    629.347
 23.270    609.811    639.252    -29.441    628.903    631.555    636.601    628.903    628.903
 23.370    621.234    639.250    -18.016    628.463    631.268    636.445    628.463    628.463
 23.470    621.000    639.294    -18.294    628.027    631.012    636.310    628.027    628.027
 23.570    661.865    639.391     22.474    627.595    630.791    636.196    627.595    627.595
 23.670    622.020    639.552    -17.532    627.167    630.617    636.104    627.167    627.167
 23.770    596.365    639.792    -43.427    626.744    630.499    636.037    626.744    626.744
 23.870    659.639    640.128     19.510    626.324    630.457    635.996    626.324    626.324
 23.970    653.000    640.589     12.411    625.908    630.515    635.984    625.908    625.908
 24.070    630.000    641.217    -11.217    625.496    630.714    636.001    625.496    625.496
 24.170    681.000    642.090     38.910    625.088    631.129    636.052    625.088    625.088
 24.270    664.422    643.367     21.055    624.684    631.917    636.138    624.684    624.684
 24.370    638.000    645.401     -7.401    624.285    633.429    636.261    624.285    624.285
 24.470    606.071    648.909    -42.839    623.889    636.379    636.426    623.889    623.889
 24.570    685.000    655.091     29.909    623.496    641.963    636.635    623.496    623.496
 24.670    696.256    665.414     30.842    623.108    651.646    636.894    623.108    623.108
 24.770    633.168    680.751    -47.583    622.724    666.298    637.206    622.724    622.724
 24.870    713.000    699.755     13.245    622.344    684.563    637.577    622.344    622.344
 24.970    671.653    716.897    -45.244    621.967    700.905    638.014    621.967    621.967
 25.070    718.000    723.101     -5.101    621.594    706.231    638.522    621.594    621.594
 25.170    683.000    714.052    -31.052    621.225    696.219    639.110    621.225    621.225
 25.270    663.000    696.522    -33.522    620.860    677.634    639.786    620.860    620.860
 25.370    687.000    679.383      7.617    620.499    659.345    640.562    620.499    620.499
 25.470    660.771    666.816     -6.045    620.141    645.524    641.449    620.141    620.141
 25.570    709.000    659.272     49.728    619.787    636.608    642.461    619.787    619.787
 25.670    608.189    655.556    -47.367    619.437    631.383    643.616    619.437    619.437
 25.770    696.804    654.226     42.578    619.091    628.389    644.931    619.091    619.091
 25.870    693.000    654.247     38.753    618.748    626.567    646.431    618.748    618.748
 25.970    665.000    655.066      9.934    618.410    625.334    648.143    618.410    618.410
 26.070    658.000    656.449      1.551    618.074    624.422    650.102    618.074    618.074
 26.170    610.494    658.316    -47.822    617.743    623.710    652.349    617.743    617.743
 26.270    681.000    660.641     20.359    617.415    623.132    654.924    617.415    617.415
 26.370    658.504    663.464     -4.960    617.091    622.664    657.890    617.091    617.091
 26.470    717.376    666.839     50.537    616.770    622.285    661.322    616.770    616.770
 26.570    635.000    670.847    -35.847    616.453    621.987    665.312    616.453    616.453
 26.670    654.000    675.600    -21.600    616.139    621.762    669.975    616.139    616.139
 26.770    670.277    681.245    -10.968    615.830    621.611    675.461    615.830    615.830
 26.870    657.000    687.979    -30.979    615.523    621.537    681.962    615.523    615.523
 26.970    690.007    696.061     -6.054    615.221    621.547    689.730    615.221    615.221
 27.070    675.000    705.842    -30.842    614.921    621.654    699.105    614.921    614.921
 27.170    753.288    717.804     35.484    614.626    621.878    710.546    614.626    614.626
 27.270    696.935    732.612    -35.677    614.333    622.246    724.693    614.333    614.333
 27.370    789.000    751.226     37.774    614.045    622.800    742.461    614.045    614.045
 27.470    761.000    775.041    -14.041    613.759    623.602    765.187    613.759    613.759
 27.570    804.000    806.321     -2.321    613.478    624.751    795.033    613.478    613.478
 27.670    819.791    849.635    -29.844    613.199    626.449    836.364    613.199    613.199
 27.770    942.000    917.612     24.388    612.924    629.251    901.255    612.924    612.924
 27.870   1065.000   1050.004     14.996    612.653    634.897   1027.706    612.653    612.653
 27.970   1397.000   1356.343     40.657    612.384    648.173   1320.437    612.384    612.384
 28.070   2017.000   2059.755    -42.755    612.120    678.829   1992.783    612.120    612.120
 28.170   3259.000   3437.969   -178.969    611.858    739.002   3310.303    611.858    611.858
 28.270   5150.000   5544.719   -394.719    611.600    831.070   5324.408    611.600    611.600
 28.370   7856.000   7819.503     36.497    611.345    930.637   7499.182    611.345    611.345
 28.470   9020.000   9039.518    -19.518    611.094    984.507   8665.265    611.094    611.094
 28.570   8534.000   8340.001    193.999    610.846    955.373   7995.156    610.846    610.846
 28.670   6686.000   6422.645    263.355    610.601    874.834   6158.519    610.601    610.601
 28.770   4714.000   4639.042     74.958    610.359    803.511   4446.120    610.359    610.359
 28.870   3732.325   3802.749    -70.424    610.121    778.545   3634.483    610.121    610.121
 28.970   4061.172   3958.854    102.318    609.886    801.757   3767.049    609.886    609.886
 29.070   4629.000   4609.725     19.275    609.654    847.266   4372.183    609.654    609.654
 29.170   4855.066   5006.615   -151.548    609.425    873.792   4742.450    609.425    609.425
 29.270   4574.000   4633.940    -59.940    609.200    852.312   4391.201    609.200    609.200
 29.370   3549.908   3670.497   -120.589    608.978    794.527   3485.379    608.978    608.978
 29.470   2532.000   2617.043    -85.043    608.758    731.068   2495.093    608.758    608.758
 29.570   1883.606   1802.533     81.074    608.542    681.978   1729.338    608.542    608.542
 29.670   1298.000   1299.318     -1.318    608.329    651.689   1256.095    608.329    608.329
 29.770    977.432   1033.000    -55.568    608.120    635.724   1005.465    608.120    608.120
 29.870    982.000    901.144     80.856    607.913    627.896    881.197    607.913    607.913
 29.970    877.581    832.278     45.303    607.709    623.893    816.114    607.709    607.709
 30.070    826.000    790.759     35.241    607.509    621.573    776.707    607.509    607.509
 30.170    792.000    762.132     29.868    607.311    620.085    749.367    607.311    607.311
 30.270    760.000    740.917     19.083    607.117    619.131    728.908    607.117    607.117
 30.370    763.000    724.854     38.146    606.926    618.648    713.134    606.926    606.926
 30.470    709.000    713.009     -4.009    606.737    618.748    700.999    606.737    606.737
 30.570    727.000    705.440     21.560    606.552    619.819    692.170    606.552    606.552
 30.670    672.078    703.335    -31.257    606.369    622.678    687.018    606.369    606.369
 30.770    729.137    708.931     20.206    606.190    628.575    686.529    606.190    606.190
 30.870    762.000    724.434     37.566    606.013    638.695    691.721    606.013    606.013
 30.970    782.000    749.558     32.442    605.839    653.004    702.346    605.839    605.839
 31.070    801.641    778.237     23.404    605.669    668.684    715.158    605.669    605.669
 31.170    851.000    797.059     53.941    605.501    679.395    723.093    605.501    605.501
 31.270    777.000    792.580    -15.580    605.336    678.770    719.082    605.336    605.336
 31.370    799.000    765.310     33.690    605.174    667.085    703.349    605.174    605.174
 31.470    735.000    728.882      6.118    605.015    650.876    682.988    605.015    605.015
 31.570    715.000    696.096     18.904    604.858    636.276    664.658    604.858    604.858
 31.670    692.000    672.364     19.636    604.705    625.889    651.169    604.705    604.705
 31.770    622.931    657.470    -34.539    604.554    619.628    642.390    604.554    604.554
 31.870    645.000    648.811     -3.811    604.406    616.265    636.947    604.406    604.406
 31.970    684.255    643.739     40.516    604.261    614.552    633.445    604.261    604.261
 32.070    674.000    640.513     33.487    604.118    613.666    630.963    604.118    604.118
 32.170    613.000    638.246    -25.246    603.978    613.195    629.027    603.978    603.978
 32.270    682.000    636.552     45.448    603.841    612.964    627.428    603.841    603.841
 32.370    608.000    635.274    -27.274    603.707    612.906    626.073    603.707    603.707
 32.470    617.000    634.343    -17.343    603.575    612.999    624.918    603.575    603.575
 32.570    704.000    633.730     70.270    603.446    613.236    623.939    603.446    603.446
 32.670    642.000    633.428      8.572    603.320    613.626    623.122    603.320    603.320
 32.770    625.242    633.448     -8.206    603.197    614.184    622.460    603.197    603.197
 32.870    655.385    633.819     21.566    603.076    614.938    621.956    603.076    603.076
 32.970    672.000    634.592     37.408    602.957    615.930    621.618    602.957    602.957
 33.070    663.000    635.846     27.154    602.841    617.221    621.465    602.841    602.841
 33.170    653.000    637.702     15.298    602.728    618.899    621.531    602.728    602.728
 33.270    617.804    640.352    -22.548    602.618    621.101    621.867    602.618    602.618
 33.370    660.399    644.139     16.260    602.510    624.070    622.576    602.510    602.510
 33.470    684.000    649.778     34.222    602.404    628.310    623.869    602.404    602.404
 33.570    619.050    658.884    -39.834    602.301    634.952    626.229    602.301    602.301
 33.670    699.000    674.974     24.026    602.201    646.454    630.713    602.201    602.201
 33.770    694.947    704.706     -9.759    602.103    667.474    639.322    602.103    602.103
 33.870    765.000    758.157      6.843    602.007    705.058    655.085    602.007    602.007
 33.970    830.000    845.988    -15.988    601.914    766.662    681.209    601.914    601.914
 34.070    930.762    972.031    -41.269    601.823    854.968    718.846    601.823    601.823
 34.170   1112.000   1122.308    -10.308    601.735    960.209    763.793    601.735    601.735
 34.270   1199.565   1254.454    -54.889    601.649   1052.771    803.303    601.649    601.649
 34.370   1276.000   1304.102    -28.102    601.566   1087.649    818.011    601.566    601.566
 34.470   1225.728   1238.116    -12.387    601.485   1041.668    797.943    601.485    601.485
 34.570    990.000   1097.986   -107.986    601.406    943.831    755.578    601.406    601.406
 34.670    965.000    948.150     16.850    601.330    839.193    710.303    601.330    601.330
 34.770    861.000    826.647     34.353    601.256    754.352    673.562    601.256    601.256
 34.870    785.102    743.862     41.240    601.185    696.572    648.482    601.185    601.185
 34.970    695.000    694.157      0.843    601.115    661.911    633.365    601.115    601.115
 35.070    709.971    666.487     43.484    601.048    642.649    624.888    601.048    601.048
 35.170    677.000    651.148     25.852    600.984    632.000    620.132    600.984    600.984
 35.270    726.000    642.006     83.994    600.921    625.677    617.251    600.921    600.921
 35.370    703.000    635.929     67.071    600.861    621.487    615.303    600.861    600.861
 35.470    653.000    631.503     21.497    600.803    618.443    613.863    600.803    600.803
 35.570    590.061    628.098    -38.038    600.747    616.105    612.741    600.747    600.747
 35.670    648.136    625.403     22.733    600.694    614.253    611.843    600.694    600.694
 35.770    657.000    623.232     33.768    600.642    612.759    611.116    600.642    600.642
 35.870    621.000    621.466     -0.466    600.593    611.536    610.522    600.593    600.593
 35.970    649.000    620.017     28.983    600.546    610.525    610.038    600.546    600.546
 36.070    640.000    618.826     21.174    600.501    609.681    609.646    600.501    600.501
 36.170    669.000    617.846     51.154    600.458    608.970    609.334    600.458    600.458
 36.270    660.000    617.047     42.953    600.418    608.370    609.094    600.418    600.418
 36.370    633.000    616.404     16.596    600.379    607.861    608.922    600.379    600.379
 36.470    623.419    615.902      7.518    600.343    607.429    608.816    600.343    600.343
 36.570    610.729    615.531     -4.802    600.308    607.063    608.777    600.308    600.308
 36.670    678.000    615.288     62.712    600.276    606.756    608.809    600.276    600.276
 36.770    599.770    615.176    -15.406    600.246    606.503    608.919    600.246    600.246
 36.870    623.319    615.202      8.117    600.217    606.301    609.119    600.217    600.217
 36.970    648.527    615.384     33.143    600.191    606.150    609.425    600.191    600.191
 37.070    663.002    615.751     47.252    600.167    606.056    609.861    600.167    600.167
 37.170    607.623    616.354     -8.731    600.144    606.035    610.463    600.144    600.144
 37.270    662.000    617.290     44.710    600.124    606.124    611.290    600.124    600.124
 37.370    595.000    618.743    -23.743    600.106    606.399    612.449    600.106    600.106
 37.470    620.000    621.072     -1.072    600.089    606.996    614.165    600.089    600.089
 37.570    599.000    624.949    -25.949    600.074    608.104    616.920    600.074    600.074
 37.670    600.000    631.529    -31.529    600.062    609.920    621.672    600.062    600.062
 37.770    685.000    642.546     42.454    600.051    612.526    630.071    600.051    600.051
 37.870    707.000    660.076     46.924    600.042    615.722    644.396    600.042    600.042
 37.970    683.000    685.635     -2.635    600.035    618.814    666.857    600.035    600.035
 38.070    683.000    718.693    -35.693    600.030    620.621    698.102    600.030    600.030
 38.170    754.000    755.382     -1.382    600.026    620.276    735.134    600.026    600.026
 38.270    750.293    787.212    -36.919    600.024    618.118    769.123    600.024    600.024
 38.370    776.000    801.159    -25.159    600.025    615.151    786.041    600.025    600.025
 38.470    758.000    788.642    -30.642    600.027    612.176    776.505    600.027    600.027
 38.570    752.000    755.814     -3.814    600.030    609.656    746.203    600.030    600.030
 38.670    692.000    716.657    -24.657    600.036    607.775    708.931    600.036    600.036
 38.770    654.000    681.747    -27.747    600.043    606.502    675.298    600.043    600.043
 38.870    647.880    655.563     -7.683    600.052    605.696    649.926    600.052    600.052
 38.970    660.000    638.228     21.772    600.062    605.204    633.091    600.062    600.062
 39.070    577.781    627.734    -49.953    600.075    604.906    622.905    600.075    600.075
 39.170    599.000    621.655    -22.655    600.089    604.724    617.022    600.089    600.089
 39.270    637.000    618.082     18.918    600.104    604.610    613.579    600.104    600.104
 39.370    662.839    615.833     47.007    600.122    604.538    611.418    600.122    600.122
 39.470    663.482    614.284     49.198    600.140    604.495    609.931    600.140    600.140
 39.570    614.000    613.135      0.865    600.161    604.472    608.826    600.161    600.161
 39.670    596.000    612.245    -16.245    600.183    604.464    607.964    600.183    600.183
 39.770    649.526    611.543     37.984    600.207    604.475    607.275    600.207    600.207
 39.870    645.924    610.981     34.942    600.232    604.500    606.714    600.232    600.232
 39.970    650.000    610.530     39.470    600.259    604.538    606.252    600.259    600.259
 40.070    598.000    610.167    -12.167    600.287    604.587    605.868    600.287    600.287
 40.170    640.000    609.876     30.124    600.317    604.647    605.546    600.317    600.317
 40.270    611.000    609.645      1.355    600.349    604.718    605.276    600.349    600.349
 40.370    632.000    609.467     22.533    600.381    604.801    605.047    600.381    600.381
 40.470    566.228    609.333    -43.105    600.416    604.896    604.853    600.416    600.416
 40.570    603.000    609.240     -6.240    600.452    605.003    604.689    600.452    600.452
 40.670    593.000    609.183    -16.183    600.489    605.123    604.549    600.489    600.489
 40.770    630.204    609.161     21.042    600.528    605.259    604.431    600.528    600.528
 40.870    573.000    609.173    -36.173    600.568    605.410    604.332    600.568    600.568
 40.970    569.000    609.219    -40.219    600.610    605.580    604.249    600.610    600.610
 41.070    582.000    609.298    -27.298    600.652    605.771    604.181    600.652    600.652
 41.170    606.013    609.414     -3.401    600.697    605.986    604.125    600.697    600.697
 41.270    604.000    609.569     -5.569    600.743    606.231    604.082    600.743    600.743
 41.370    568.000    609.769    -41.769    600.790    606.509    604.050    600.790    600.790
 41.470    647.000    610.019     36.981    600.838    606.830    604.028    600.838    600.838
 41.570    603.000    610.330     -7.330    600.888    607.203    604.016    600.888    600.888
 41.670    630.000    610.714     19.286    600.939    607.640    604.014    600.939    600.939
 41.770    577.000    611.190    -34.190    600.991    608.161    604.022    600.991    600.991
 41.870    607.684    611.787     -4.103    601.045    608.793    604.041    601.045    601.045
 41.970    621.306    612.556      8.750    601.100    609.586    604.071    601.100    601.100
 42.070    610.224    613.596     -3.372    601.156    610.637    604.118    601.156    601.156
 42.170    601.000    615.112    -14.112    601.213    612.141    604.187    601.213    601.213
 42.270    575.268    617.501    -42.233    601.272    614.482    604.295    601.272    601.272
 42.370    577.310    621.469    -44.159    601.331    618.337    604.469    601.331    601.331
 42.470    620.906    628.072     -7.166    601.392    624.724    604.749    601.392    601.392
 42.570    690.980    638.568     52.413    601.454    634.850    605.185    601.454    601.454
 42.670    637.000    653.938    -16.938    601.518    649.661    605.814    601.518    601.518
 42.770    637.000    674.098    -37.098    601.582    669.077    606.633    601.582    601.582
 42.870    669.169    696.915    -27.746    601.648    691.044    607.560    601.648    601.648
 42.970    674.000    717.277    -43.277    601.715    710.650    608.393    601.715    601.715
 43.070    719.000    727.717     -8.717    601.782    720.715    608.843    601.782    601.782
 43.170    723.774    723.238      0.536    601.851    716.434    608.715    601.851    601.851
 43.270    658.000    706.286    -48.286    601.921    700.156    608.104    601.921    601.921
 43.370    684.528    684.001      0.528    601.992    678.747    607.288    601.992    601.992
 43.470    607.000    662.609    -55.609    602.064    658.194    606.510    602.064    602.064
 43.570    692.000    645.386     46.614    602.138    641.649    605.896    602.138    602.138
 43.670    607.000    633.154    -26.154    602.212    629.900    605.480    602.212    602.212
 43.770    679.000    625.275     53.725    602.287    622.336    605.235    602.287    602.287
 43.870    625.000    620.541      4.459    602.363    617.794    605.116    602.363    602.363
 43.970    583.000    617.785    -34.785    602.440    615.153    605.077    602.440    602.440
 44.070    596.038    616.159    -20.121    602.518    613.597    605.084    602.518    602.518
 44.170    648.008    615.149     32.859    602.597    612.632    605.118    602.597    602.597
 44.270    618.724    614.482      4.242    602.677    611.994    605.167    602.677    602.677
 44.370    607.000    614.021     -7.021    602.758    611.554    605.227    602.758    602.758
 44.470    638.000    613.699     24.301    602.840    611.245    605.295    602.840    602.840
 44.570    663.316    613.478     49.837    602.923    611.033    605.370    602.923    602.923
 44.670    661.843    613.337     48.505    603.007    610.895    605.450    603.007    603.007
 44.770    654.533    613.260     41.273    603.091    610.816    605.536    603.091    603.091
 44.870    619.000    613.236      5.764    603.176    610.787    605.626    603.176    603.176
 44.970    632.000    613.257     18.743    603.263    610.799    605.721    603.263    603.263
 45.070    627.000    613.316     13.684    603.350    610.846    605.820    603.350    603.350
 45.170    636.000    613.409     22.591    603.437    610.923    605.924    603.437    603.437
 45.270    614.000    613.533      0.467    603.526    611.028    606.031    603.526    603.526
 45.370    648.000    613.685     34.315    603.615    611.158    606.143    603.615    603.615
 45.470    624.000    613.864     10.136    603.706    611.311    606.260    603.706    603.706
 45.570    632.000    614.069     17.931    603.797    611.485    606.381    603.797    603.797
 45.670    660.153    614.299     45.854    603.888    611.682    606.506    603.888    603.888
 45.770    601.000    614.555    -13.555    603.981    611.899    606.636    603.981    603.981
 45.870    653.614    614.836     38.778    604.074    612.138    606.772    604.074    604.074
 45.970    588.000    615.144    -27.144    604.168    612.399    606.912    604.168    604.168
 46.070    633.000    615.480     17.520    604.262    612.683    607.059    604.262    604.262
 46.170    608.481    615.846     -7.365    604.357    612.991    607.212    604.357    604.357
 46.270    611.837    616.245     -4.408    604.453    613.326    607.371    604.453    604.453
 46.370    612.769    616.680     -3.910    604.550    613.691    607.538    604.550    604.550
 46.470    625.000    617.155      7.845    604.647    614.088    607.713    604.647    604.647
 46.570    645.616    617.676     27.940    604.745    614.522    607.897    604.745    604.745
 46.670    617.000    618.249     -1.249    604.843    615.000    608.092    604.843    604.843
 46.770    630.950    618.884     12.066    604.942    615.527    608.298    604.942    604.942
 46.870    597.000    619.591    -22.591    605.042    616.115    608.517    605.042    605.042
 46.970    584.000    620.388    -36.388    605.142    616.777    608.752    605.142    605.142
 47.070    597.000    621.300    -24.300    605.243    617.534    609.006    605.243    605.243
 47.170    621.000    622.371     -1.371    605.344    618.427    609.285    605.344    605.344
 47.270    637.000    623.684     13.316    605.446    619.527    609.600    605.446    605.446
 47.370    664.880    625.396     39.485    605.548    620.972    609.968    605.548    605.548
 47.470    672.000    627.787     44.213    605.651    623.009    610.424    605.651    605.651
 47.570    653.000    631.311     21.689    605.754    626.037    611.020    605.754    605.754
 47.670    618.000    636.598    -18.598    605.858    630.614    611.831    605.858    605.858
 47.770    625.000    644.360    -19.360    605.962    637.367    612.940    605.962    605.962
 47.870    649.000    655.144     -6.144    606.067    646.777    614.412    606.067    606.067
 47.970    661.000    668.951     -7.951    606.172    658.844    616.248    606.172    606.172
 48.070    697.000    684.774     12.226    606.277    672.675    618.336    606.277    606.277
 48.170    720.877    700.174     20.703    606.383    686.110    620.399    606.383    606.383
 48.270    681.987    711.315    -29.328    606.490    695.752    621.998    606.490    606.490
 48.370    745.581    714.505     31.075    606.597    698.334    622.713    606.597    606.597
 48.470    703.000    708.998     -5.998    606.704    693.188    622.465    606.704    606.704
 48.570    714.990    697.771     17.219    606.811    682.940    621.603    606.811    606.811
 48.670    653.159    685.021    -31.862    606.919    671.292    620.618    606.919    606.919
 48.770    632.771    673.837    -41.066    607.027    660.966    619.877    607.027    607.027
 48.870    636.000    665.771    -29.771    607.136    653.320    619.572    607.136    607.136
 48.970    636.000    661.219    -25.219    607.244    648.685    619.768    607.244    607.244
 49.070    638.540    659.902    -21.362    607.354    646.792    620.456    607.354    607.354
 49.170    662.000    661.297      0.703    607.463    647.144    621.610    607.463    607.463
 49.270    671.770    664.978      6.793    607.573    649.314    623.231    607.573    607.573
 49.370    622.000    670.869    -48.869    607.683    653.144    625.401    607.683    607.683
 49.470    669.037    679.556    -10.519    607.793    658.965    628.377    607.793    607.793
 49.570    711.000    692.932     18.068    607.903    668.021    632.806    607.903    607.903
 49.670    673.131    715.530    -42.400    608.014    683.381    640.150    608.014    608.014
 49.770    703.266    756.655    -53.389    608.125    711.456    653.302    608.125    608.125
 49.870    770.000    833.695    -63.695    608.236    763.800    678.088    608.236    608.236
 49.970    902.000    972.009    -70.009    608.347    857.693    722.589    608.347    608.347
 50.070   1149.066   1201.265    -52.199    608.458   1013.288    796.317    608.458    608.458
 50.170   1493.000   1543.147    -50.147    608.570   1245.301    906.246    608.570    608.570
 50.270   1941.000   1992.406    -51.406    608.682   1550.184   1050.693    608.682    608.682
 50.370   2558.225   2498.505     59.720    608.793   1893.672   1213.406    608.793    608.793
 50.470   2905.642   2958.562    -52.920    608.905   2205.995   1361.297    608.905    608.905
 50.570   3193.425   3237.208    -43.783    609.018   2395.341   1450.817    609.018    609.018
 50.670   3237.000   3231.092      5.908    609.130   2391.605   1448.686    609.130    609.130
 50.770   2940.194   2943.501     -3.307    609.242   2197.033   1355.887    609.242    609.242
 50.870   2481.000   2481.589     -0.589    609.354   1884.384   1206.784    609.354    609.354
 50.970   1971.000   1980.487     -9.487    609.467   1545.455   1044.717    609.467    609.467
 51.070   1507.000   1541.163    -34.163    609.579   1248.891    902.030    609.579    609.579
 51.170   1234.000   1212.099     21.901    609.692   1027.698    794.223    609.692    609.692
 51.270    956.524    996.920    -40.396    609.804    884.342    722.471    609.804    609.804
 51.370    876.000    872.753      3.247    609.917    803.107    679.625    609.917    609.917
 51.470    854.000    808.706     45.294    610.029    762.543    656.238    610.029    610.029
 51.570    839.275    777.634     61.641    610.142    743.411    644.403    610.142    610.142
 51.670    796.000    760.651     35.349    610.254    731.932    639.006    610.254    610.254
 51.770    785.766    747.691     38.075    610.367    720.738    637.348    610.367    610.367
 51.870    722.000    735.821    -13.821    610.479    708.126    638.195    610.479    610.479
 51.970    723.000    725.605     -2.605    610.592    695.306    640.904    610.592    610.592
 52.070    750.317    717.953     32.363    610.704    683.829    644.833    610.704    610.704
 52.170    709.529    712.855     -3.325    610.816    674.650    649.019    610.816    610.816
 52.270    727.803    709.270     18.532    610.928    668.078    652.116    610.928    610.928
 52.370    728.116    705.661     22.455    611.040    663.964    652.730    611.040    611.040
 52.470    741.000    701.045     39.955    611.152    661.934    650.257    611.152    611.152
 52.570    741.000    695.711     45.289    611.264    661.601    645.369    611.264    611.264
 52.670    688.000    690.772     -2.772    611.376    662.715    639.429    611.376    611.376
 52.770    717.000    687.443     29.557    611.487    665.269    633.659    611.487    611.487
 52.870    681.982    686.829     -4.847    611.598    669.603    628.823    611.598    611.598
 52.970    733.000    690.104     42.896    611.710    676.576    625.238    611.710    611.710
 53.070    711.000    698.874     12.126    611.821    687.802    622.892    611.821    611.821
 53.170    724.000    715.584      8.416    611.931    705.918    621.596    611.931    611.931
 53.270    755.000    743.646     11.354    612.042    734.632    621.053    612.042    612.042
 53.370    859.000    787.549     71.451    612.152    778.387    621.311    612.152    612.152
 53.470    838.457    851.229    -12.772    612.263    841.249    622.237    612.263    612.263
 53.570    949.000    936.502     12.498    612.372    925.125    623.744    612.372    612.372
 53.670   1061.000   1040.734     20.266    612.482   1027.492    625.720    612.482    612.482
 53.770   1136.000   1154.360    -18.360    612.591   1139.010    627.941    612.591    612.591
 53.870   1192.498   1258.994    -66.496    612.701   1241.690    630.011    612.701    612.701
 53.970   1261.000   1328.928    -67.928    612.809   1310.364    631.391    612.809    612.809
 54.070   1310.726   1341.139    -30.413    612.918   1322.489    631.597    612.918    612.918
 54.170   1365.144   1290.979     74.165    613.026   1273.511    630.530    613.026    613.026
 54.270   1174.000   1196.312    -22.312    613.134   1180.926    628.557    613.134    613.134
 54.370   1116.436   1083.905     32.532    613.242   1070.949    626.231    613.242    613.242
 54.470   1002.000    975.457     26.543    613.349    964.832    624.001    613.349    613.349
 54.570    927.864    883.541     44.323    613.456    874.892    622.126    613.456    613.456
 54.670    808.442    812.932     -4.490    613.562    805.806    620.704    613.562    613.562
 54.770    757.000    763.008     -6.008    613.669    756.966    619.721    613.669    613.669
 54.870    754.000    730.146     23.854    613.774    724.825    619.102    613.774    613.774
 54.970    681.000    709.771    -28.771    613.880    704.904    618.752    613.880    613.880
 55.070    672.572    697.743    -25.170    613.985    693.147    618.583    613.985    613.985
 55.170    694.568    690.965      3.603    614.089    686.524    618.533    614.089    614.089
 55.270    666.000    687.434    -21.434    614.193    683.069    618.560    614.193    614.193
 55.370    672.000    685.994    -13.994    614.297    681.654    618.640    614.297    614.297
 55.470    651.000    686.050    -35.050    614.400    681.692    618.760    614.400    614.400
 55.570    678.290    687.336     -9.046    614.503    682.923    618.918    614.503    614.503
 55.670    703.000    689.776     13.224    614.606    685.270    619.112    614.606    614.606
 55.770    696.000    693.423      2.577    614.707    688.786    619.346    614.707    614.707
 55.870    697.000    698.465     -1.465    614.809    693.648    619.626    614.809    614.809
 55.970    676.404    705.296    -28.892    614.910    700.240    619.967    614.910    614.910
 56.070    718.000    714.703      3.297    615.010    709.320    620.395    615.010    615.010
 56.170    749.000    728.212     20.788    615.110    722.363    620.960    615.110    615.110
 56.270    764.947    748.658     16.290    615.209    742.110    621.756    615.209    615.209
 56.370    775.000    780.941     -5.941    615.308    773.299    622.947    615.308    615.308
 56.470    803.000    832.763    -29.763    615.406    823.376    624.786    615.406    615.406
 56.570    959.087    914.829     44.258    615.504    902.692    627.626    615.504    615.504
 56.670    983.000   1039.807    -56.807    615.601   1023.498    631.888    615.601    615.601
 56.770   1131.000   1219.430    -88.430    615.698   1197.138    637.957    615.698    615.698
 56.870   1405.821   1459.689    -53.868    615.794   1429.409    646.034    615.794    615.794
 56.970   1647.000   1755.022   -108.022    615.889   1714.936    655.935    615.889    615.889
 57.070   2068.000   2082.834    -14.834    615.984   2031.872    666.917    615.984    615.984
 57.170   2388.000   2399.608    -11.608    616.078   2338.142    677.544    616.078    616.078
 57.270   2625.169   2641.989    -16.820    616.171   2572.482    685.728    616.171    616.171
 57.370   2757.000   2743.253     13.747    616.264   2670.363    689.270    616.264    616.264
 57.470   2653.151   2670.190    -17.039    616.357   2599.653    687.075    616.357    616.357
 57.570   2534.000   2448.210     85.790    616.448   2384.898    679.985    616.448    616.448
 57.670   2230.993   2141.287     89.705    616.539   2087.945    670.117    616.539    616.539
 57.770   1820.000   1814.595      5.405    616.629   1771.813    659.629    616.629    616.629
 57.870   1441.662   1515.070    -73.407    616.719   1481.879    650.091    616.719    616.719
 57.970   1235.000   1268.640    -33.640    616.808   1243.188    642.401    616.808    616.808
 58.070   1148.000   1083.635     64.365    616.896   1063.722    636.911    616.896    616.896
 58.170    959.000    956.243      2.757    616.983    939.654    633.641    616.983    616.983
 58.270    796.000    876.550    -80.550    617.070    861.146    632.516    617.070    617.070
 58.370    841.000    833.744      7.256    617.156    817.362    633.560    617.156    617.156
 58.470    767.000    819.371    -52.371    617.241    799.625    636.993    617.241    617.241
 58.570    859.000    828.413     30.587    617.326    802.554    643.178    617.326    617.326
 58.670    832.000    858.628    -26.628    617.410    823.590    652.428    617.410    617.410
 58.770    943.267    908.913     34.355    617.493    861.663    664.712    617.493    617.493
 58.870    942.000    977.393    -35.393    617.575    915.568    679.360    617.575    617.575
 58.970   1013.000   1059.758    -46.758    617.656    982.499    694.871    617.656    617.656
 59.070   1144.000   1148.308     -4.308    617.737   1057.063    708.940    617.737    617.737
 59.170   1190.000   1232.681    -42.681    617.817   1131.527    718.938    617.817    617.817
 59.270   1282.000   1303.016    -21.016    617.896   1197.913    722.981    617.896    617.896
 59.370   1322.000   1352.986    -30.986    617.974   1250.108    720.854    617.974    617.974
 59.470   1436.886   1379.151     57.736    618.051   1283.474    713.749    618.051    618.051
 59.570   1380.000   1379.399      0.601    618.128   1294.262    703.301    618.128    618.128
 59.670   1337.000   1355.389    -18.389    618.204   1282.548    691.090    618.204    618.204
 59.770   1324.000   1315.984      8.016    618.278   1255.685    678.617    618.278    618.278
 59.870   1330.602   1275.245     55.358    618.352   1226.464    667.155    618.352    618.352
 59.970   1250.000   1246.658      3.342    618.425   1207.598    657.475    618.425    618.425
 60.070   1255.000   1239.251     15.749    618.498   1207.905    649.793    618.498    618.498
 60.170   1305.000   1257.318     47.682    618.569   1231.851    643.940    618.569    618.569
 60.270   1326.000   1301.912     24.088    618.639   1280.805    639.601    618.639    618.639
 60.370   1387.000   1370.827     16.173    618.709   1352.868    636.476    618.709    618.709
 60.470   1477.000   1456.019     20.981    618.778   1440.248    634.314    618.778    618.778
 60.570   1598.000   1541.295     56.705    618.845   1526.971    632.907    618.845    618.845
 60.670   1596.000   1603.305     -7.305    618.912   1589.861    632.086    618.912    618.912
 60.770   1676.000   1618.109     57.891    618.978   1605.112    631.727    618.978    618.978
 60.870   1676.000   1573.278    102.722    619.043   1560.374    631.741    619.043    619.043
 60.970   1558.124   1475.839     82.285    619.107   1462.714    632.077    619.107    619.107
 61.070   1368.000   1346.756     21.244    619.170   1333.109    632.711    619.170    619.170
 61.170   1121.000   1209.344    -88.344    619.232   1194.848    633.659    619.232    619.232
 61.270   1047.000   1082.114    -35.114    619.293   1066.370    634.996    619.293    619.293
 61.370   1016.779    976.829     39.950    619.353    959.265    636.891    619.353    619.353
 61.470    903.000    899.067      3.933    619.412    878.786    639.673    619.412    619.412
 61.570    816.000    850.005    -34.005    619.470    825.539    643.915    619.470    619.470
 61.670    807.000    828.766    -21.766    619.527    797.736    650.527    619.527    619.527
 61.770    853.000    834.607     18.393    619.583    793.328    660.819    619.583    619.583
 61.870    899.445    868.239     31.207    619.638    811.358    676.456    619.638    619.638
 61.970    932.000    931.849      0.151    619.692    852.208    699.245    619.692    619.692
 62.070   1083.659   1027.807     55.852    619.744    916.739    730.692    619.744    619.744
 62.170   1098.369   1156.394    -58.025    619.796   1004.659    771.375    619.796    619.796
 62.270   1280.361   1313.199    -32.838    619.847   1112.617    820.234    619.847    619.847
 62.370   1514.000   1486.847     27.153    619.897   1232.544    873.972    619.897    619.897
 62.470   1681.230   1657.666     23.564    619.946   1350.665    926.698    619.946    619.946
 62.570   1755.000   1798.318    -43.318    619.993   1447.905    970.159    619.993    619.993
 62.670   1827.000   1878.971    -51.971    620.040   1503.463    995.324    620.040    620.040
 62.770   1865.000   1878.822    -13.822    620.085   1502.834    995.893    620.085    620.085
 62.870   1825.146   1797.692     27.454    620.129   1445.870    971.823    620.129    620.129
 62.970   1632.929   1656.120    -23.191    620.173   1346.853    929.358    620.173    620.173
 63.070   1485.000   1483.835      1.165    620.215   1226.471    877.533    620.215    620.215
 63.170   1243.000   1308.120    -65.120    620.256   1103.714    824.641    620.256    620.256
 63.270   1168.558   1148.491     20.068    620.296    992.163    776.617    620.296    620.296
 63.370   1072.774   1015.999     56.775    620.334    899.509    736.824    620.334    620.334
 63.470    966.913    914.248     52.665    620.372    828.257    706.363    620.372    620.372
 63.570    821.000    841.477    -20.477    620.408    777.179    684.705    620.408    620.408
 63.670    808.957    792.895     16.062    620.444    742.936    670.399    620.444    620.444
 63.770    755.365    762.810     -7.445    620.478    721.564    661.717    620.478    620.478
 63.870    724.406    746.170    -21.764    620.511    709.545    657.126    620.511    620.511
 63.970    748.312    739.401      8.910    620.543    704.378    655.553    620.543    620.543
 64.070    800.000    740.703     59.297    620.573    704.764    656.497    620.573    620.573
 64.170    751.000    750.007      0.993    620.603    710.532    660.056    620.603    620.603
 64.270    755.000    768.771    -13.771    620.631    722.439    666.935    620.631    620.631
 64.370    789.209    799.648    -10.439    620.658    741.851    678.416    620.658    620.658
 64.470    879.000    845.954     33.046    620.684    770.327    696.257    620.684    620.684
 64.570    896.463    910.878    -14.415    620.709    809.062    722.451    620.709    620.709
 64.670   1014.000    996.393     17.607    620.732    858.245    758.783    620.732    620.732
 64.770   1092.000   1101.966     -9.966    620.754    916.399    806.199    620.754    620.754
 64.870   1162.023   1223.239    -61.216    620.775    979.789    864.078    620.775    620.775
 64.970   1273.707   1350.972    -77.265    620.795   1042.031    929.569    620.795    620.795
 65.070   1495.730   1470.835     24.894    620.813   1094.367    997.104    620.813    620.813
 65.170   1521.000   1565.162    -44.162    620.831   1127.515   1058.304    620.831    620.831
 65.270   1600.658   1617.308    -16.651    620.847   1135.236   1102.764    620.847    620.847
 65.370   1639.676   1617.205     22.471    620.861   1117.194   1120.751    620.861    620.861
 65.470   1521.526   1565.523    -43.996    620.875   1078.664   1107.653    620.875    620.875
 65.570   1548.000   1473.847     74.153    620.887   1027.942   1066.751    620.887    620.887
 65.670   1355.000   1359.782     -4.782    620.898    973.463   1007.209    620.898    620.898
 65.770   1232.000   1240.428     -8.428    620.908    921.761    939.592    620.908    620.908
 65.870   1128.446   1128.391      0.055    620.916    876.602    872.739    620.916    620.916
 65.970   1078.692   1030.819     47.873    620.923    839.078    812.706    620.923    620.923
 66.070    920.000    950.211    -30.211    620.929    808.409    762.775    620.929    620.929
 66.170    891.693    886.079      5.614    620.934    783.160    723.894    620.934    620.934
 66.270    864.799    836.569     28.230    620.937    762.228    695.313    620.937    620.937
 66.370    765.007    799.380    -34.373    620.939    745.035    675.312    620.939    620.939
 66.470    825.348    772.138     53.210    620.939    731.260    661.837    620.939    620.939
 66.570    730.882    752.655    -21.773    620.939    720.638    652.969    620.939    620.939
 66.670    745.000    739.130      5.870    620.936    712.920    647.156    620.936    620.936
 66.770    701.000    730.224    -29.224    620.933    707.884    643.279    620.933    620.933
 66.870    762.589    725.016     37.573    620.928    705.351    640.597    620.928    620.928
 66.970    698.000    722.944    -24.944    620.922    705.210    638.659    620.922    620.922
 67.070    653.000    723.777    -70.777    620.915    707.487    637.208    620.915    620.915
 67.170    699.000    727.667    -28.667    620.906    712.468    636.108    620.906    620.906
 67.270    778.099    735.292     42.808    620.896    720.887    635.303    620.896    620.896
 67.370    749.000    748.061      0.939    620.884    734.157    634.791    620.884    620.884
 67.470    718.000    768.382    -50.382    620.871    754.640    634.615    620.871    620.871
 67.570    825.379    799.895     25.483    620.857    785.888    634.864    620.857    620.857
 67.670    878.791    847.578     31.213    620.842    832.744    635.673    620.842    620.842
 67.770    948.000    917.535     30.465    620.825    901.144    637.211    620.825    620.825
 67.870    958.000   1016.308    -58.308    620.806    997.446    639.664    620.806    620.806
 67.970   1149.000   1149.609     -0.609    620.787   1127.200    643.192    620.787    620.787
 68.070   1262.000   1320.531    -58.531    620.765   1293.416    647.883    620.765    620.765
 68.170   1515.000   1527.510    -12.510    620.743   1494.586    653.684    620.743    620.743
 68.270   1825.629   1762.396     63.233    620.719   1722.809    660.347    620.719    620.719
 68.370   2007.000   2008.970     -1.970    620.694   1962.354    667.387    620.694    620.694
 68.470   2190.087   2242.282    -52.195    620.667   2189.017    674.057    620.667    620.667
 68.570   2418.000   2430.025    -12.025    620.639   2371.455    679.394    620.639    620.639
 68.670   2642.964   2538.530    104.434    620.609   2476.995    682.392    620.609    620.609
 68.770   2552.000   2544.519      7.481    620.578   2483.043    682.358    620.578    620.578
 68.870   2538.715   2446.538     92.177    620.546   2388.176    679.245    620.546    620.546
 68.970   2274.336   2265.805      8.531    620.512   2212.977    673.682    620.512    620.512
 69.070   2090.000   2035.543     54.457    620.477   1989.684    666.658    620.477    620.477
 69.170   1776.000   1788.680    -12.680    620.440   1750.257    659.151    620.440    620.440
 69.270   1606.000   1551.138     54.862    620.402   1519.851    651.931    620.402    620.402
 69.370   1344.000   1340.101      3.899    620.362   1315.150    645.509    620.362    620.362
 69.470   1192.257   1164.554     27.704    620.321   1144.876    640.150    620.321    620.321
 69.570   1070.000   1026.692     43.308    620.279   1011.168    635.915    620.279    620.279
 69.670    965.047    923.836     41.211    620.235    911.418    632.733    620.235    620.235
 69.770    852.171    850.444      1.727    620.190    840.253    630.437    620.190    620.190
 69.870    903.000    799.955    103.045    620.143    791.309    628.828    620.143    620.143
 69.970    864.000    766.121     97.879    620.095    758.522    627.721    620.095    620.095
 70.070    774.000    743.751     30.249    620.045    736.854    626.962    620.045    620.045
 70.170    778.000    728.952     49.048    619.994    722.527    626.433    619.994    619.994
 70.270    797.000    719.042     77.958    619.941    712.938    626.055    619.941    619.941
 70.370    749.000    712.297     36.703    619.887    706.414    625.777    619.887    619.887
 70.470    747.000    707.677     39.323    619.831    701.946    625.567    619.831    619.831
 70.570    720.000    704.593     15.407    619.774    698.961    625.410    619.774    619.774
 70.670    718.000    702.735     15.265    619.716    697.158    625.295    619.716    619.716
 70.770    728.000    701.978     26.022    619.656    696.415    625.220    619.656    619.656
 70.870    739.000    702.337     36.663    619.594    696.744    625.186    619.594    619.594
 70.970    740.352    703.968     36.383    619.531    698.295    625.202    619.531    619.531
 71.070    720.000    707.220     12.780    619.467    701.402    625.280    619.467    619.467
 71.170    759.000    712.714     46.286    619.401    706.661    625.446    619.401    619.401
 71.270    717.000    721.473     -4.473    619.334    715.055    625.740    619.334    619.334
 71.370    825.000    735.059     89.941    619.265    728.084    626.224    619.265    619.265
 71.470    748.000    755.710     -7.710    619.194    747.894    626.986    619.194    619.194
 71.570    764.000    786.389    -22.389    619.122    777.334    628.143    619.122    619.122
 71.670    827.000    830.698     -3.698    619.049    819.863    629.836    619.049    619.049
 71.770    857.000    892.551    -35.551    618.974    879.239    632.219    618.974    618.974
 71.870    937.701    975.561    -37.860    618.897    958.934    635.435    618.897    618.897
 71.970   1120.000   1082.169     37.831    618.819   1061.291    639.581    618.819    618.819
 72.070   1168.000   1212.601    -44.601    618.740   1186.528    644.666    618.740    618.740
 72.170   1346.000   1363.823    -17.823    618.659   1331.731    650.573    618.659    618.659
 72.270   1511.000   1528.659    -17.659    618.577   1490.004    657.025    618.577    618.577
 72.370   1690.000   1695.186     -5.186    618.493   1649.894    663.556    618.493    618.493
 72.470   1834.711   1846.680    -11.969    618.407   1795.331    669.516    618.407    618.407
 72.570   2049.360   1962.961     86.399    618.320   1906.927    674.118    618.320    618.320
 72.670   2020.000   2024.526     -4.526    618.232   1965.941    676.603    618.232    618.232
 72.770   2090.987   2019.372     71.615    618.142   1960.831    676.503    618.142    618.142
 72.870   1915.132   1948.531    -33.399    618.050   1892.580    673.862    618.050    618.050
 72.970   1787.963   1825.529    -37.566    617.957   1774.176    669.210    617.957    617.957
 73.070   1650.000   1670.294    -20.294    617.862   1624.766    663.323    617.862    617.862
 73.170   1487.000   1502.634    -15.634    617.766   1463.391    656.968    617.766    617.766
 73.270   1289.273   1338.580    -49.306    617.669   1305.471    650.754    617.669    617.669
 73.370   1217.000   1189.314     27.686    617.570   1161.773    645.099    617.570    617.570
 73.470   1057.000   1061.329     -4.329    617.469   1038.563    640.230    617.469    617.469
 73.570    955.000    957.094     -2.094    617.367    938.237    636.222    617.367    617.367
 73.670    905.000    875.992     29.008    617.263    860.208    633.047    617.263    617.263
 73.770    817.688    815.387      2.300    617.158    801.928    630.617    617.158    617.158
 73.870    764.000    771.647     -7.647    617.051    759.872    628.825    617.051    617.051
 73.970    791.000    740.958     50.042    616.943    730.336    627.563    616.943    616.943
 74.070    715.852    719.892     -4.040    616.833    709.982    626.742    616.833    616.833
 74.170    802.000    705.681     96.319    616.722    696.107    626.294    616.722    616.722
 74.270    695.000    696.286     -1.286    616.609    686.713    626.182    616.609    616.609
 74.370    728.219    690.319     37.900    616.494    680.425    626.391    616.494    616.494
 74.470    639.000    686.890    -47.890    616.379    676.356    626.918    616.379    616.379
 74.570    665.000    685.446    -20.446    616.261    673.952    627.764    616.261    616.261
 74.670    668.000    685.624    -17.624    616.142    672.856    628.923    616.142    616.142
 74.770    732.000    687.131     44.869    616.022    672.805    630.366    616.022    616.022
 74.870    667.000    689.664    -22.664    615.900    673.552    632.036    615.900    615.900
 74.970    715.000    692.851     22.149    615.776    674.817    633.839    615.776    615.776
 75.070    661.669    696.219    -34.550    615.651    676.262    635.644    615.651    615.651
 75.170    719.000    699.196     19.804    615.525    677.481    637.281    615.525    615.525
 75.270    728.000    701.173     26.827    615.396    678.046    638.569    615.396    615.396
 75.370    764.000    701.663     62.337    615.267    677.607    639.369    615.267    615.267
 75.470    708.000    700.519      7.481    615.136    676.042    639.658    615.136    615.136
 75.570    671.967    698.045    -26.078    615.003    673.523    639.567    615.003    615.003
 75.670    772.000    694.918     77.082    614.869    670.459    639.365    614.869    614.869
 75.770    668.000    692.008    -24.008    614.733    667.369    639.403    614.733    614.733
 75.870    725.000    690.249     34.751    614.596    664.785    640.082    614.596    614.596
 75.970    709.000    690.602     18.398    614.457    663.224    641.850    614.457    614.457
 76.070    688.000    694.064     -6.064    614.317    663.185    645.202    614.317    614.317
 76.170    687.000    701.652    -14.652    614.175    665.148    650.677    614.175    614.175
 76.270    756.000    714.368     41.632    614.032    669.562    658.827    614.032    614.032
 76.370    761.000    733.106     27.894    613.887    676.810    670.161    613.887    613.887
 76.470    745.000    758.502    -13.502    613.741    687.150    685.060    613.741    613.741
 76.570    806.246    790.757     15.489    613.593    700.644    703.662    613.593    613.593
 76.670    819.000    829.426    -10.426    613.444    717.065    725.749    613.444    613.444
 76.770    914.135    873.242     40.894    613.293    735.834    750.633    613.293    613.293
 76.870    854.000    919.944    -65.944    613.141    755.935    777.072    613.141    613.141
 76.970    941.000    966.199    -25.199    612.987    775.884    803.214    612.987    612.987
 77.070   1027.000   1007.636     19.364    612.831    793.749    826.627    612.831    612.831
 77.170   1064.591   1039.224     25.367    612.675    807.307    844.499    612.675    612.675
 77.270    996.516   1056.225    -59.709    612.516    814.468    854.185    612.516    612.516
 77.370   1010.000   1055.673    -45.673    612.357    813.923    854.027    612.357    612.357
 77.470   1000.000   1037.583    -37.583    612.195    805.675    844.034    612.195    612.195
 77.570   1014.000   1004.936      9.064    612.032    791.034    825.879    612.032    612.032
 77.670    970.000    962.459      7.541    611.868    772.076    802.207    611.868    611.868
 77.770    943.895    915.147     28.749    611.702    750.997    775.818    611.702    611.702
 77.870    807.606    867.307    -59.701    611.535    729.692    749.125    611.535    611.535
 77.970    809.000    822.194    -13.194    611.366    709.591    723.952    611.366    611.366
 78.070    802.000    781.967     20.033    611.196    691.642    701.508    611.196    611.196
 78.170    737.000    747.785    -10.785    611.025    676.356    682.444    611.025    611.025
 78.270    735.468    719.966     15.502    610.851    663.871    666.940    610.851    610.851
 78.370    686.000    698.195    -12.195    610.677    654.049    654.819    610.677    610.677
 78.470    687.070    681.746      5.324    610.501    646.567    645.676    610.501    610.501
 78.570    670.000    669.693      0.307    610.323    641.019    638.994    610.323    610.323
 78.670    693.000    661.082     31.918    610.144    636.984    634.239    610.144    610.144
 78.770    623.000    655.047    -32.047    609.964    634.081    630.927    609.964    609.964
 78.870    666.657    650.872     15.785    609.782    631.992    628.660    609.782    609.782
 78.970    659.000    648.008     10.992    609.598    630.475    627.129    609.598    609.598
 79.070    629.000    646.060    -17.060    609.413    629.356    626.115    609.413    609.413
 79.170    617.169    644.764    -27.595    609.227    628.517    625.471    609.227    609.227
 79.270    675.000    643.954     31.046    609.039    627.885    625.106    609.039    609.039
 79.370    688.000    643.539     44.461    608.850    627.417    624.970    608.850    608.850
 79.470    614.565    643.484    -28.919    608.660    627.096    625.046    608.660    608.660
 79.570    634.000    643.796     -9.796    608.468    626.919    625.342    608.468    608.468
 79.670    646.000    644.525      1.475    608.274    626.901    625.896    608.274    608.274
 79.770    619.573    645.766    -26.193    608.079    627.065    626.778    608.079    608.079
 79.870    606.929    647.673    -40.744    607.883    627.447    628.105    607.883    607.883
 79.970    640.000    650.480    -10.480    607.685    628.097    630.064    607.685    607.685
 80.070    614.000    654.530    -40.530    607.486    629.077    632.933    607.486    607.486
 80.170    623.000    660.312    -37.312    607.286    630.467    637.124    607.286    607.286
 80.270    673.000    668.499      4.501    607.084    632.366    643.208    607.084    607.084
 80.370    704.000    679.983     24.017    606.881    634.901    651.950    606.881    606.881
 80.470    664.912    695.880    -30.968    606.676    638.227    664.312    606.676    606.676
 80.570    728.002    717.504     10.499    606.470    642.527    681.426    606.470    606.470
 80.670    739.000    746.275     -7.275    606.262    648.002    704.508    606.262    606.262
 80.770    803.680    783.569     20.110    606.054    654.867    734.722    606.054    606.054
 80.870    888.430    830.510     57.920    605.843    663.333    772.980    605.843    605.843
 80.970    928.000    887.721     40.279    605.632    673.597    819.710    605.632    605.632
 81.070   1067.000    955.060    111.940    605.419    685.819    874.609    605.419    605.419
 81.170   1077.000   1031.341     45.659    605.205    700.077    936.415    605.205    605.205
 81.270   1173.000   1114.091     58.909    604.989    716.293   1002.734    604.989    604.989
 81.370   1266.000   1199.413     66.587    604.772    734.162   1069.974    604.772    604.772
 81.470   1431.000   1282.058    148.942    604.554    753.114   1133.459    604.554    604.554
 81.570   1301.793   1355.850    -54.057    604.334    772.327   1187.833    604.334    604.334
 81.670   1464.127   1414.530     49.596    604.113    790.794   1227.843    604.113    604.113
 81.770   1381.874   1453.057    -71.184    603.891    807.538   1249.427    603.891    603.891
 81.870   1575.000   1468.527    106.473    603.667    821.691   1250.542    603.667    603.667
 81.970   1559.000   1460.456     98.544    603.442    832.548   1231.410    603.442    603.442
 82.070   1507.306   1430.635     76.671    603.216    839.668   1194.262    603.216    603.216
 82.170   1474.000   1382.662     91.338    602.988    842.882   1142.862    602.988    602.988
 82.270   1244.844   1321.350    -76.506    602.759    842.249   1081.964    602.759    602.759
 82.370   1335.000   1251.919     83.081    602.529    837.942   1016.615    602.529    602.529
 82.470   1200.000   1179.185     20.815    602.298    830.170    951.423    602.298    602.298
 82.570   1104.000   1107.103     -3.103    602.065    819.228    890.048    602.065    602.065
 82.670   1082.000   1038.674     43.326    601.831    805.616    834.991    601.831    601.831
 82.770    931.526    975.984    -44.458    601.595    790.058    787.616    601.595    601.595
 82.870    878.000    920.234    -42.234    601.359    773.368    748.312    601.359    601.359
 82.970    902.338    871.798     30.539    601.121    756.272    716.725    601.121    601.121
 83.070    804.000    830.403    -26.403    600.882    739.336    692.018    600.882    600.882
 83.170    728.000    795.420    -67.420    600.642    723.003    673.118    600.642    600.642
 83.270    729.000    766.142    -37.142    600.400    707.666    658.927    600.400    600.400
 83.370    781.414    741.943     39.471    600.158    693.696    648.446    600.158    600.158
 83.470    705.000    722.325    -17.325    599.914    681.423    640.849    599.914    599.914
 83.570    640.000    706.899    -66.899    599.668    671.099    635.494    599.668    599.668
 83.670    727.738    695.352     32.385    599.422    662.882    631.908    599.422    599.422
 83.770    669.000    687.412    -18.412    599.174    656.834    629.759    599.174    599.174
 83.870    658.000    682.813    -24.813    598.926    652.923    628.814    598.926    598.926
 83.970    652.000    681.254    -29.254    598.676    651.026    628.893    598.676    598.676
 84.070    721.800    682.368     39.432    598.425    650.937    629.836    598.425    598.425
 84.170    659.000    685.688    -26.688    598.172    652.360    631.472    598.172    598.172
 84.270    697.000    690.638      6.362    597.919    654.922    633.599    597.919    597.919
 84.370    657.000    696.527    -39.527    597.664    658.173    635.975    597.664    597.664
 84.470    692.000    702.560    -10.560    597.408    661.605    638.316    597.408    597.408
 84.570    701.087    707.877     -6.790    597.151    664.672    640.304    597.151    597.151
 84.670    700.189    711.621    -11.432    596.893    666.836    641.624    596.893    596.893
 84.770    701.942    713.075    -11.134    596.634    667.650    642.005    596.634    596.634
 84.870    721.915    711.808     10.107    596.374    666.839    641.290    596.374    596.374
 84.970    671.000    707.789    -36.789    596.113    664.375    639.477    596.113    596.113
 85.070    655.000    701.378    -46.378    595.850    660.465    636.719    595.850    595.850
 85.170    706.951    693.195     13.756    595.587    655.471    633.272    595.587    595.587
 85.270    676.000    683.967     -7.967    595.322    649.821    629.435    595.322    595.322
 85.370    676.000    674.394      1.606    595.056    643.921    625.501    595.056    595.056
 85.470    606.000    665.087    -59.087    594.789    638.122    621.730    594.789    594.789
 85.570    617.000    656.536    -39.536    594.522    632.696    618.342    594.522    594.522
 85.670    624.930    649.106    -24.175    594.253    627.831    615.510    594.253    594.253
 85.770    608.460    643.036    -34.576    593.983    623.639    613.366    593.983    593.983
 85.870    632.542    638.462     -5.920    593.712    620.158    612.002    593.712    593.712
 85.970    686.000    635.430     50.570    593.440    617.378    611.479    593.440    593.440
 86.070    598.000    633.920    -35.920    593.167    615.246    611.828    593.167    593.167
 86.170    651.644    633.867     17.777    592.893    613.693    613.052    592.893    592.893
 86.270    612.000    635.171    -23.171    592.618    612.647    615.125    592.618    592.618
 86.370    652.000    637.711     14.289    592.342    612.047    617.987    592.342    592.342
 86.470    620.000    641.344    -21.344    592.065    611.852    621.536    592.065    592.065
 86.570    652.000    645.907      6.093    591.787    612.048    625.620    591.787    591.787
 86.670    641.844    651.213     -9.369    591.508    612.655    630.037    591.508    591.508
 86.770    613.479    657.054    -43.575    591.229    613.724    634.526    591.229    591.229
 86.870    659.188    663.201     -4.013    590.948    615.340    638.771    590.948    590.948
 86.970    691.000    669.410     21.590    590.666    617.616    642.419    590.666    590.666
 87.070    629.000    675.455    -46.455    590.384    620.684    645.108    590.384    590.384
 87.170    706.000    681.166     24.834    590.100    624.687    646.528    590.100    590.100
 87.270    659.565    686.491    -26.926    589.816    629.759    646.490    589.816    589.816
 87.370    710.000    691.520     18.480    589.531    636.007    644.980    589.531    589.531
 87.470    689.000    696.463     -7.463    589.245    643.482    642.154    589.245    589.245
 87.570    711.000    701.565      9.435    588.958    652.158    638.284    588.958    588.958
 87.670    725.000    707.015     17.985    588.670    661.903    633.691    588.670    588.670
 87.770    749.000    712.869     36.131    588.381    672.464    628.686    588.381    588.381
 87.870    674.730    719.009    -44.279    588.092    683.446    623.544    588.092    588.092
 87.970    750.000    725.126     24.874    587.801    694.312    618.495    587.801    587.801
 88.070    675.000    730.726    -55.726    587.510    704.389    613.720    587.510    587.510
 88.170    711.826    735.172    -23.346    587.218    712.909    609.348    587.218    587.218
 88.270    716.474    737.780    -21.307    586.926    719.110    605.461    586.926    586.926
 88.370    698.258    737.981    -39.723    586.632    722.393    602.088    586.632    586.632
 88.470    779.000    735.504     43.496    586.338    722.492    599.224    586.338    586.338
 88.570    718.000    730.469    -12.469    586.043    719.561    596.835    586.043    586.043
 88.670    693.314    723.344    -30.030    585.747    714.119    594.869    585.747    585.747
 88.770    739.000    714.810     24.190    585.451    706.902    593.270    585.451    585.451
 88.870    707.883    705.615      2.267    585.154    698.717    591.979    585.154    585.154
 88.970    705.000    696.488      8.512    584.856    690.342    590.944    584.856    584.856
 89.070    690.000    688.083      1.917    584.557    682.478    590.119    584.557    584.557
 89.170    690.233    680.945      9.289    584.258    675.709    589.464    584.258    584.258
 89.270    641.194    675.479    -34.286    583.958    670.471    588.949    583.958    583.958
 89.370    720.004    671.933     48.071    583.658    667.038    588.547    583.658    583.658
 89.470    679.929    670.371      9.559    583.356    665.496    588.236    583.356    583.356
 89.570    677.000    670.691      6.309    583.054    665.764    587.996    583.054    583.054
 89.670    701.559    672.630     28.929    582.752    667.599    587.807    582.752    582.752
 89.770    633.488    675.787    -42.299    582.449    670.618    587.651    582.449    582.449
 89.870    650.000    679.647    -29.647    582.145    674.326    587.507    582.145    582.145
 89.970    720.000    683.605     36.395    581.841    678.142    587.352    581.841    581.841
 90.070    660.632    687.017    -26.385    581.536    681.441    587.167    581.536    581.536
 90.170    725.000    689.261     35.739    581.231    683.624    586.928    581.231    581.231
 90.270    724.921    689.832     35.090    580.925    684.200    586.620    580.925    580.925
 90.370    657.000    688.434    -31.434    580.619    682.884    586.233    580.619    580.619
 90.470    657.881    685.045    -27.165    580.312    679.652    585.770    580.312    580.312
 90.570    643.517    679.891    -36.375    580.004    674.719    585.239    580.004    580.004
 90.670    687.000    673.372     13.628    579.696    668.471    584.656    579.696    579.696
 90.770    647.000    665.960    -18.960    579.388    661.361    584.041    579.388    579.388
 90.870    706.000    658.123     47.877    579.079    653.840    583.410    579.079    579.079
 90.970    658.000    650.278      7.722    578.769    646.308    582.781    578.769    578.769
 91.070    607.000    642.764    -35.764    578.460    639.093    582.166    578.460    578.460
 91.170    650.706    635.841     14.865    578.150    632.446    581.574    578.150    578.150
 91.270    580.893    629.684    -48.792    577.839    626.534    581.013    577.839    577.839
 91.370    605.000    624.393    -19.393    577.528    621.454    580.486    577.528    577.528
 91.470    614.000    620.003     -6.003    577.217    617.239    579.994    577.217    577.217
 91.570    618.000    616.495      1.505    576.905    613.873    579.538    576.905    576.905
 91.670    628.000    613.820     14.180    576.593    611.305    579.114    576.593    576.593
 91.770    643.448    611.906     31.541    576.280    609.471    578.720    576.280    576.280
 91.870    626.000    610.685     15.315    575.968    608.300    578.355    575.968    575.968
 91.970    628.155    610.096     18.058    575.654    607.737    578.014    575.654    575.654
 92.070    608.000    610.104     -2.104    575.341    607.746    577.698    575.341    575.341
 92.170    641.000    610.702     30.298    575.028    608.320    577.407    575.028    575.028
 92.270    630.870    611.916     18.954    574.714    609.485    577.140    574.714    574.714
 92.370    606.000    613.810     -7.810    574.400    611.302    576.901    574.400    574.400
 92.470    660.336    616.479     43.856    574.085    613.862    576.694    574.085    574.085
 92.570    620.000    620.050     -0.050    573.771    617.287    576.523    573.771    573.771
 92.670    601.000    624.671    -23.671    573.456    621.720    576.393    573.456    573.456
 92.770    633.887    630.502      3.385    573.141    627.316    576.310    573.141    573.141
 92.870    658.000    637.702     20.298    572.826    634.228    576.278    572.826    572.826
 92.970    674.000    646.416     27.584    572.510    642.597    576.303    572.510    572.510
 93.070    605.343    656.755    -51.412    572.195    652.532    576.387    572.195    572.195
 93.170    668.000    668.785     -0.785    571.879    664.098    576.530    571.879    571.879
 93.270    689.816    682.511      7.305    571.564    677.301    576.730    571.564    571.564
 93.370    693.000    697.864     -4.864    571.248    692.076    576.985    571.248    571.248
 93.470    708.000    714.683     -6.683    570.932    708.268    577.289    570.932    570.932
 93.570    719.000    732.731    -13.731    570.616    725.646    577.635    570.616    570.616
 93.670    743.631    751.702     -8.071    570.300    743.909    578.021    570.300    570.300
 93.770    790.000    771.172     18.828    569.984    762.636    578.441    569.984    569.984
 93.870    804.000    790.686     13.314    569.668    781.370    578.901    569.668    569.668
 93.970    821.000    809.818     11.182    569.352    799.670    579.413    569.352    569.352
 94.070    801.000    828.267    -27.267    569.037    817.208    580.005    569.037    569.037
 94.170    862.000    845.950     16.050    568.721    833.853    580.725    568.721    568.721
 94.270    832.000    863.027    -31.027    568.405    849.698    581.640    568.405    568.405
 94.370    921.396    879.833     41.563    568.089    864.998    582.831    568.089    568.089
 94.470    950.000    896.752     53.248    567.773    880.049    584.384    567.773    567.773
 94.570    893.000    914.075    -21.075    567.458    895.062    586.379    567.458    567.458
 94.670    937.861    931.914      5.947    567.142    910.086    588.879    567.142    567.142
 94.770    943.420    950.191     -6.771    566.827    925.009    591.919    566.827    566.827
 94.870    938.726    968.692    -29.966    566.512    939.619    595.497    566.512    566.512
 94.970    933.719    987.148    -53.429    566.197    953.692    599.568    566.197    566.197
 95.070   1019.000   1005.274     13.726    565.882    967.037    604.036    565.882    565.882
 95.170   1039.000   1022.733     16.267    565.568    979.465    608.756    565.568    565.568
 95.270   1089.000   1039.039     49.961    565.253    990.686    613.532    565.253    565.253
 95.370   1077.000   1053.468     23.532    564.939   1000.217    618.122    564.939    564.939
 95.470   1062.000   1065.031     -3.031    564.626   1007.344    622.251    564.626    564.626
 95.570   1138.000   1072.535     65.465    564.312   1011.165    625.627    564.312    564.312
 95.670   1068.610   1074.768     -6.159    563.999   1010.744    627.978    563.999    563.999
 95.770   1026.121   1070.734    -44.613    563.686   1005.303    629.082    563.686    563.686
 95.870   1038.000   1059.923    -21.923    563.374    994.457    628.815    563.374    563.374
 95.970   1095.000   1042.508     52.492    563.061    978.378    627.176    563.061    563.061
 96.070   1006.660   1019.364    -12.703    562.750    957.816    624.290    562.750    562.750
 96.170    959.514    991.927    -32.413    562.438    933.989    620.377    562.438    562.438
 96.270    996.000    961.977     34.023    562.127    908.397    615.711    562.127    562.127
 96.370    937.000    931.419      5.581    561.817    882.657    610.586    561.817    561.817
 96.470    900.000    902.143     -2.143    561.507    858.379    605.278    561.507    561.507
 96.570    947.000    875.924     71.076    561.197    837.093    600.035    561.197    561.197
 96.670    840.911    854.378    -13.466    560.888    820.210    595.058    560.888    560.888
 96.770    870.000    838.929     31.071    560.579    809.002    590.504    560.579    560.579
 96.870    848.000    830.794     17.206    560.271    804.578    586.478    560.271    560.271
 96.970    868.000    830.973     37.027    559.964    807.880    583.040    559.964    559.964
 97.070    928.000    840.238     87.762    559.657    819.659    580.209    559.657    559.657
 97.170    863.000    859.115      3.885    559.351    840.458    577.971    559.351    559.351
 97.270    969.000    887.829     81.171    559.045    870.540    576.288    559.045    559.045
 97.370    992.000    926.489     65.511    558.740    910.059    575.113    558.740    558.740
 97.470    982.655    974.730      7.925    558.435    958.712    574.386    558.435    558.435
 97.570   1012.000   1031.854    -19.854    558.132   1015.863    574.046    558.132    558.132
 97.670   1081.000   1096.757    -15.757    557.829   1080.473    574.027    557.829    557.829
 97.770   1209.000   1167.900     41.100    557.526   1151.068    574.266    557.526    557.526
 97.870   1276.000   1243.236     32.764    557.225   1225.669    574.694    557.225    557.225
 97.970   1386.000   1320.202     65.798    556.924   1301.787    575.239    556.924    556.924
 98.070   1455.000   1395.734     59.266    556.624   1376.434    575.826    556.624    556.624
 98.170   1488.801   1466.322     22.479    556.325   1446.180    576.374    556.325    556.325
 98.270   1601.000   1528.163     72.837    556.026   1507.304    576.802    556.026    556.026
 98.370   1606.000   1577.456     28.544    555.729   1556.085    577.030    555.729    555.729
 98.470   1669.000   1610.861     58.139    555.432   1589.252    576.989    555.432    555.432
 98.570   1640.000   1626.056     13.944    555.136   1604.527    576.630    555.136    555.136
 98.670   1704.751   1622.192     82.559    554.841   1601.082    575.937    554.841    554.841
 98.770   1571.000   1600.072    -29.072    554.547   1579.699    574.924    554.547    554.547
 98.870   1622.000   1561.946     60.054    554.254   1542.586    573.634    554.254    554.254
 98.970   1583.365   1511.064     72.301    553.962   1492.931    572.128    553.962    553.962
 99.070   1428.547   1451.169    -22.622    553.671   1434.404    570.479    553.671    553.671
 99.170   1392.000   1386.083      5.917    553.381   1370.755    568.756    553.381    553.381
 99.270   1350.149   1319.431     30.718    553.092   1305.547    567.026    553.092    553.092
 99.370   1338.000   1254.491     83.509    552.804   1241.995    565.348    552.804    552.804
 99.470   1191.000   1194.111     -3.111    552.517   1182.900    563.772    552.517    552.517
 99.570   1149.000   1140.688      8.312    552.231   1130.618    562.340    552.231    552.231
 99.670   1121.823   1096.185     25.638    551.946   1087.082    561.081    551.946    551.946
 99.770    997.099   1062.165    -65.066    551.663   1053.833    560.018    551.663    551.663
 99.870   1017.000   1039.826    -22.826    551.380   1032.057    559.164    551.380    551.380
 99.970   1041.000   1030.031     10.969    551.099   1022.613    558.523    551.099    551.099
100.070   1016.000   1033.329    -17.329    550.819   1026.053    558.094    550.819    550.819
100.170   1048.797   1049.958     -1.161    550.541   1042.624    557.867    550.541    550.541
100.270   1012.000   1079.858    -67.858    550.263   1072.281    557.827    550.263    550.263
100.370   1134.693   1122.673     12.020    549.987   1114.690    557.956    549.987    549.987
100.470   1214.597   1177.749     36.848    549.712   1169.218    558.228    549.712    549.712
100.570   1260.000   1244.118     15.882    549.439   1234.928    558.615    549.439    549.439
100.670   1258.538   1320.479    -61.942    549.167   1310.551    559.086    549.167    549.167
100.770   1477.079   1405.166     71.913    548.896   1394.457    559.604    548.896    548.896
100.870   1569.000   1496.104     72.896    548.627   1484.608    560.133    548.627    548.627
100.970   1563.076   1590.882    -27.806    548.359   1578.634    560.632    548.359    548.359
101.070   1643.623   1686.679    -43.057    548.092   1673.753    561.061    548.092    548.092
101.170   1700.072   1780.456    -80.384    547.827   1766.964    561.381    547.827    547.827
101.270   1959.573   1869.163     90.410    547.564   1855.249    561.562    547.564    547.564
101.370   2028.449   1950.013     78.435    547.302   1935.840    561.584    547.302    547.302
101.470   1957.000   2020.717    -63.717    547.041   2006.451    561.439    547.041    547.041
101.570   2010.745   2079.566    -68.821    546.783   2065.363    561.139    546.783    546.783
101.670   2090.973   2125.332    -34.360    546.525   2111.323    560.708    546.525    546.525
101.770   2217.054   2157.052     60.001    546.270   2143.333    560.180    546.270    546.270
101.870   2252.000   2173.840     78.160    546.016   2160.469    559.592    546.016    546.016
101.970   2184.000   2174.870      9.130    545.764   2161.869    558.982    545.764    545.764
102.070   2252.000   2159.598     92.402    545.513   2146.955    558.384    545.513    545.513
102.170   2137.000   2128.131      8.869    545.264   2115.803    557.826    545.264    545.264
102.270   2176.056   2081.590     94.466    545.017   2069.512    557.332    545.017    545.017
102.370   2100.000   2022.244     77.756    544.772   2010.333    556.919    544.772    544.772
102.470   1969.281   1953.319     15.961    544.529   1941.485    556.594    544.529    544.529
102.570   1897.919   1878.562     19.357    544.287   1866.714    556.359    544.287    544.287
102.670   1686.000   1801.727   -115.727    544.047   1789.782    556.206    544.047    544.047
102.770   1638.000   1726.160    -88.160    543.810   1714.051    556.120    543.810    543.810
102.870   1634.000   1654.543    -20.543    543.574   1642.224    556.081    543.574    543.574
102.970   1623.000   1588.779     34.221    543.340   1576.231    556.062    543.340    543.340
103.070   1543.000   1529.978     13.022    543.107   1517.207    556.041    543.107    543.107
103.170   1448.000   1478.488    -30.488    542.877   1465.525    555.991    542.877    542.877
103.270   1461.000   1433.957     27.043    542.649   1420.855    555.892    542.649    542.649
103.370   1462.626   1395.422     67.204    542.423   1382.251    555.727    542.423    542.423
103.470   1289.059   1361.439    -72.380    542.199   1348.285    555.479    542.199    542.199
103.570   1270.000   1330.232    -60.232    541.978   1317.197    555.133    541.978    541.978
103.670   1252.000   1299.938    -47.938    541.758   1287.135    554.678    541.758    541.758
103.770   1247.987   1268.864    -20.878    541.540   1256.412    554.107    541.540    541.540
103.870   1163.000   1235.728    -72.728    541.325   1223.745    553.421    541.325    541.325
103.970   1170.864   1199.809    -28.945    541.112   1188.404    552.628    541.112    541.112
104.070   1141.196   1160.974    -19.778    540.901   1150.239    551.745    540.901    540.901
104.170   1185.000   1119.584     65.416    540.692   1109.589    550.792    540.692    540.692
104.270   1075.000   1076.334     -1.334    540.486   1067.124    549.796    540.486    540.486
104.370   1016.000   1032.089    -16.089    540.282   1023.686    548.780    540.282    540.282
104.470   1031.000    987.761     43.239    540.080    980.162    547.768    540.080    540.080
104.570    893.010    944.222    -51.212    539.881    937.407    546.778    539.881    539.881
104.670    895.483    902.255     -6.772    539.684    896.188    545.827    539.684    539.684
104.770    847.289    862.528    -15.238    539.489    857.160    544.925    539.489    539.489
104.870    886.328    825.569     60.759    539.297    820.843    544.084    539.297    539.297
104.970    774.000    791.764    -17.764    539.108    787.619    543.306    539.108    539.108
105.070    828.000    761.337     66.663    538.921    757.714    542.590    538.921    538.921
105.170    680.728    734.413    -53.685    538.736    731.247    541.942    538.736    538.736
105.270    742.000    710.991     31.009    538.554    708.214    541.365    538.554    538.554
105.370    722.000    690.932     31.068    538.375    688.485    540.850    538.375    538.375
105.470    688.899    674.035     14.864    538.198    671.863    540.393    538.198    538.198
105.570    709.704    660.044     49.660    538.024    658.098    539.989    538.024    538.024
105.670    686.000    648.677     37.323    537.853    646.914    539.631    537.853    537.853
105.770    658.663    639.643     19.020    537.685    638.025    539.314    537.685    537.685
105.870    663.930    632.664     31.266    537.519    631.158    539.033    537.519    537.519
105.970    649.605    627.486     22.119    537.356    626.063    538.784    537.356    537.356
106.070    668.931    623.890     45.041    537.195    622.526    538.562    537.195    537.195
106.170    637.041    621.696     15.345    537.038    620.370    538.365    537.038    537.038
106.270    597.707    620.767    -23.061    536.884    619.459    538.189    536.884    536.884
106.370    639.000    621.003     17.997    536.732    619.696    538.034    536.732    536.732
106.470    656.167    622.340     33.827    536.583    621.019    537.897    536.583    536.583
106.570    643.787    624.744     19.043    536.438    623.394    537.778    536.438    536.438
106.670    635.325    628.203      7.122    536.295    626.809    537.676    536.295    536.295
106.770    639.648    632.719      6.929    536.155    631.268    537.591    536.155    536.155
106.870    667.000    638.304     28.696    536.019    636.780    537.524    536.019    536.019
106.970    656.000    644.967     11.033    535.885    643.357    537.474    535.885    535.885
107.070    605.000    652.712    -47.712    535.755    651.001    537.441    535.755    535.755
107.170    667.000    661.523      5.477    535.627    659.697    537.425    535.627    535.627
107.270    701.000    671.357     29.643    535.503    669.404    537.425    535.503    535.503
107.370    709.000    682.137     26.863    535.382    680.044    537.440    535.382    535.382
107.470    721.000    693.743     27.257    535.265    691.501    537.468    535.265    535.265
107.570    718.927    706.008     12.918    535.150    703.610    537.508    535.150    535.150
107.670    721.000    718.717      2.283    535.039    716.157    537.555    535.039    535.039
107.770    731.000    731.607     -0.607    534.932    728.885    537.606    534.932    534.932
107.870    747.415    744.369      3.046    534.827    741.491    537.657    534.827    534.827
107.970    725.818    756.661    -30.843    534.726    753.635    537.703    534.726    534.726
108.070    732.000    768.117    -36.117    534.629    764.958    537.738    534.629    534.629
108.170    781.940    778.368      3.572    534.535    775.096    537.756    534.535    534.535
108.270    781.000    787.079     -6.079    534.444    783.721    537.753    534.444    534.444
108.370    739.747    793.988    -54.241    534.357    790.574    537.725    534.357    534.357
108.470    807.711    798.951      8.760    534.274    795.513    537.668    534.274    534.274
108.570    805.000    801.970      3.030    534.194    798.541    537.582    534.194    534.194
108.670    777.945    803.205    -25.260    534.118    799.818    537.469    534.118    534.118
108.770    799.000    802.955     -3.955    534.046    799.637    537.331    534.046    534.046
108.870    788.000    801.614    -13.614    533.977    798.388    537.175    533.977    533.977
108.970    784.000    799.618    -15.618    533.912    796.501    537.005    533.912    533.912
109.070    805.866    797.400      8.466    533.851    794.403    536.827    533.851    533.851
109.170    854.191    795.343     58.848    533.793    792.473    536.648    533.793    533.793
109.270    752.000    793.762    -41.762    533.739    791.019    536.471    533.739    533.739
109.370    804.000    792.880     11.120    533.690    790.261    536.301    533.690    533.690
109.470    799.000    792.820      6.180    533.644    790.318    536.142    533.644    533.644
109.570    811.000    793.598     17.402    533.602    791.205    535.995    533.602    533.602
109.670    831.321    795.128     36.193    533.564    792.833    535.862    533.564    533.564
109.770    855.697    797.217     58.480    533.530    795.010    535.744    533.530    533.530
109.870    785.000    799.578    -14.578    533.500    797.450    535.639    533.500    533.500
109.970    776.000    801.846    -25.846    533.474    799.787    535.547    533.474    533.474
110.070    730.000    803.597    -73.597    533.453    801.601    535.466    533.453    533.453
110.170    776.000    804.394    -28.394    533.435    802.457    535.392    533.435    533.435
110.270    776.000    803.822    -27.822    533.422    801.943    535.324    533.422    533.422
110.370    778.000    801.539    -23.539    533.413    799.730    535.247    533.413    533.413
110.470    857.104    797.369     59.735    533.408    795.622    535.182    533.408    533.408
110.570    795.000    791.254      3.746    533.407    789.568    535.121    533.407    533.407
110.670    800.506    783.290     17.216    533.411    781.669    535.061    533.411    533.411
110.770    715.000    773.707    -58.707    533.419    772.152    535.003    533.419    533.419
110.870    755.555    762.817     -7.262    533.431    761.331    534.947    533.431    533.431
110.970    772.919    750.980     21.939    533.448    749.563    534.894    533.448    533.448
111.070    713.000    738.563    -25.563    533.470    737.215    534.845    533.470    533.470
111.170    726.000    725.918      0.082    533.496    724.636    534.803    533.496    533.496
111.270    705.000    713.356     -8.356    533.526    712.138    534.767    533.526    533.526
111.370    645.000    701.177    -56.177    533.561    700.018    534.740    533.561    533.561
111.470    703.000    689.609     13.391    533.601    688.506    534.722    533.601    533.601
111.570    668.000    678.842    -10.842    533.645    677.789    534.714    533.645    533.645
111.670    708.655    669.020     39.635    533.694    668.011    534.717    533.694    533.694
111.770    687.000    660.242     26.758    533.748    659.270    534.730    533.748    533.748
111.870    648.000    652.565     -4.565    533.806    651.624    534.755    533.806    533.806
111.970    695.000    646.007     48.993    533.869    645.091    534.791    533.869    533.869
112.070    688.895    640.553     48.342    533.937    639.657    534.838    533.937    533.937
112.170    623.200    636.162    -12.962    534.010    635.280    534.895    534.010    534.010
112.270    607.044    632.771    -25.727    534.088    631.897    534.963    534.088    534.088
112.370    665.424    630.301     35.123    534.171    629.430    535.040    534.171    534.171
112.470    628.573    628.664     -0.092    534.259    627.793    535.127    534.259    534.259
112.570    600.164    627.773    -27.609    534.352    626.898    535.222    534.352    534.352
112.670    638.270    627.536     10.734    534.450    626.655    535.325    534.450    534.450
112.770    670.672    627.868     42.804    534.553    626.979    535.436    534.553    534.553
112.870    580.073    628.690    -48.617    534.661    627.791    535.553    534.661    534.661
112.970    698.000    629.934     68.066    534.774    629.024    535.676    534.774    534.774
113.070    683.000    631.542     51.458    534.893    630.621    535.805    534.893    534.893
113.170    623.723    633.471     -9.748    535.017    632.540    535.939    535.017    535.017
113.270    656.993    635.692     21.301    535.146    634.749    536.079    535.146    535.146
113.370    647.000    638.191      8.809    535.281    637.237    536.224    535.281    535.281
113.470    642.000    640.968      1.032    535.420    640.003    536.375    535.420    535.420
113.570    647.613    644.044      3.569    535.566    643.067    536.532    535.566    535.566
113.670    595.130    647.453    -52.323    535.716    646.462    536.696    535.716    535.716
113.770    610.000    651.250    -41.250    535.873    650.242    536.868    535.873    535.873
113.870    630.000    655.508    -25.508    536.034    654.482    537.048    536.034    536.034
113.970    638.000    660.328    -22.328    536.202    659.278    537.238    536.202    536.202
114.070    703.570    665.839     37.730    536.375    664.760    537.440    536.375    536.375
114.170    706.000    672.207     33.793    536.553    671.092    537.653    536.553    536.553
114.270    701.482    679.644     21.838    536.738    678.484    537.881    536.738    536.738
114.370    700.000    688.420     11.580    536.928    687.203    538.126    536.928    536.928
114.470    645.947    698.872    -52.926    537.124    697.586    538.388    537.124    537.124
114.570    716.008    711.424      4.585    537.325    710.053    538.671    537.325    537.325
114.670    767.000    726.597     40.403    537.533    725.123    538.977    537.533    537.533
114.770    686.000    745.030    -59.030    537.746    743.433    539.308    537.746    537.746
114.870    744.000    767.498    -23.498    537.966    765.753    539.669    537.966    537.966
114.970    832.341    794.924     37.418    538.191    793.003    540.061    538.191    538.191
115.070    829.952    828.396      1.556    538.422    826.268    540.489    538.422    538.422
115.170    854.000    869.179    -15.179    538.660    866.810    540.955    538.660    538.660
115.270    900.000    918.718    -18.718    538.903    916.068    541.464    538.903    538.903
115.370    979.000    978.634      0.366    539.153    975.662    542.018    539.153    539.153
115.470   1041.000   1050.716     -9.716    539.409   1047.375    542.621    539.409    539.409
115.570   1127.000   1136.892     -9.892    539.671   1133.132    543.277    539.671    539.671
115.670   1218.000   1239.190    -21.190    539.939   1234.960    543.988    539.939    539.939
115.770   1369.000   1359.688      9.312    540.214   1354.933    544.756    540.214    540.214
115.870   1542.390   1500.442     41.948    540.495   1495.106    545.583    540.495    540.495
115.970   1710.972   1663.398     47.573    540.783   1657.424    546.470    540.783    540.783
116.070   1836.000   1850.296    -14.296    541.076   1843.628    547.418    541.076    541.076
116.170   2093.000   2062.556     30.444    541.377   2055.138    548.424    541.377    541.377
116.270   2324.000   2301.156     22.844    541.684   2292.938    549.486    541.684    541.684
116.370   2702.000   2566.516    135.484    541.997   2557.451    550.600    541.997    541.997
116.470   2887.000   2858.373     28.627    542.317   2848.423    551.760    542.317    542.317
116.570   3086.616   3175.678    -89.062    542.644   3164.812    552.959    542.644    542.644
116.670   3401.073   3516.496   -115.422    542.978   3504.694    554.187    542.978    542.978
116.770   3894.000   3877.921     16.079    543.318   3865.177    555.435    543.318    543.318
116.870   4303.000   4256.104     46.896    543.665   4242.421    556.691    543.665    543.665
116.970   4713.000   4646.209     66.791    544.019   4631.605    557.945    544.019    544.019
117.070   4928.755   5042.354   -113.599    544.380   5026.859    559.185    544.380    544.380
117.170   5393.000   5437.757    -44.757    544.747   5421.414    560.400    544.747    544.747
117.270   5795.000   5824.807    -29.807    545.122   5807.673    561.579    545.122    545.122
117.370   6142.000   6195.198    -53.198    545.504   6177.339    562.711    545.504    545.504
117.470   6513.000   6540.119    -27.119    545.893   6521.615    563.785    545.893    545.893
117.570   6888.000   6850.523     37.477    546.288   6831.464    564.790    546.288    546.288
117.670   7141.000   7117.492     23.508    546.691   7097.978    565.716    546.691    546.691
117.770   7338.000   7332.700      5.300    547.102   7312.841    566.553    547.102    547.102
117.870   7505.000   7488.969     16.031    547.519   7468.881    567.290    547.519    547.519
117.970   7405.000   7580.848   -175.848    547.944   7560.652    567.921    547.944    547.944
118.070   7475.000   7605.127   -130.127    548.376   7584.947    568.440    548.376    548.376
118.170   7535.000   7561.167    -26.167    548.815   7541.121    568.846    548.815    548.815
118.270   7624.000   7450.964    173.036    549.262   7431.167    569.142    549.262    549.262
118.370   7106.000   7278.936   -172.936    549.717   7259.492    569.331    549.717    549.717
118.470   6932.000   7051.477   -119.477    550.178   7032.481    569.423    550.178    550.178
118.570   6890.000   6776.388    113.612    550.648   6757.925    569.425    550.648    550.648
118.670   6485.000   6462.304     22.696    551.125   6444.446    569.348    551.125    551.125
118.770   6095.000   6118.170    -23.170    551.609   6100.979    569.204    551.609    551.609
118.870   5536.000   5752.836   -216.836    552.102   5736.364    569.003    552.102    552.102
118.970   5263.000   5374.740   -111.740    552.602   5359.027    568.756    552.602    552.602
119.070   4981.000   4991.685    -10.685    553.110   4976.760    568.477    553.110    553.110
119.170   4512.115   4610.682    -98.567    553.626   4596.565    568.176    553.626    553.626
119.270   4184.673   4237.840    -53.167    554.149   4224.538    567.867    554.149    554.149
119.370   3904.000   3878.299     25.701    554.681   3865.809    567.561    554.681    554.681
119.470   3626.000   3536.204     89.796    555.220   3524.514    567.271    555.220    555.220
119.570   3162.000   3214.713    -52.713    555.768   3203.801    567.006    555.768    555.768
119.670   2956.720   2916.041     40.679    556.324   2905.877    566.778    556.324    556.324
119.770   2617.000   2641.529    -24.529    556.887   2632.075    566.595    556.887    556.887
119.870   2516.000   2391.745    124.255    557.459   2382.957    566.464    557.459    557.459
119.970   2133.000   2166.590    -33.590    558.040   2158.419    566.393    558.040    558.040
120.070   1975.274   1965.420      9.854    558.628   1957.812    566.385    558.628    558.628
120.170   1841.000   1787.155     53.845    559.225   1780.054    566.445    559.225    559.225
120.270   1624.000   1630.395     -6.395    559.830   1623.742    566.576    559.830    559.830
120.370   1442.908   1493.515    -50.607    560.444   1487.248    566.781    560.444    560.444
120.470   1385.142   1374.759     10.383    561.066   1368.814    567.061    561.066    561.066
120.570   1311.000   1272.314     38.686    561.696   1266.626    567.418    561.696    561.696
120.670   1226.000   1184.378     41.622    562.335   1178.882    567.852    562.335    562.335
120.770   1070.709   1109.214    -38.505    562.983   1103.843    568.363    562.983    562.983
120.870   1071.000   1045.187     25.813    563.639   1039.875    568.954    563.639    563.639
120.970    995.000    990.797      4.203    564.305    985.476    569.623    564.305    564.305
121.070   1008.000    944.693     63.307    564.978    939.293    570.372    564.978    564.978
121.170    845.664    905.679    -60.014    565.661    900.130    571.201    565.661    565.661
121.270    824.557    872.712    -48.155    566.353    866.944    572.111    566.353    566.353
121.370    832.137    844.897    -12.761    567.053    838.837    573.103    567.053    567.053
121.470    851.737    821.475     30.262    567.763    815.049    574.180    567.763    567.763
121.570    797.706    801.807     -4.101    568.481    794.939    575.341    568.481    568.481
121.670    812.000    785.360     26.640    569.209    777.972    576.590    569.209    569.209
121.770    745.076    771.691    -26.616    569.945    763.704    577.928    569.945    569.945
121.870    774.000    760.437     13.563    570.691    751.768    579.357    570.691    570.691
121.970    775.282    751.294     23.988    571.446    741.861    580.878    571.446    571.446
122.070    705.000    744.015    -39.015    572.210    733.732    582.493    572.210    572.210
122.170    685.917    738.390    -52.473    572.984    727.173    584.203    572.984    572.984
122.270    725.000    734.246     -9.246    573.767    722.007    586.009    573.767    573.767
122.370    695.147    731.432    -36.286    574.559    718.086    587.911    574.559    574.559
122.470    743.000    729.821     13.179    575.361    715.282    589.908    575.361    575.361
122.570    756.375    729.298     27.077    576.172    713.481    591.998    576.172    576.172
122.670    739.000    729.758      9.242    576.993    712.581    594.181    576.993    576.993
122.770    683.000    731.103    -48.103    577.824    712.487    596.452    577.824    577.824
122.870    722.000    733.239    -11.239    578.664    713.112    598.805    578.664    578.664
122.970    701.619    736.073    -34.454    579.514    714.369    601.234    579.514    579.514
123.070    673.000    739.508    -66.508    580.374    716.172    603.728    580.374    580.374
123.170    748.018    743.447      4.571    581.244    718.436    606.275    581.244    581.244
123.270    690.506    747.787    -57.281    582.123    721.073    608.860    582.123    582.123
123.370    726.000    752.419    -26.419    583.013    723.995    611.463    583.013    583.013
123.470    693.000    757.230    -64.230    583.912    727.108    614.063    583.912    583.912
123.570    776.000    762.099     13.901    584.822    730.317    616.635    584.822    584.822
123.670    759.000    766.900     -7.900    585.742    733.524    619.152    585.742    585.742
123.770    777.000    771.505      5.495    586.672    736.628    621.586    586.672    586.672
123.870    767.000    775.781     -8.781    587.612    739.528    623.904    587.612    587.612
123.970    791.894    779.597     12.297    588.562    742.125    626.077    588.562    588.562
124.070    795.000    782.825     12.175    589.523    744.321    628.072    589.523    589.523
124.170    786.638    785.344      1.293    590.494    746.025    629.861    590.494    590.494
124.270    806.000    787.032     18.968    591.475    747.140    631.418    591.475    591.475
124.370    852.000    787.838     64.162    592.467    747.634    632.725    592.467    592.467
124.470    857.000    787.721     69.279    593.470    747.478    633.768    593.470    593.470
124.570    851.000    786.642     64.358    594.483    746.638    634.544    594.483    594.483
124.670    795.000    784.608     10.392    595.506    745.118    635.055    595.506    595.506
124.770    843.000    781.661     61.339    596.541    742.947    635.314    596.541    596.541
124.870    857.000    777.868     79.132    597.586    740.174    635.340    597.586    597.586
124.970    864.000    773.319     90.681    598.642    736.863    635.158    598.642    598.642
