neutron_powder_diffraction_0005
R_wp: 3.529
Temperature (K): 439.250
Counts: 83761.00
Wavelength (Ã…): 2.52098
COMMENTS
Test file for demonstrating the .xyy file format in Reel1.0
END OF HEADER
   tth       Y_obs     Y_calc      Y_res    Background    Phase_1_Nuc    Phase_1_Mag    Phase_2_Nuc    Phase_2_Mag
  9.970    711.000    755.422    -44.422    753.741    754.704    754.458    753.741    753.741
 10.070    814.000    754.313     59.687    752.548    753.587    753.274    752.548    752.548
 10.170    713.000    753.221    -40.221    751.362    752.488    752.095    751.362    751.362
 10.270    782.000    752.149     29.851    750.183    751.408    750.924    750.183    750.183
 10.370    767.000    751.098     15.902    749.010    750.349    749.759    749.010    749.010
 10.470    724.000    750.072    -26.072    747.844    749.315    748.601    747.844    747.844
 10.570    752.000    749.075      2.925    746.685    748.309    747.450    746.685    746.685
 10.670    817.000    748.112     68.888    745.532    747.338    746.306    745.532    745.532
 10.770    766.000    747.190     18.810    744.386    746.407    745.168    744.386    744.386
 10.870    747.497    746.318      1.179    743.246    745.526    744.037    743.246    743.246
 10.970    729.311    745.508    -16.197    742.113    744.707    742.912    742.113    742.113
 11.070    780.640    744.780     35.860    740.986    743.970    741.794    740.986    740.986
 11.170    767.000    744.153     22.847    739.866    743.334    740.683    739.866    739.866
 11.270    783.996    743.665     40.330    738.752    742.836    739.579    738.752    738.752
 11.370    765.000    743.384     21.616    737.645    742.545    738.481    737.645    737.645
 11.470    741.571    743.491     -1.920    736.544    742.641    737.390    736.544    736.544
 11.570    751.345    744.051      7.294    735.450    743.190    736.306    735.450    735.450
 11.670    768.981    745.583     23.398    734.362    744.711    735.228    734.362    734.362
 11.770    754.767    749.202      5.565    733.280    748.318    734.156    733.280    733.280
 11.870    801.000    756.816     44.184    732.205    755.917    733.091    732.205    732.205
 11.970    831.000    770.871     60.129    731.136    769.953    732.033    731.136    731.136
 12.070    851.000    792.913     58.087    730.073    791.972    730.981    730.073    730.073
 12.170    900.000    820.756     79.244    729.017    819.788    729.935    729.017    729.017
 12.270    841.781    845.226     -3.445    727.967    844.233    728.897    727.967    727.967
 12.370    837.216    851.797    -14.581    726.924    850.789    727.864    726.924    726.924
 12.470    878.000    834.427     43.573    725.887    833.416    726.838    725.887    725.887
 12.570    822.000    804.590     17.410    724.856    803.584    725.819    724.856    724.856
 12.670    774.000    776.205     -2.205    723.831    775.201    724.806    723.831    723.831
 12.770    731.775    755.347    -23.572    722.812    754.343    723.800    722.812    722.812
 12.870    689.000    742.190    -53.190    721.800    741.180    722.800    721.800    721.800
 12.970    720.000    734.495    -14.495    720.794    733.476    721.806    720.794    720.794
 13.070    696.000    729.904    -33.904    719.794    728.874    720.819    719.794    719.794
 13.170    759.000    726.857     32.143    718.801    725.815    719.839    718.801    718.801
 13.270    717.000    724.569     -7.569    717.813    723.514    718.865    717.813    717.813
 13.370    688.000    722.656    -34.656    716.832    721.588    717.897    716.832    716.832
 13.470    661.000    720.983    -59.983    715.856    719.902    716.935    715.856    715.856
 13.570    753.354    719.477     33.877    714.887    718.382    715.980    714.887    714.887
 13.670    682.862    718.092    -35.230    713.924    716.983    715.032    713.924    713.924
 13.770    714.000    716.799     -2.799    712.967    715.675    714.089    712.967    712.967
 13.870    677.820    715.577    -37.757    712.016    714.439    713.153    712.016    712.016
 13.970    756.225    714.411     41.814    711.071    713.258    712.224    711.071    711.071
 14.070    761.395    713.291     48.104    710.132    712.122    711.300    710.132    710.132
 14.170    754.000    712.208     41.792    709.199    711.024    710.383    709.199    709.199
 14.270    719.097    711.157      7.940    708.273    709.956    709.472    708.273    708.273
 14.370    691.000    710.132    -19.132    707.352    708.915    708.568    707.352    707.352
 14.470    686.000    709.130    -23.130    706.437    707.897    707.670    706.437    706.437
 14.570    730.000    708.149     21.851    705.528    706.898    706.778    705.528    705.528
 14.670    713.054    707.185      5.869    704.625    705.917    705.892    704.625    704.625
 14.770    688.000    706.238    -18.238    703.727    704.952    705.013    703.727    703.727
 14.870    672.000    705.312    -33.312    702.836    704.007    704.140    702.836    702.836
 14.970    721.000    704.392     16.608    701.951    703.069    703.274    701.951    701.951
 15.070    683.000    703.485    -20.485    701.071    702.142    702.413    701.071    701.071
 15.170    689.000    702.590    -13.590    700.197    701.228    701.559    700.197    700.197
 15.270    721.340    701.707     19.633    699.329    700.326    700.711    699.329    699.329
 15.370    692.000    700.852     -8.852    698.467    699.450    699.869    698.467    698.467
 15.470    731.396    700.004     31.392    697.611    698.581    699.034    697.611    697.611
 15.570    682.000    699.150    -17.150    696.760    697.705    698.205    696.760    696.760
 15.670    676.000    698.303    -22.303    695.916    696.836    697.382    695.916    695.916
 15.770    681.000    697.464    -16.464    695.077    695.976    696.565    695.077    695.077
 15.870    644.000    696.635    -52.635    694.243    695.123    695.755    694.243    694.243
 15.970    716.000    695.813     20.187    693.416    694.278    694.950    693.416    693.416
 16.070    705.188    694.999     10.188    692.594    693.440    694.152    692.594    692.594
 16.170    692.000    694.193     -2.193    691.778    692.610    693.361    691.778    691.778
 16.270    694.000    693.396      0.604    690.967    691.787    692.575    690.967    690.967
 16.370    668.000    692.605    -24.605    690.162    690.971    691.796    690.162    690.162
 16.470    639.959    691.822    -51.863    689.363    690.162    691.023    689.363    689.363
 16.570    675.791    691.046    -15.255    688.569    689.359    690.256    688.569    688.569
 16.670    654.889    690.278    -35.388    687.781    688.563    689.496    687.781    687.781
 16.770    678.000    689.516    -11.516    686.998    687.773    688.741    686.998    686.998
 16.870    657.000    688.762    -31.762    686.221    686.990    687.993    686.221    686.221
 16.970    693.000    688.015      4.985    685.450    686.213    687.252    685.450    685.450
 17.070    637.168    687.274    -50.107    684.684    685.442    686.516    684.684    684.684
 17.170    703.307    686.542     16.765    683.923    684.678    685.787    683.923    683.923
 17.270    670.000    685.821    -15.821    683.168    683.925    685.065    683.168    683.168
 17.370    720.000    685.112     34.888    682.419    683.182    684.348    682.419    682.419
 17.470    690.987    684.401      6.586    681.675    682.437    683.638    681.675    681.675
 17.570    729.034    683.696     45.338    680.936    681.697    682.935    680.936    680.936
 17.670    699.000    682.998     16.002    680.203    680.962    682.238    680.203    680.203
 17.770    701.000    682.311     18.689    679.475    680.239    681.547    679.475    679.475
 17.870    673.611    681.680     -8.069    678.753    679.568    680.864    678.753    678.753
 17.970    704.163    681.025     23.138    678.036    678.874    680.187    678.036    678.036
 18.070    690.000    680.356      9.644    677.324    678.165    679.515    677.324    677.324
 18.170    690.089    679.692     10.397    676.618    677.460    678.850    676.618    676.618
 18.270    691.000    679.035     11.965    675.917    676.761    678.191    675.917    675.917
 18.370    675.000    678.386     -3.386    675.221    676.068    677.538    675.221    675.221
 18.470    700.000    677.743     22.257    674.530    675.381    676.892    674.530    674.530
 18.570    643.289    677.107    -33.817    673.845    674.699    676.253    673.845    673.845
 18.670    736.000    676.478     59.522    673.165    674.023    675.620    673.165    673.165
 18.770    648.000    675.858    -27.858    672.490    673.354    674.994    672.490    672.490
 18.870    721.494    675.246     46.247    671.821    672.692    674.375    671.821    671.821
 18.970    661.111    674.639    -13.528    671.157    672.033    673.762    671.157    671.157
 19.070    650.926    674.039    -23.113    670.497    671.380    673.157    670.497    670.497
 19.170    694.032    673.455     20.577    669.843    670.740    672.558    669.843    669.843
 19.270    683.262    672.876     10.386    669.195    670.104    671.967    669.195    669.195
 19.370    673.000    672.329      0.671    668.551    669.488    671.392    668.551    668.551
 19.470    699.544    671.806     27.737    667.912    668.889    670.830    667.912    667.912
 19.570    724.494    671.248     53.246    667.279    668.266    670.261    667.279    667.279
 19.670    631.000    670.693    -39.693    666.650    667.646    669.697    666.650    666.650
 19.770    630.000    670.145    -40.145    666.027    667.032    669.140    666.027    666.027
 19.870    663.000    669.608     -6.608    665.408    666.425    668.591    665.408    665.408
 19.970    721.767    669.095     52.672    664.795    665.841    668.049    664.795    664.795
 20.070    663.000    668.579     -5.579    664.187    665.251    667.515    664.187    664.187
 20.170    623.305    668.064    -44.759    663.583    664.660    666.988    663.583    663.583
 20.270    657.000    667.558    -10.558    662.985    664.074    666.469    662.985    662.985
 20.370    709.778    667.061     42.717    662.392    663.495    665.957    662.392    662.392
 20.470    667.000    666.586      0.414    661.803    662.935    665.454    661.803    661.803
 20.570    650.276    666.129    -15.853    661.219    662.384    664.965    661.219    661.219
 20.670    636.197    665.700    -29.503    660.641    661.843    664.498    660.641    660.641
 20.770    709.959    665.251     44.708    660.067    661.292    664.026    660.067    660.067
 20.870    660.000    664.836     -4.836    659.498    660.777    663.557    659.498    659.498
 20.970    625.000    664.449    -39.449    658.934    660.287    663.097    658.934    658.934
 21.070    653.000    664.021    -11.021    658.375    659.752    662.644    658.375    658.375
 21.170    620.000    663.600    -43.600    657.820    659.221    662.200    657.820    657.820
 21.270    662.000    663.208     -1.208    657.270    658.713    661.766    657.270    657.270
 21.370    634.000    662.842    -28.842    656.726    658.224    661.344    656.726    656.726
 21.470    656.295    662.473     -6.178    656.185    657.723    660.935    656.185    656.185
 21.570    626.000    662.102    -36.102    655.650    657.221    660.531    655.650    655.650
 21.670    632.404    661.738    -29.334    655.119    656.722    660.136    655.119    655.119
 21.770    655.000    661.386     -6.386    654.593    656.229    659.751    654.593    654.593
 21.870    618.000    661.045    -43.045    654.072    655.741    659.376    654.072    654.072
 21.970    676.428    660.718     15.710    653.556    655.260    659.013    653.556    653.556
 22.070    686.000    660.406     25.594    653.044    654.788    658.662    653.044    653.044
 22.170    634.000    660.109    -26.109    652.536    654.323    658.323    652.536    652.536
 22.270    634.000    659.827    -25.827    652.034    653.865    657.996    652.034    652.034
 22.370    674.000    659.562     14.438    651.536    653.416    657.682    651.536    651.536
 22.470    641.000    659.315    -18.315    651.042    652.977    657.381    651.042    651.042
 22.570    694.000    659.091     34.909    650.553    652.550    657.095    650.553    650.553
 22.670    638.270    658.888    -20.619    650.069    652.133    656.824    650.069    650.069
 22.770    691.806    658.705     33.101    649.589    651.727    656.567    649.589    649.589
 22.870    638.000    658.546    -20.546    649.114    651.333    656.326    649.114    649.114
 22.970    660.000    658.412      1.588    648.643    650.953    656.102    648.643    648.643
 23.070    643.000    658.307    -15.307    648.176    650.588    655.896    648.176    648.176
 23.170    682.000    658.234     23.766    647.714    650.242    655.707    647.714    647.714
 23.270    685.312    658.198     27.115    647.257    649.917    655.539    647.257    647.257
 23.370    613.000    658.202    -45.202    646.804    649.616    655.391    646.804    646.804
 23.470    618.000    658.255    -40.255    646.355    649.346    655.265    646.355    646.355
 23.570    641.000    658.363    -17.363    645.911    649.112    655.163    645.911    645.911
 23.670    698.000    658.536     39.464    645.471    648.923    655.086    645.471    645.471
 23.770    688.000    658.788     29.212    645.036    648.791    655.034    645.036    645.036
 23.870    657.364    659.137     -1.774    644.605    648.733    655.011    644.605    644.605
 23.970    633.000    659.611    -26.611    644.178    648.773    655.018    644.178    644.178
 24.070    678.305    660.251     18.054    643.755    648.952    655.057    643.755    643.755
 24.170    634.999    661.138    -26.140    643.337    649.347    655.131    643.337    643.337
 24.270    696.989    662.440     34.549    642.923    650.123    655.244    642.923    642.923
 24.370    683.167    664.520     18.647    642.513    651.641    655.397    642.513    642.513
 24.470    695.000    668.089     26.911    642.108    654.609    655.595    642.108    642.108
 24.570    714.000    674.285     39.715    641.706    660.162    655.841    641.706    641.706
 24.670    697.466    684.441     13.025    641.309    669.630    656.139    641.309    641.309
 24.770    676.000    699.279    -23.279    640.916    683.730    656.495    640.916    640.916
 24.870    695.934    717.524    -21.589    640.528    701.178    656.915    640.528    640.528
 24.970    760.450    734.234     26.217    640.143    717.026    657.404    640.143    640.143
 25.070    771.455    741.104     30.351    639.762    722.954    657.971    639.762    639.762
 25.170    779.000    733.637     45.363    639.386    714.453    658.623    639.386    639.386
 25.270    673.004    717.456    -44.451    639.014    697.139    659.371    639.014    639.014
 25.370    721.693    700.826     20.866    638.646    679.274    660.225    638.646    638.646
 25.470    700.646    688.109     12.537    638.281    665.209    661.199    638.281    638.281
 25.570    731.759    680.164     51.595    637.921    655.789    662.307    637.921    637.921
 25.670    678.000    676.107      1.893    637.565    650.112    663.568    637.565    637.565
 25.770    719.000    674.614     44.386    637.213    646.830    665.002    637.213    637.213
 25.870    683.000    674.634      8.366    636.865    644.867    666.635    636.865    636.865
 25.970    668.000    675.541     -7.541    636.521    643.570    668.495    636.521    636.521
 26.070    701.000    677.066     23.934    636.181    642.627    670.622    636.181    636.181
 26.170    700.320    679.098     21.222    635.844    641.893    673.050    635.844    635.844
 26.270    680.000    681.627     -1.627    635.512    641.305    675.834    635.512    635.512
 26.370    656.000    684.683    -28.683    635.184    640.828    679.039    635.184    635.184
 26.470    663.000    688.328    -25.328    634.859    640.444    682.742    634.859    634.859
 26.570    660.302    692.647    -32.345    634.538    640.141    687.044    634.538    634.538
 26.670    720.000    697.760     22.240    634.222    639.914    692.066    634.222    634.222
 26.770    687.000    703.824    -16.824    633.909    639.762    697.969    633.909    633.909
 26.870    697.000    711.048    -14.048    633.599    639.688    704.958    633.599    633.599
 26.970    683.198    719.711    -36.512    633.294    639.700    713.302    633.294    633.294
 27.070    746.617    730.188     16.429    632.992    639.810    723.367    632.992    632.992
 27.170    728.000    742.990    -14.990    632.694    640.039    735.640    632.694    632.694
 27.270    729.000    758.813    -29.813    632.400    640.414    750.793    632.400    632.400
 27.370    732.000    778.671    -46.671    632.110    640.976    769.798    632.110    632.110
 27.470    824.000    804.053     19.947    631.823    641.788    794.078    631.823    631.823
 27.570    819.000    837.350    -18.350    631.540    642.951    825.927    631.540    631.540
 27.670    839.797    883.351    -43.554    631.261    644.665    869.930    631.261    631.261
 27.770    935.000    955.096    -20.096    630.985    647.473    938.582    630.985    630.985
 27.870   1089.000   1092.921     -3.921    630.713    653.052   1070.531    630.713    630.713
 27.970   1457.720   1406.643     51.078    630.444    665.959   1371.017    630.444    630.444
 28.070   2082.000   2119.168    -37.168    630.179    695.439   2053.657    630.179    630.179
 28.170   3479.639   3511.557    -31.919    629.918    753.155   3387.826    629.918    629.918
 28.270   5777.162   5654.396    122.765    629.660    842.062   5441.209    629.660    629.660
 28.370   7805.000   8017.660   -212.660    629.406    940.269   7705.860    629.406    629.406
 28.470   9363.000   9388.551    -25.551    629.155    997.698   9019.285    629.155    629.155
 28.570   8875.000   8829.884     45.116    628.908    975.954   8482.636    628.908    628.908
 28.670   6822.032   6928.605   -106.573    628.665    900.336   6657.135    628.665    628.665
 28.770   5057.886   5046.175     11.711    628.424    828.937   4845.967    628.424    628.424
 28.870   4228.000   4088.981    139.019    628.188    801.078   3916.317    628.188    628.188
 28.970   4171.000   4177.327     -6.327    627.954    821.791   3983.637    627.954    627.954
 29.070   4963.000   4836.758    126.242    627.725    867.372   4597.290    627.725    627.725
 29.170   5327.000   5292.692     34.308    627.498    896.931   5023.600    627.498    627.498
 29.270   5038.000   4966.871     71.129    627.275    879.235   4715.434    627.275    627.275
 29.370   3896.373   3982.721    -86.348    627.055    822.516   3787.821    627.055    627.055
 29.470   2833.000   2856.207    -23.207    626.839    757.232   2726.266    626.839    626.839
 29.570   1904.000   1961.724    -57.724    626.626    705.353   1883.294    626.626    626.626
 29.670   1454.527   1398.432     56.096    626.416    672.723   1352.293    626.416    626.416
 29.770   1238.000   1096.573    141.427    626.210    655.304   1067.566    626.210    626.210
 29.870    996.000    946.832     49.168    626.007    646.742    926.143    626.007    626.007
 29.970    930.000    869.448     60.552    625.807    642.402    852.880    625.807    625.807
 30.070    904.000    823.503     80.497    625.610    639.917    809.214    625.610    625.610
 30.170    834.000    792.133     41.867    625.417    638.325    779.239    625.417    625.417
 30.270    737.293    768.953    -31.659    625.227    637.286    756.903    625.227    625.227
 30.370    749.000    751.354     -2.354    625.040    636.712    739.688    625.040    625.040
 30.470    785.000    738.223     46.777    624.856    636.689    726.393    624.856    624.856
 30.570    769.011    729.469     39.542    624.675    637.558    716.587    624.675    624.675
 30.670    703.000    726.167    -23.167    624.498    640.078    710.582    624.498    624.498
 30.770    779.000    730.540     48.460    624.323    645.465    709.386    624.323    624.323
 30.870    775.000    744.994     30.006    624.152    654.966    714.155    624.152    624.152
 30.970    758.000    769.672    -11.672    623.984    668.753    724.861    623.984    623.984
 31.070    828.000    799.030     28.970    623.819    684.355    738.436    623.819    623.819
 31.170    813.000    819.883     -6.883    623.657    695.764    747.711    623.657    623.657
 31.270    797.899    817.733    -19.834    623.498    696.352    744.819    623.498    623.498
 31.370    742.000    791.198    -49.198    623.342    685.518    728.975    623.342    623.342
 31.470    774.000    753.783     20.217    623.189    669.514    707.427    623.189    623.189
 31.570    754.000    719.382     34.618    623.039    654.763    687.640    623.039    623.039
 31.670    644.563    694.234    -49.670    622.892    644.160    672.956    622.892    622.892
 31.770    736.000    678.403     57.597    622.748    637.752    663.393    622.748    622.748
 31.870    723.237    669.222     54.015    622.606    634.327    657.499    622.606    622.606
 31.970    640.080    663.874    -23.793    622.468    632.600    653.740    622.468    622.468
 32.070    673.259    660.482     12.777    622.333    631.718    651.095    622.333    622.333
 32.170    657.000    658.094     -1.094    622.200    631.254    649.039    622.200    622.200
 32.270    651.000    656.299     -5.299    622.071    631.027    647.343    622.071    622.071
 32.370    641.639    654.932    -13.293    621.944    630.970    645.906    621.944    621.944
 32.470    698.000    653.920     44.080    621.820    631.058    644.681    621.820    621.820
 32.570    687.000    653.231     33.769    621.699    631.288    643.642    621.699    621.699
 32.670    612.882    652.857    -39.975    621.581    631.663    642.774    621.581    621.581
 32.770    653.918    652.808      1.110    621.465    632.202    642.071    621.465    621.465
 32.870    600.494    653.109    -52.615    621.352    632.929    641.533    621.352    621.352
 32.970    661.000    653.811      7.189    621.242    633.884    641.170    621.242    621.242
 33.070    691.000    654.989     36.011    621.135    635.124    641.000    621.135    621.135
 33.170    720.000    656.758     63.242    621.030    636.732    641.056    621.030    621.030
 33.270    652.680    659.298     -6.619    620.929    638.835    641.392    620.929    620.929
 33.370    707.081    662.927     44.154    620.829    641.652    642.104    620.829    620.829
 33.470    686.000    668.293     17.707    620.733    645.628    643.397    620.733    620.733
 33.570    701.037    676.884     24.153    620.639    651.782    645.740    620.639    620.639
 33.670    663.758    692.055    -28.297    620.548    662.403    650.198    620.548    620.548
 33.770    734.000    720.440     13.560    620.459    682.020    658.875    620.459    620.459
 33.870    736.000    772.597    -36.597    620.373    717.836    675.126    620.373    620.373
 33.970    820.277    860.492    -40.215    620.289    778.018    702.749    620.289    620.289
 34.070   1000.000    989.935     10.065    620.208    866.531    743.592    620.208    620.208
 34.170   1161.000   1148.886     12.114    620.130    975.165    793.828    620.130    620.130
 34.270   1195.000   1295.206   -100.206    620.054   1075.173    840.068    620.054    620.054
 34.370   1358.000   1359.202     -1.202    619.980   1119.011    860.170    619.980    619.980
 34.470   1278.000   1298.792    -20.792    619.909   1077.964    840.761    619.909    619.909
 34.570   1104.429   1153.757    -49.329    619.841    979.162    794.474    619.841    619.841
 34.670    999.193    993.761      5.432    619.775    870.132    743.441    619.775    619.775
 34.770    890.438    862.129     28.309    619.711    780.440    701.430    619.711    619.711
 34.870    761.000    771.897    -10.897    619.650    718.982    672.585    619.650    619.650
 34.970    748.745    717.751     30.994    619.591    682.138    655.217    619.591    619.591
 35.070    714.014    687.826     26.188    619.535    661.812    645.556    619.535    619.535
 35.170    694.000    671.451     22.549    619.481    650.723    640.213    619.481    619.481
 35.270    706.000    661.837     44.163    619.429    644.240    637.029    619.429    619.429
 35.370    693.000    655.520     37.480    619.380    639.998    634.904    619.380    619.380
 35.470    614.254    650.952    -36.698    619.333    636.941    633.345    619.333    619.333
 35.570    619.000    647.451    -28.451    619.288    634.603    632.137    619.288    619.288
 35.670    660.099    644.685     15.414    619.246    632.758    631.174    619.246    619.246
 35.770    683.000    642.463     40.537    619.205    631.273    630.396    619.205    619.205
 35.870    671.000    640.657     30.343    619.167    630.063    629.763    619.167    619.167
 35.970    655.000    639.179     15.821    619.132    629.064    629.247    619.132    619.132
 36.070    596.754    637.964    -41.210    619.098    628.234    628.830    619.098    619.098
 36.170    664.327    636.968     27.359    619.067    627.537    628.498    619.067    619.067
 36.270    682.923    636.155     46.768    619.038    626.951    628.243    619.038    619.038
 36.370    609.789    635.503    -25.713    619.011    626.456    628.058    619.011    619.011
 36.470    624.000    634.994    -10.994    618.986    626.038    627.943    618.986    618.986
 36.570    629.000    634.619     -5.619    618.963    625.687    627.896    618.963    618.963
 36.670    589.411    634.374    -44.962    618.943    625.394    627.923    618.943    618.943
 36.770    600.000    634.260    -34.260    618.924    625.155    628.030    618.924    618.924
 36.870    692.000    634.286     57.714    618.908    624.967    628.228    618.908    618.908
 36.970    596.000    634.469    -38.469    618.894    624.831    628.533    618.894    618.894
 37.070    652.337    634.840     17.497    618.881    624.754    628.968    618.881    618.881
 37.170    680.830    635.454     45.376    618.871    624.757    629.569    618.871    618.871
 37.270    609.000    636.410    -27.410    618.863    624.880    630.394    618.863    618.863
 37.370    695.000    637.891     57.109    618.856    625.199    631.550    618.856    618.856
 37.470    682.631    640.240     42.391    618.852    625.834    633.260    618.852    618.852
 37.570    643.000    644.083     -1.083    618.850    626.930    636.005    618.850    618.850
 37.670    699.000    650.512     48.488    618.850    628.618    640.746    618.850    618.850
 37.770    685.267    661.222     24.045    618.851    630.926    649.150    618.851    618.851
 37.870    700.092    678.354     21.738    618.855    633.667    663.546    618.855    618.855
 37.970    685.000    703.700    -18.700    618.860    636.312    686.253    618.860    618.860
 38.070    737.000    737.231     -0.231    618.867    638.013    718.093    618.867    618.867
 38.170    747.843    775.491    -27.649    618.876    638.095    756.285    618.876    618.876
 38.270    763.000    810.012    -47.012    618.887    636.642    792.276    618.887    618.887
 38.370    791.902    827.505    -35.603    618.900    634.286    812.144    618.900    618.900
 38.470    781.000    818.227    -37.227    618.915    631.655    805.516    618.915    618.915
 38.570    783.000    786.531     -3.531    618.931    629.212    776.279    618.931    618.931
 38.670    699.000    746.144    -47.144    618.949    627.237    737.880    618.949    618.949
 38.770    736.847    708.789     28.057    618.969    625.813    701.963    618.969    618.969
 38.870    682.000    680.055      1.945    618.991    624.874    674.184    618.991    618.991
 38.970    664.000    660.677      3.323    619.015    624.295    655.405    619.015    619.015
 39.070    662.000    648.813     13.187    619.040    623.950    643.908    619.040    619.040
 39.170    622.007    641.935    -19.928    619.067    623.745    637.260    619.067    619.067
 39.270    600.021    637.947    -37.926    619.095    623.628    633.416    619.095    619.095
 39.370    598.000    635.491    -37.491    619.125    623.561    631.057    619.125    619.125
 39.470    584.150    633.837    -49.687    619.157    623.527    629.469    619.157    619.157
 39.570    604.000    632.632    -28.632    619.191    623.516    628.308    619.191    619.191
 39.670    641.000    631.709      9.291    619.226    623.523    627.413    619.226    619.226
 39.770    662.000    630.983     31.017    619.263    623.546    626.700    619.263    619.263
 39.870    678.000    630.405     47.595    619.301    623.583    626.124    619.301    619.301
 39.970    664.529    629.943     34.586    619.341    623.633    625.652    619.341    619.341
 40.070    616.000    629.573    -13.573    619.382    623.694    625.262    619.382    619.382
 40.170    618.000    629.279    -11.279    619.425    623.767    624.938    619.425    619.425
 40.270    580.810    629.047    -48.237    619.470    623.851    624.667    619.470    619.470
 40.370    670.000    628.870     41.130    619.516    623.947    624.440    619.516    619.516
 40.470    660.000    628.739     31.261    619.563    624.054    624.249    619.563    619.563
 40.570    622.000    628.649     -6.649    619.612    624.174    624.088    619.612    619.612
 40.670    651.415    628.598     22.817    619.663    624.308    623.954    619.663    619.663
 40.770    647.441    628.582     18.859    619.715    624.456    623.842    619.715    619.715
 40.870    670.000    628.601     41.399    619.768    624.620    623.750    619.768    619.768
 40.970    676.669    628.653     48.016    619.823    624.803    623.674    619.823    619.823
 41.070    674.421    628.740     45.681    619.879    625.006    623.614    619.879    619.879
 41.170    650.000    628.864     21.136    619.936    625.235    623.567    619.936    619.936
 41.270    617.539    629.028    -11.489    619.995    625.491    623.532    619.995    619.995
 41.370    619.000    629.235    -10.235    620.055    625.782    623.509    620.055    620.055
 41.470    636.249    629.493      6.756    620.117    626.115    623.497    620.117    620.117
 41.570    585.000    629.812    -44.812    620.180    626.498    623.494    620.180    620.180
 41.670    590.115    630.202    -40.087    620.244    626.946    623.502    620.244    620.244
 41.770    647.851    630.683     17.168    620.309    627.475    623.520    620.309    620.309
 41.870    667.000    631.285     35.715    620.376    628.115    623.548    620.376    620.376
 41.970    640.404    632.058      8.346    620.444    628.916    623.588    620.444    620.444
 42.070    634.383    633.105      1.279    620.513    629.977    623.644    620.513    620.513
 42.170    627.214    634.631     -7.417    620.583    631.495    623.723    620.583    620.583
 42.270    639.000    637.035      1.965    620.655    633.856    623.839    620.655    620.655
 42.370    634.000    641.009     -7.009    620.728    637.724    624.019    620.728    620.728
 42.470    620.000    647.575    -27.575    620.802    644.085    624.301    620.802    620.802
 42.570    633.000    657.936    -24.936    620.877    654.097    624.729    620.877    620.877
 42.670    656.000    673.032    -17.032    620.953    668.667    625.340    620.953    620.953
 42.770    674.000    692.808    -18.808    621.031    687.739    626.131    621.031    621.031
 42.870    696.384    715.313    -18.929    621.109    709.437    627.027    621.109    621.109
 42.970    696.000    735.874    -39.874    621.189    729.262    627.854    621.189    621.189
 43.070    707.422    747.565    -40.143    621.269    740.546    628.350    621.269    621.269
 43.170    771.849    745.199     26.650    621.351    738.294    628.319    621.351    621.351
 43.270    718.104    730.055    -11.951    621.434    723.736    627.810    621.434    621.434
 43.370    714.922    708.477      6.445    621.518    702.980    627.061    621.518    621.518
 43.470    723.270    686.786     36.484    621.603    682.112    626.311    621.603    621.603
 43.570    585.000    668.693    -83.693    621.689    664.707    625.699    621.689    621.689
 43.670    665.000    655.437      9.563    621.776    651.957    625.272    621.776    621.776
 43.770    619.000    646.663    -27.663    621.863    643.521    625.016    621.863    621.863
 43.870    624.000    641.285    -17.285    621.952    638.353    624.891    621.952    621.952
 43.970    641.000    638.133      2.867    622.042    635.327    624.853    622.042    622.042
 44.070    673.000    636.292     36.708    622.133    633.562    624.867    622.133    622.133
 44.170    613.000    635.176    -22.176    622.224    632.493    624.910    622.224    622.224
 44.270    657.000    634.458     22.542    622.317    631.806    624.971    622.317    622.317
 44.370    629.000    633.975     -4.975    622.410    631.343    625.044    622.410    622.410
 44.470    663.581    633.642     29.938    622.504    631.023    625.125    622.504    622.504
 44.570    638.593    633.418      5.174    622.600    630.807    625.213    622.600    622.600
 44.670    654.000    633.278     20.722    622.696    630.668    625.307    622.696    622.696
 44.770    687.000    633.204     53.796    622.792    630.591    625.406    622.792    622.792
 44.870    687.000    633.184     53.816    622.890    630.566    625.510    622.890    622.890
 44.970    626.000    633.211     -7.211    622.988    630.583    625.618    622.988    622.988
 45.070    656.779    633.278     23.500    623.087    630.636    625.731    623.087    623.087
 45.170    628.510    633.381     -4.870    623.187    630.720    625.848    623.187    623.187
 45.270    592.000    633.514    -41.514    623.288    630.833    625.970    623.288    623.288
 45.370    669.444    633.677     35.766    623.389    630.971    626.096    623.389    623.389
 45.470    670.000    633.868     36.132    623.492    631.133    626.227    623.492    623.492
 45.570    642.000    634.084      7.916    623.594    631.317    626.362    623.594    623.594
 45.670    622.306    634.327    -12.021    623.698    631.523    626.502    623.698    623.698
 45.770    645.000    634.595     10.405    623.802    631.750    626.647    623.802    623.802
 45.870    671.000    634.889     36.111    623.907    631.999    626.797    623.907    623.907
 45.970    661.880    635.211     26.669    624.013    632.270    626.953    624.013    624.013
 46.070    637.000    635.561      1.439    624.119    632.564    627.115    624.119    624.119
 46.170    592.194    635.941    -43.747    624.226    632.883    627.283    624.226    624.226
 46.270    633.155    636.355     -3.200    624.333    633.229    627.459    624.333    624.333
 46.370    653.000    636.805     16.195    624.441    633.604    627.642    624.441    624.441
 46.470    679.000    637.295     41.705    624.549    634.011    627.833    624.549    624.549
 46.570    669.087    637.831     31.255    624.659    634.455    628.034    624.659    624.659
 46.670    626.000    638.420    -12.420    624.768    634.942    628.246    624.768    624.768
 46.770    592.000    639.070    -47.070    624.878    635.479    628.469    624.878    624.878
 46.870    594.926    639.793    -44.867    624.989    636.075    628.706    624.989    624.989
 46.970    594.505    640.606    -46.100    625.100    636.745    628.960    625.100    625.100
 47.070    641.000    641.534     -0.534    625.212    637.512    629.233    625.212    625.212
 47.170    686.259    642.624     43.634    625.324    638.415    629.532    625.324    625.324
 47.270    607.360    643.963    -36.603    625.437    639.530    629.868    625.437    625.437
 47.370    629.938    645.709    -15.772    625.550    640.996    630.260    625.550    625.550
 47.470    627.000    648.139    -21.139    625.664    643.058    630.741    625.664    625.664
 47.570    629.000    651.688    -22.688    625.778    646.098    631.362    625.778    625.778
 47.670    694.000    656.945     37.055    625.892    650.634    632.193    625.892    625.892
 47.770    626.435    664.559    -38.124    626.007    657.240    633.311    626.007    626.007
 47.870    683.000    675.017      7.983    626.122    666.345    634.774    626.122    626.122
 47.970    702.000    688.317     13.683    626.237    677.942    636.584    626.237    626.237
 48.070    722.383    703.578     18.805    626.353    691.252    638.642    626.353    626.353
 48.170    693.331    718.678    -25.347    626.469    704.395    640.707    626.469    626.469
 48.270    724.000    730.209     -6.209    626.586    714.357    642.388    626.586    626.586
 48.370    708.000    734.607    -26.607    626.703    717.981    643.278    626.703    626.703
 48.470    692.000    730.652    -38.652    626.820    714.183    643.244    626.820    626.820
 48.570    759.000    720.678     38.322    626.937    705.017    642.560    626.937    626.937
 48.670    696.000    708.562    -12.562    627.055    693.901    641.687    627.055    627.055
 48.770    713.000    697.413     15.587    627.173    683.570    640.993    627.173    627.173
 48.870    665.000    688.967    -23.967    627.291    675.546    640.697    627.291    627.291
 48.970    649.000    683.849    -34.849    627.409    670.359    640.888    627.409    627.409
 49.070    661.000    681.967    -20.967    627.528    667.905    641.583    627.528    627.528
 49.170    703.000    682.910     20.090    627.646    667.782    642.768    627.646    627.646
 49.270    718.006    686.272     31.734    627.765    669.582    644.451    627.765    627.765
 49.370    671.000    691.934    -20.934    627.885    673.105    646.709    627.885    627.885
 49.470    719.782    700.370     19.413    628.004    678.583    649.786    628.004    628.004
 49.570    696.000    713.251    -17.251    628.123    687.071    654.296    628.123    628.123
 49.670    701.733    734.682    -32.949    628.243    701.259    661.655    628.243    628.243
 49.770    746.101    773.319    -27.219    628.363    726.856    674.805    628.363    628.363
 49.870    859.271    844.920     14.351    628.482    774.290    699.073    628.482    628.482
 49.970   1007.042    973.484     33.558    628.602    859.541    742.476    628.602    628.602
 50.070   1202.076   1188.621     13.455    628.722   1001.986    815.248    628.722    628.722
 50.170   1460.000   1513.745    -53.745    628.842   1217.166    925.266    628.842    628.842
 50.270   1906.000   1948.577    -42.577    628.962   1504.951   1072.401    628.962    628.962
 50.370   2407.000   2450.457    -43.457    629.083   1837.140   1242.212    629.083    629.083
 50.470   2913.000   2924.874    -11.874    629.203   2151.238   1402.706    629.203    629.203
 50.570   3212.000   3239.585    -27.585    629.323   2359.785   1509.102    629.323    629.323
 50.670   3293.000   3280.781     12.219    629.443   2387.508   1522.833    629.443    629.443
 50.770   3114.000   3031.593     82.407    629.563   2223.266   1438.111    629.563    629.563
 50.870   2698.000   2587.462    110.538    629.684   1930.254   1287.151    629.684    629.684
 50.970   2068.000   2084.742    -16.742    629.804   1598.777   1116.013    629.804    629.804
 51.070   1565.486   1631.240    -65.754    629.924   1300.254    961.108    629.924    629.924
 51.170   1277.000   1282.967     -5.967    630.044   1071.799    841.355    630.044    630.044
 51.270   1085.000   1049.345     35.655    630.164    919.609    759.998    630.164    630.164
 51.370    931.000    910.513     20.487    630.283    830.357    710.506    630.283    630.283
 51.470    836.000    836.250     -0.250    630.403    783.655    683.047    630.403    630.403
 51.570    746.296    799.030    -52.734    630.523    760.666    668.926    630.523    630.523
 51.670    775.000    779.445     -4.445    630.642    747.816    662.305    630.642    630.642
 51.770    779.450    766.652     12.798    630.762    737.440    660.003    630.762    630.762
 51.870    793.000    756.432     36.568    630.881    726.794    660.542    630.881    630.881
 51.970    761.000    748.142     12.858    631.000    715.967    663.190    631.000    631.000
 52.070    780.000    742.050     37.950    631.119    705.892    667.286    631.119    631.119
 52.170    767.553    737.973     29.581    631.238    697.364    671.848    631.238    631.238
 52.270    766.914    734.918     31.995    631.356    690.808    675.464    631.356    631.356
 52.370    682.342    731.428    -49.086    631.474    686.314    676.583    631.474    631.474
 52.470    744.000    726.551     17.449    631.592    683.757    674.382    631.592    631.592
 52.570    704.000    720.630    -16.630    631.710    682.928    669.409    631.710    631.710
 52.670    670.299    714.918    -44.619    631.828    683.668    663.076    631.828    631.828
 52.770    679.216    710.811    -31.595    631.945    686.002    656.754    631.945    631.945
 52.870    687.000    709.561    -22.561    632.062    690.277    651.348    632.062    632.062
 52.970    713.000    712.423      0.577    632.179    697.333    647.270    632.179    632.179
 53.070    687.836    720.957    -33.121    632.295    708.715    644.540    632.295    632.295
 53.170    724.026    737.294    -13.268    632.411    726.825    642.883    632.411    632.411
 53.270    774.000    764.640      9.360    632.527    754.931    642.237    632.527    632.527
 53.370    817.633    806.490     11.143    632.643    796.740    642.395    632.643    632.643
 53.470    820.000    865.898    -45.898    632.758    855.467    643.191    632.758    632.758
 53.570    974.667    944.068     30.599    632.873    932.411    644.535    632.873    632.873
 53.670   1061.015   1038.527     22.488    632.987   1025.212    646.310    632.987    632.987
 53.770   1200.640   1141.314     59.326    633.101   1126.113    648.318    633.101    633.101
 53.870   1192.000   1237.515    -45.515    633.215   1220.527    650.228    633.215    633.215
 53.970   1289.000   1305.945    -16.945    633.328   1287.725    651.585    633.328    633.328
 54.070   1385.000   1326.017     58.983    633.441   1307.555    651.950    633.441    633.441
 54.170   1296.000   1290.584      5.416    633.553   1273.021    651.170    633.553    633.553
 54.270   1143.000   1211.902    -68.902    633.665   1196.121    649.498    633.665    633.665
 54.370   1173.000   1112.199     60.801    633.777   1098.622    647.400    633.777    633.777
 54.470   1041.720   1011.304     30.416    633.888    999.938    645.292    633.888    633.888
 54.570    929.000    921.929      7.071    633.999    912.517    643.441    633.999    633.999
 54.670    843.000    850.117     -7.117    634.109    842.277    641.971    634.109    634.109
 54.770    776.000    796.924    -20.924    634.218    790.254    640.905    634.218    634.218
 54.870    736.000    760.236    -24.236    634.327    754.377    640.198    634.327    634.327
 54.970    724.000    736.461    -12.461    634.436    731.133    639.773    634.436    634.436
 55.070    726.000    721.868      4.132    634.544    716.867    639.552    634.544    634.544
 55.170    755.003    713.358     41.645    634.652    708.546    639.469    634.652    634.652
 55.270    680.000    708.725    -28.725    634.759    704.009    639.479    634.759    634.759
 55.370    681.000    706.582    -25.582    634.865    701.899    639.552    634.865    634.865
 55.470    723.284    706.149     17.135    634.971    701.450    639.674    634.971    634.971
 55.570    740.000    707.038     32.962    635.076    702.282    639.836    635.076    635.076
 55.670    702.969    709.102     -6.134    635.181    704.248    640.039    635.181    635.181
 55.770    746.000    712.349     33.651    635.285    707.355    640.283    635.285    635.285
 55.870    706.000    716.928    -10.928    635.388    711.743    640.577    635.388    635.388
 55.970    706.000    723.181    -17.181    635.491    717.742    640.934    635.491    635.491
 56.070    736.000    731.803      4.197    635.593    726.019    641.381    635.593    635.593
 56.170    757.000    744.159     12.841    635.695    737.887    641.970    635.695    635.695
 56.270    773.000    762.812     10.188    635.796    755.813    642.798    635.796    635.796
 56.370    761.000    792.259    -31.259    635.896    784.121    644.034    635.896    635.896
 56.470    812.000    839.686    -27.686    635.995    829.730    645.950    635.995    635.995
 56.570    921.000    915.304      5.696    636.094    902.464    648.928    636.094    636.094
 56.670   1024.307   1031.551     -7.245    636.192   1014.294    653.438    636.192    636.192
 56.770   1123.000   1200.514    -77.514    636.290   1176.853    659.935    636.290    636.290
 56.870   1393.000   1429.400    -36.400    636.387   1397.080    668.689    636.387    636.387
 56.970   1792.930   1714.797     78.133    636.483   1671.694    679.575    636.483    636.483
 57.070   2032.000   2037.061     -5.061    636.578   1981.795    691.856    636.578    636.578
 57.170   2390.000   2356.214     33.786    636.672   2288.908    704.029    636.672    636.672
 57.270   2617.422   2612.281      5.141    636.766   2535.315    713.842    636.766    636.766
 57.370   2790.000   2739.001     50.999    636.859   2657.234    718.808    636.859    636.859
 57.470   2603.000   2696.895    -93.895    636.951   2616.653    717.442    636.951    636.951
 57.570   2537.000   2500.738     36.262    637.043   2427.764    710.303    637.043    637.043
 57.670   2239.000   2207.950     31.050    637.133   2145.814    699.558    637.133    637.133
 57.770   1803.054   1884.008    -80.954    637.223   1833.817    687.674    637.223    637.223
 57.870   1495.000   1579.425    -84.425    637.312   1540.384    676.568    637.312    637.312
 57.970   1334.000   1323.964     10.036    637.400   1294.135    667.395    637.400    637.400
 58.070   1142.549   1128.993     13.556    637.487   1105.949    660.650    637.487    637.487
 58.170    945.835    992.621    -46.786    637.574    973.882    656.394    637.574    637.574
 58.270    901.000    905.729     -4.729    637.660    888.933    654.506    637.660    637.660
 58.370    901.190    857.419     43.771    637.744    840.268    654.925    637.744    637.744
 58.470    825.000    838.662    -13.662    637.828    818.730    657.773    637.828    637.828
 58.570    850.005    843.778      6.227    637.911    818.335    663.352    637.911    637.911
 58.670    861.000    870.082     -9.082    637.993    836.079    671.982    637.993    637.993
 58.770    901.000    916.439    -15.439    638.074    870.761    683.729    638.074    638.074
 58.870    975.000    981.416     -6.416    638.155    921.428    698.109    638.155    638.155
 58.970   1091.806   1061.555     30.252    638.234    985.880    713.871    638.234    638.234
 59.070   1113.000   1150.210    -37.210    638.312   1059.540    728.946    638.312    638.312
 59.170   1242.000   1237.768      4.232    638.390   1135.339    740.791    638.390    638.390
 59.270   1269.000   1314.133    -45.133    638.466   1205.294    747.294    638.466    638.466
 59.370   1326.000   1371.821    -45.821    638.542   1262.625    747.744    638.542    638.542
 59.470   1412.000   1406.155      5.845    638.616   1301.952    742.845    638.616    638.616
 59.570   1380.000   1413.825    -33.825    638.690   1318.676    733.882    638.690    638.690
 59.670   1400.900   1394.766      6.134    638.762   1311.364    722.217    638.762    638.762
 59.770   1404.913   1356.116     48.797    638.834   1285.680    709.321    638.834    638.834
 59.870   1358.324   1311.677     46.647    638.905   1253.931    696.685    638.905    638.905
 59.970   1376.000   1276.425     99.575    638.974   1229.954    685.450    638.974    638.974
 60.070   1241.000   1261.695    -20.695    639.043   1224.525    676.179    639.043    639.043
 60.170   1289.000   1273.829     15.171    639.110   1243.924    668.936    639.110    639.110
 60.270   1334.000   1314.959     19.041    639.177   1290.495    663.511    639.177    639.177
 60.370   1424.000   1383.122     40.878    639.242   1362.581    659.606    639.242    639.242
 60.470   1489.032   1470.368     18.664    639.307   1452.540    656.917    639.307    639.307
 60.570   1504.477   1560.809    -56.332    639.370   1544.767    655.166    639.370    639.370
 60.670   1709.000   1631.309     77.691    639.432   1616.366    654.122    639.432    639.432
 60.770   1669.000   1657.162     11.838    639.493   1642.807    653.613    639.493    639.493
 60.870   1675.000   1623.325     51.675    639.553   1609.160    653.523    639.553    639.553
 60.970   1522.000   1533.407    -11.407    639.612   1519.088    653.785    639.612    639.612
 61.070   1442.000   1406.622     35.378    639.670   1391.821    654.370    639.670    639.670
 61.170   1237.687   1266.825    -29.138    639.727   1251.197    655.292    639.727    639.727
 61.270   1111.224   1134.112    -22.888    639.782   1117.240    656.617    639.782    639.782
 61.370   1003.251   1021.840    -18.589    639.837   1003.145    658.509    639.837    639.837
 61.470    886.000    936.806    -50.806    639.890    915.392    661.287    639.890    639.890
 61.570    907.000    880.898     26.102    639.943    855.300    665.523    639.943    639.943
 61.670    891.358    853.450     37.908    639.994    821.276    672.144    639.994    639.994
 61.770    813.000    853.571    -40.571    640.043    811.055    682.523    640.043    640.043
 61.870    901.794    881.713     20.081    640.092    823.286    698.465    640.092    640.092
 61.970    938.000    939.975     -1.975    640.140    858.025    722.013    640.140    640.140
 62.070   1015.000   1031.027    -16.027    640.186    916.104    755.004    640.186    640.186
 62.170   1167.000   1155.916     11.084    640.231    997.618    798.392    640.231    640.231
 62.270   1294.000   1311.365    -17.365    640.275   1100.029    851.443    640.275    640.275
 62.370   1442.000   1487.296    -45.296    640.318   1216.415    911.003    640.318    640.318
 62.470   1716.048   1665.226     50.822    640.359   1334.333    971.042    640.359    640.359
 62.570   1818.000   1818.394     -0.394    640.400   1435.857   1022.732    640.400    640.400
 62.670   1910.044   1915.835     -5.791    640.439   1500.272   1055.823    640.439    640.439
 62.770   1925.209   1932.944     -7.736    640.477   1511.119   1062.166    640.477    640.477
 62.870   1881.337   1864.607     16.730    640.513   1464.959   1040.073    640.513    640.513
 62.970   1724.000   1728.601     -4.601    640.549   1373.645    995.458    640.549    640.549
 63.070   1535.000   1555.136    -20.136    640.583   1257.341    938.361    640.583    640.583
 63.170   1328.000   1373.538    -45.538    640.616   1135.626    878.529    640.616    640.616
 63.270   1169.000   1205.617    -36.617    640.647   1023.061    823.214    640.647    640.647
 63.370   1124.820   1064.294     60.526    640.677    928.271    776.714    640.677    640.677
 63.470   1008.092    954.533     53.559    640.706    854.567    740.683    640.706    640.706
 63.570    901.000    875.290     25.710    640.734    801.251    714.779    640.734    640.734
 63.670    787.238    821.945    -34.707    640.760    765.240    697.468    640.760    640.760
 63.770    827.416    788.610     38.806    640.785    742.606    686.788    640.785    640.785
 63.870    791.000    769.859     21.141    640.809    729.735    680.929    640.809    640.809
 63.970    715.000    761.716    -46.716    640.832    723.979    678.562    640.832    640.832
 64.070    812.000    762.032     49.968    640.853    723.886    678.988    640.853    640.853
 64.170    825.257    770.472     54.785    640.873    729.155    682.175    640.873    640.873
 64.270    838.317    788.319     49.998    640.891    740.436    688.752    640.891    640.891
 64.370    824.766    818.150      6.616    640.908    759.035    699.993    640.908    640.908
 64.470    848.815    863.343    -14.528    640.924    786.505    717.719    640.924    640.924
 64.570    925.000    927.322     -2.322    640.938    824.124    744.079    640.938    640.938
 64.670   1004.000   1012.494     -8.494    640.951    872.267    781.103    640.951    640.951
 64.770   1163.000   1118.950     44.050    640.963    929.757    830.061    640.963    640.963
 64.870   1206.000   1243.075    -37.075    640.973    993.265    890.673    640.973    640.973
 64.970   1403.285   1376.383     26.902    640.982   1056.888    960.354    640.982    640.982
 65.070   1464.000   1505.088    -41.088    640.990   1112.304   1033.649    640.990    640.990
 65.170   1637.224   1611.421     25.803    640.996   1150.264   1102.038    640.996    640.996
 65.270   1612.927   1677.430    -64.503    641.001   1163.748   1154.593    641.001    641.001
 65.370   1625.138   1690.469    -65.330    641.004   1150.961   1180.457    641.004    641.004
 65.470   1658.084   1648.132      9.952    641.006   1115.813   1173.309    641.006    641.006
 65.570   1630.000   1559.757     70.243    641.006   1065.910   1134.872    641.006    641.006
 65.670   1440.721   1442.599     -1.878    641.006   1009.768   1073.881    641.006    641.006
 65.770   1346.000   1315.193     30.807    641.003    954.579   1001.678    641.003    641.003
 65.870   1244.005   1192.402     51.602    640.999    905.077    928.392    640.999    640.999
 65.970   1115.484   1083.660     31.824    640.994    863.417    861.304    640.994    640.994
 66.070    937.000    993.302    -56.302    640.988    829.721    804.630    640.988    640.988
 66.170    931.000    921.850      9.150    640.980    802.974    759.911    640.980    640.980
 66.270    858.000    867.520     -9.520    640.970    781.867    726.669    640.970    640.970
 66.370    794.986    827.472    -32.486    640.959    765.270    703.198    640.959    640.959
 66.470    855.169    798.637     56.532    640.946    752.318    687.294    640.946    640.946
 66.570    725.795    778.222    -52.428    640.933    742.369    676.807    640.933    640.933
 66.670    709.871    763.990    -54.119    640.917    734.971    669.953    640.917    640.917
 66.770    728.000    754.338    -26.338    640.900    729.835    665.416    640.900    640.900
 66.870    683.000    748.235    -65.235    640.882    726.816    662.311    640.882    640.882
 66.970    690.207    745.107    -54.900    640.862    725.887    660.091    640.862    640.862
 67.070    727.000    744.746    -17.746    640.841    727.157    658.438    640.841    640.841
 67.170    738.176    747.303     -9.127    640.818    730.946    657.183    640.818    640.818
 67.270    754.000    753.387      0.613    640.793    737.939    656.249    640.793    640.793
 67.370    817.277    764.260     53.016    640.768    749.411    655.624    640.768    640.768
 67.470    776.000    782.099     -6.099    640.740    767.502    655.343    640.740    640.740
 67.570    795.000    810.266    -15.266    640.711    795.488    655.495    640.711    640.711
 67.670    803.000    853.475    -50.475    640.681    837.946    656.214    640.681    640.681
 67.770    840.000    917.677    -77.677    640.649    900.649    657.681    640.649    640.649
 67.870   1043.514   1009.492     34.022    640.616    990.017    660.097    640.616    640.616
 67.970   1177.969   1135.058     42.912    640.581   1111.998    663.652    640.581    640.581
 68.070   1206.000   1298.304    -92.304    640.544   1270.406    668.465    640.544    640.544
 68.170   1465.419   1498.903    -33.483    640.506   1464.932    674.521    640.506    640.506
 68.270   1601.000   1730.247   -129.247    640.466   1689.190    681.601    640.466    640.466
 68.370   1962.000   1977.850    -15.850    640.425   1929.164    689.235    640.425    640.425
 68.470   2136.210   2218.496    -82.286    640.383   2162.389    696.673    640.383    640.383
 68.570   2514.754   2421.004     93.750    640.338   2358.688    702.907    640.338    640.338
 68.670   2574.000   2550.857     23.143    640.293   2484.650    706.824    640.293    640.293
 68.770   2489.525   2580.841    -91.315    640.245   2513.924    707.546    640.245    640.245
 68.870   2455.266   2503.837    -48.571    640.196   2439.609    704.842    640.196    640.196
 68.970   2479.000   2336.964    142.036    640.146   2278.270    699.259    640.146    640.146
 69.070   2151.000   2112.501     38.499    640.094   2061.150    691.836    640.094    640.094
 69.170   1922.000   1864.636     57.364    640.040   1821.351    683.671    640.040    640.040
 69.270   1639.000   1621.347     17.653    639.985   1585.958    675.664    639.985    639.985
 69.370   1319.000   1401.904    -82.904    639.928   1373.636    668.428    639.928    639.928
 69.470   1263.190   1217.098     46.092    639.870   1194.827    662.320    639.870    639.870
 69.570   1135.000   1070.473     64.527    639.810   1052.966    657.450    639.810    639.810
 69.670    972.067    960.156     11.911    639.748    946.243    653.757    639.748    639.748
 69.770    968.000    880.939     87.061    639.685    869.620    651.072    639.685    639.685
 69.870    927.000    826.230    100.770    639.620    816.715    649.183    639.620    639.620
 69.970    843.000    789.528     53.472    639.554    781.236    647.879    639.554    639.554
 70.070    808.000    765.310     42.690    639.486    757.837    646.984    639.486    639.486
 70.170    765.000    749.365     15.635    639.416    742.440    646.360    639.416    639.416
 70.270    771.000    738.755     32.245    639.345    732.200    645.914    639.345    639.345
 70.370    732.000    731.571      0.429    639.273    725.271    645.584    639.273    639.273
 70.470    709.000    726.656    -17.656    639.198    720.529    645.333    639.198    639.198
 70.570    695.577    723.344    -27.766    639.122    717.333    645.140    639.122    639.122
 70.670    729.985    721.283      8.702    639.045    715.340    644.993    639.045    639.045
 70.770    734.000    720.319     13.681    638.965    714.399    644.889    638.965    638.965
 70.870    683.000    720.441    -37.441    638.884    714.500    644.827    638.884    638.884
 70.970    754.000    721.779     32.221    638.802    715.765    644.816    638.802    638.802
 71.070    710.000    724.640    -14.640    638.718    718.489    644.868    638.718    638.718
 71.170    739.000    729.587      9.413    638.632    723.209    645.007    638.632    638.632
 71.270    776.468    737.558     38.910    638.545    730.822    645.274    638.545    638.545
 71.370    759.000    750.001      8.999    638.456    742.717    645.729    638.456    638.456
 71.470    786.000    769.015     16.985    638.365    760.903    646.460    638.365    638.365
 71.570    791.509    797.427     -5.918    638.273    788.086    647.588    638.273    638.273
 71.670    830.091    838.730     -8.640    638.179    827.613    649.258    638.179    638.179
 71.770    944.000    896.817     47.183    638.084    883.211    651.636    638.084    638.084
 71.870   1006.000    975.424     30.576    637.987    958.460    654.879    637.987    637.987
 71.970   1016.529   1077.312    -60.783    637.888   1056.002    659.103    637.888    637.888
 72.070   1193.000   1203.246    -10.246    637.787   1176.571    664.343    637.787    637.787
 72.170   1386.926   1350.941     35.985    637.685   1317.978    670.504    637.685    637.685
 72.270   1538.000   1514.151     23.849    637.582   1474.239    677.329    637.582    637.582
 72.370   1644.868   1682.023    -37.156    637.476   1634.956    684.363    637.476    637.476
 72.470   1854.000   1838.931     15.069    637.369   1785.158    690.956    637.369    637.369
 72.570   1976.000   1965.408     10.592    637.261   1906.197    696.294    637.261    637.261
 72.670   2051.000   2041.462      9.538    637.150   1978.915    699.542    637.150    637.150
 72.770   2026.000   2052.758    -26.758    637.038   1989.573    700.101    637.038    637.038
 72.870   1948.000   1996.896    -48.896    636.925   1935.863    697.871    636.925    636.925
 72.970   1932.400   1884.657     47.743    636.810   1828.110    693.302    636.810    636.810
 73.070   1749.000   1734.979     14.021    636.693   1684.458    687.186    636.693    636.693
 73.170   1587.000   1568.102     18.898    636.574   1524.305    680.362    636.574    636.574
 73.270   1385.000   1401.146    -16.146    636.454   1364.068    673.536    636.454    636.454
 73.370   1271.000   1246.552     24.448    636.332   1215.683    667.212    636.332    636.332
 73.470   1112.000   1112.015     -0.015    636.209   1086.544    661.693    636.209    636.209
 73.570   1010.000   1001.020      8.980    636.084    980.007    657.109    636.084    636.084
 73.670    903.000    913.692    -10.692    635.957    896.200    653.459    635.957    635.957
 73.770    836.000    847.835    -11.835    635.829    833.007    650.663    635.829    635.829
 73.870    856.951    799.974     56.977    635.698    787.076    648.601    635.698    635.698
 73.970    764.000    766.257     -2.257    635.567    754.681    647.146    635.567    635.567
 74.070    759.000    743.090     15.910    635.433    732.340    646.186    635.433    635.433
 74.170    746.567    727.496     19.071    635.298    717.160    645.637    635.298    635.298
 74.270    715.000    717.230     -2.230    635.162    706.950    645.445    635.162    635.162
 74.370    717.000    710.728      6.272    635.023    700.174    645.583    635.023    635.023
 74.470    670.944    706.972    -36.028    634.883    695.822    646.042    634.883    634.883
 74.570    756.000    705.320     50.680    634.742    693.257    646.817    634.742    634.742
 74.670    706.920    705.356      1.564    634.598    692.070    647.901    634.598    634.598
 74.770    757.000    706.762     50.238    634.454    691.970    649.268    634.454    634.454
 74.870    722.000    709.230     12.770    634.307    692.700    650.865    634.307    634.307
 74.970    744.491    712.400     32.090    634.159    693.984    652.608    634.159    634.159
 75.070    760.000    715.825     44.175    634.009    695.494    654.378    634.009    634.009
 75.170    733.000    718.965     14.035    633.857    696.844    656.023    633.857    633.857
 75.270    738.000    721.240     16.760    633.704    697.618    657.375    633.704    633.704
 75.370    744.232    722.157     22.075    633.550    697.459    658.299    633.550    633.550
 75.470    768.000    721.502     46.498    633.393    696.194    658.752    633.393    633.393
 75.570    699.000    719.472    -20.472    633.235    693.924    658.831    633.235    633.235
 75.670    695.989    716.644    -20.655    633.075    690.993    658.770    633.075    633.075
 75.770    721.000    713.841      7.159    632.914    687.891    658.902    632.914    632.914
 75.870    726.744    711.995     14.750    632.751    685.151    659.625    632.751    632.751
 75.970    770.000    712.097     57.903    632.586    683.307    661.399    632.586    632.586
 76.070    775.000    715.183     59.817    632.420    682.882    664.736    632.420    632.420
 76.170    707.075    722.325    -15.250    632.252    684.380    670.203    632.252    632.252
 76.270    726.000    734.590     -8.590    632.083    688.282    678.389    632.083    632.083
 76.370    785.000    752.954     32.046    631.912    695.002    689.853    631.912    631.912
 76.470    766.000    778.156    -12.156    631.739    704.842    705.033    631.739    631.739
 76.570    840.000    810.511     29.489    631.565    717.910    724.138    631.565    631.565
 76.670    836.311    849.711    -13.400    631.389    734.045    747.018    631.389    631.389
 76.770    845.000    894.621    -49.621    631.211    752.731    773.057    631.211    631.211
 76.870    943.000    943.123     -0.123    631.032    773.034    801.069    631.032    631.032
 76.970    979.000    992.020    -13.020    630.851    793.566    829.249    630.851    630.851
 77.070    973.312   1037.039    -63.727    630.669    812.477    855.173    630.669    630.669
 77.170   1078.206   1073.103      5.103    630.484    827.579    875.954    630.484    630.484
 77.270   1115.000   1095.135     19.865    630.299    836.684    888.701    630.299    630.299
 77.370   1097.236   1099.456     -2.220    630.112    838.209    891.318    630.112    630.112
 77.470   1077.056   1085.201     -8.145    629.923    831.778    883.315    629.923    629.923
 77.570   1038.545   1054.713    -16.168    629.732    818.393    866.030    629.732    629.732
 77.670   1025.000   1012.545     12.455    629.540    800.006    842.065    629.540    629.540
 77.770    993.000    963.902     29.098    629.347    778.848    814.393    629.347    629.347
 77.870    885.030    913.492    -28.461    629.151    756.937    785.703    629.151    629.151
 77.970    876.000    865.007     10.993    628.955    735.858    758.104    628.955    628.955
 78.070    813.000    821.021     -8.021    628.756    716.713    733.067    628.756    628.756
 78.170    839.000    783.048     55.952    628.556    700.150    711.457    628.556    628.556
 78.270    743.000    751.681     -8.681    628.355    686.424    693.614    628.355    628.355
 78.370    718.568    726.789     -8.221    628.151    675.478    679.465    628.151    628.151
 78.470    718.000    707.739     10.261    627.947    667.040    668.649    627.947    627.947
 78.570    666.000    693.624    -27.624    627.741    660.718    660.648    627.741    627.741
 78.670    706.441    683.448     22.993    627.533    656.086    654.896    627.533    627.533
 78.770    675.806    676.272     -0.466    627.323    652.738    650.858    627.323    627.323
 78.870    693.432    671.294     22.138    627.112    650.331    648.076    627.112    627.112
 78.970    678.000    667.880     10.120    626.900    648.591    646.190    626.900    626.900
 79.070    705.000    665.565     39.435    626.686    647.317    644.934    626.686    626.686
 79.170    692.098    664.029     28.069    626.470    646.371    644.128    626.470    626.470
 79.270    657.296    663.066     -5.770    626.253    645.664    643.655    626.253    626.253
 79.370    634.000    662.557    -28.557    626.035    645.143    643.449    626.035    626.035
 79.470    640.507    662.445    -21.938    625.815    644.780    643.480    625.815    625.815
 79.570    622.000    662.722    -40.722    625.593    644.568    643.748    625.593    625.593
 79.670    685.000    663.423     21.577    625.370    644.510    644.282    625.370    625.370
 79.770    668.000    664.625      3.375    625.145    644.625    645.145    625.145    625.145
 79.870    662.000    666.462     -4.462    624.919    644.937    646.443    624.919    624.919
 79.970    654.000    669.143    -15.143    624.691    645.485    648.347    624.691    624.691
 80.070    643.000    672.984    -29.984    624.462    646.322    651.122    624.462    624.462
 80.170    656.000    678.447    -22.447    624.231    647.518    655.157    624.231    624.231
 80.270    694.904    686.187      8.717    623.999    649.171    661.010    623.999    623.999
 80.370    665.000    697.087    -32.087    623.765    651.409    669.436    623.765    623.765
 80.470    702.000    712.287    -10.287    623.530    654.402    681.405    623.530    623.530
 80.570    751.000    733.156     17.844    623.293    658.358    698.079    623.293    623.293
 80.670    756.000    761.228     -5.228    623.055    663.520    720.747    623.055    623.055
 80.770    826.000    798.051     27.949    622.816    670.158    750.689    622.816    622.816
 80.870    866.000    844.973     21.027    622.575    678.545    788.980    622.575    622.575
 80.970    867.036    902.877    -35.841    622.332    688.936    836.248    622.332    622.332
 81.070    924.284    971.883    -47.599    622.088    701.535    892.411    622.088    622.088
 81.170   1073.181   1051.045     22.136    621.843    716.444    956.421    621.843    621.843
 81.270   1130.178   1138.084     -7.906    621.596    733.596   1026.067    621.596    621.596
 81.370   1295.875   1229.220     66.656    621.348    752.693   1097.867    621.348    621.348
 81.470   1445.000   1319.190    125.810    621.098    773.158   1167.137    621.098    621.098
 81.570   1472.000   1401.583     70.417    620.847    794.139   1228.316    620.847    620.847
 81.670   1549.000   1469.627     79.373    620.595    814.582   1275.686    620.595    620.595
 81.770   1436.710   1517.391    -80.681    620.341    833.363   1304.439    620.341    620.341
 81.870   1670.000   1540.967    129.033    620.085    849.432   1311.713    620.085    620.085
 81.970   1592.636   1539.128     53.508    619.829    861.972   1297.098    619.829    619.829
 82.070   1556.698   1513.236     43.462    619.571    870.469   1262.467    619.571    619.571
 82.170   1570.000   1466.654    103.346    619.311    874.668   1211.440    619.311    619.311
 82.270   1449.078   1404.296     44.782    619.050    874.635   1148.861    619.050    619.050
 82.370   1258.892   1331.772    -72.880    618.788    870.626   1080.087    618.788    618.788
 82.470   1229.420   1254.475    -25.054    618.525    862.952   1010.198    618.525    618.525
 82.570   1206.531   1176.952     29.579    618.260    851.967    943.390    618.260    618.260
 82.670   1086.000   1102.708    -16.708    617.994    838.173    882.666    617.994    617.994
 82.770   1031.286   1034.223     -2.937    617.726    822.274    829.801    617.726    617.726
 82.870    951.000    972.990    -21.990    617.457    805.078    785.483    617.457    617.457
 82.970    893.000    919.575    -26.575    617.187    787.328    749.535    617.187    617.187
 83.070    832.000    873.788    -41.788    616.915    769.601    721.192    616.915    616.915
 83.170    891.746    834.984     56.762    616.643    752.338    699.367    616.643    616.643
 83.270    832.860    802.380     30.480    616.368    735.930    682.885    616.368    616.368
 83.370    798.880    775.267     23.612    616.093    720.768    670.649    616.093    616.093
 83.470    697.000    753.090    -56.090    615.816    707.226    661.725    615.816    615.816
 83.570    761.398    735.431     25.967    615.538    695.624    655.379    615.538    615.538
 83.670    681.000    721.971    -40.971    615.259    686.192    651.062    615.259    615.259
 83.770    697.362    712.448    -15.085    614.979    679.058    648.383    614.979    614.979
 83.870    682.654    706.611    -23.956    614.697    674.244    647.068    614.697    614.697
 83.970    683.000    704.179    -21.179    614.414    671.671    646.917    614.414    614.414
 84.070    619.000    704.795    -85.795    614.130    671.155    647.755    614.130    614.130
 84.170    744.505    707.995     36.510    613.844    672.413    649.403    613.844    613.844
 84.270    671.000    713.188    -42.188    613.557    675.060    651.654    613.557    613.557
 84.370    719.000    719.646     -0.646    613.269    678.622    654.254    613.269    613.269
 84.470    692.000    726.520    -34.520    612.980    682.550    656.905    612.980    612.980
 84.570    730.000    732.866     -2.866    612.690    686.240    659.266    612.690    612.690
 84.670    666.000    737.714    -71.714    612.399    689.075    660.984    612.399    612.399
 84.770    688.000    740.194    -52.194    612.106    690.509    661.739    612.106    612.106
 84.870    676.000    739.712    -63.712    611.812    690.161    661.311    611.812    611.812
 84.970    783.000    736.094     46.906    611.517    687.916    659.647    611.517    611.517
 85.070    705.662    729.627    -23.965    611.221    683.936    656.868    611.221    611.221
 85.170    660.000    720.946    -60.946    610.924    678.598    653.234    610.924    610.924
 85.270    662.000    710.850    -48.850    610.625    672.374    649.069    610.625    610.625
 85.370    649.439    700.144    -50.705    610.326    665.741    644.702    610.326    610.326
 85.470    649.878    689.544    -39.666    610.025    659.116    640.431    610.025    610.025
 85.570    665.000    679.643    -14.643    609.724    652.837    636.511    609.724    609.724
 85.670    642.155    670.883    -28.728    609.421    647.143    633.145    609.421    609.421
 85.770    646.000    663.568    -17.568    609.117    642.184    630.487    609.117    609.117
 85.870    653.000    657.874     -4.874    608.812    638.027    628.648    608.812    608.812
 85.970    666.214    653.876     12.338    608.506    634.671    627.699    608.506    608.506
 86.070    672.703    651.564     21.140    608.199    632.070    627.681    608.199    608.199
 86.170    632.000    650.873    -18.873    607.891    630.149    628.603    607.891    607.891
 86.270    690.135    651.701     38.434    607.582    628.824    630.444    607.582    607.582
 86.370    609.505    653.916    -44.410    607.272    628.020    633.152    607.272    607.272
 86.470    689.000    657.366     31.634    606.960    627.679    636.629    606.960    606.960
 86.570    680.000    661.877     18.123    606.648    627.772    640.732    606.648    606.648
 86.670    676.000    667.251      8.749    606.335    628.299    645.262    606.335    606.335
 86.770    725.312    673.263     52.049    606.021    629.295    649.961    606.021    606.021
 86.870    702.259    679.662     22.598    605.706    630.823    654.512    605.706    605.706
 86.970    715.000    686.172     28.828    605.390    632.973    658.553    605.390    605.390
 87.070    717.836    692.518     25.318    605.073    635.855    661.696    605.073    605.073
 87.170    689.000    698.465     -9.465    604.755    639.584    663.591    604.755    604.755
 87.270    754.967    703.878     51.090    604.436    644.275    663.989    604.436    604.436
 87.370    738.000    708.774     29.226    604.117    650.016    662.818    604.117    604.117
 87.470    728.849    713.315     15.533    603.796    656.856    660.193    603.796    603.796
 87.570    729.761    717.746     12.015    603.474    664.775    656.374    603.474    603.474
 87.670    668.190    722.292    -54.103    603.152    673.668    651.697    603.152    603.152
 87.770    795.000    727.082     67.918    602.829    683.322    646.501    602.829    602.829
 87.870    743.000    732.089     10.911    602.505    693.405    641.091    602.505    602.505
 87.970    738.808    737.116      1.692    602.180    703.463    635.726    602.180    602.180
 88.070    765.000    741.792     23.208    601.854    712.922    630.610    601.854    601.854
 88.170    712.346    745.605    -33.259    601.527    721.120    625.893    601.527    601.527
 88.270    783.000    747.975     35.025    601.200    727.382    621.670    601.200    601.200
 88.370    762.000    748.376     13.624    600.872    731.141    617.985    600.872    600.872
 88.470    718.852    746.495    -27.643    600.543    732.083    614.837    600.543    600.543
 88.570    741.000    742.335     -1.335    600.213    730.244    612.194    600.213    600.213
 88.670    798.000    736.223     61.777    599.883    726.000    610.007    599.883    599.883
 88.770    753.000    728.719     24.281    599.552    719.970    608.214    599.552    599.552
 88.870    720.000    720.492     -0.492    599.220    712.884    606.755    599.220    599.220
 88.970    735.000    712.221     22.779    598.887    705.477    605.572    598.887    598.887
 89.070    693.000    704.534    -11.534    598.554    698.426    604.617    598.554    598.554
 89.170    692.000    697.970     -5.970    598.220    692.310    603.848    598.220    598.220
 89.270    723.761    692.947     30.813    597.885    687.582    603.231    597.885    597.885
 89.370    643.000    689.739    -46.739    597.549    684.543    602.738    597.549    597.549
 89.470    683.270    688.459     -5.188    597.213    683.329    602.347    597.213    597.213
 89.570    703.827    689.052     14.775    596.877    683.908    602.035    596.877    596.877
 89.670    754.000    691.305     62.695    596.540    686.084    601.785    596.540    596.540
 89.770    702.000    694.852      7.148    596.202    689.512    601.575    596.202    596.202
 89.870    692.642    699.199     -6.557    595.863    693.718    601.387    595.863    595.863
 89.970    764.000    703.749     60.251    595.524    698.127    601.197    595.524    595.524
 90.070    725.000    707.836     17.164    595.184    702.096    600.983    595.184    595.184
 90.170    732.000    710.794     21.206    594.844    704.980    600.724    594.844    594.844
 90.270    748.000    712.041     35.959    594.504    706.214    600.400    594.504    594.504
 90.370    710.000    711.189     -1.189    594.162    705.423    600.000    594.162    594.162
 90.470    708.000    708.124     -0.124    593.821    702.496    599.521    593.821    593.821
 90.570    712.000    703.019      8.981    593.478    697.597    598.971    593.478    593.478
 90.670    697.507    696.264      1.243    593.136    691.103    598.363    593.136    593.136
 90.770    667.000    688.363    -21.363    592.792    683.500    597.716    592.792    592.792
 90.870    717.000    679.838     37.162    592.449    675.293    597.049    592.449    592.449
 90.970    634.000    671.166    -37.166    592.105    666.941    596.378    592.105    592.105
 91.070    612.666    662.749    -50.083    591.760    658.833    595.717    591.760    591.760
 91.170    667.000    654.899     12.101    591.415    651.271    595.078    591.415    591.415
 91.270    663.000    647.837     15.163    591.070    644.467    594.469    591.070    591.070
 91.370    681.163    641.698     39.465    590.724    638.552    593.893    590.724    590.724
 91.470    617.000    636.538    -19.538    590.378    633.581    593.353    590.378    590.378
 91.570    620.000    632.355    -12.355    590.032    629.551    592.849    590.032    590.032
 91.670    631.000    629.100      1.900    589.685    626.416    592.379    589.685    589.685
 91.770    628.000    626.700      1.300    589.338    624.103    591.941    589.338    589.338
 91.870    637.679    625.074     12.605    588.991    622.537    591.532    588.991    588.991
 91.970    605.258    624.150    -18.892    588.643    621.646    591.149    588.643    588.643
 92.070    638.000    623.877     14.123    588.295    621.380    590.792    588.295    588.295
 92.170    613.000    624.233    -11.233    587.947    621.719    590.459    587.947    587.947
 92.270    623.000    625.231     -2.231    587.599    622.675    590.152    587.599    587.599
 92.370    634.057    626.923      7.134    587.250    624.297    589.872    587.250    587.250
 92.470    616.000    629.401    -13.401    586.902    626.673    589.623    586.902    586.902
 92.570    627.000    632.785     -5.785    586.553    629.920    589.409    586.553    586.553
 92.670    675.000    637.225     37.775    586.204    634.182    589.235    586.204    586.204
 92.770    646.791    642.886      3.905    585.854    639.618    589.108    585.854    585.854
 92.870    686.000    649.937     36.063    585.505    646.391    589.032    585.505    585.505
 92.970    686.000    658.532     27.468    585.155    654.652    589.013    585.155    585.155
 93.070    654.424    668.798    -14.375    584.806    664.523    589.053    584.806    584.806
 93.170    703.000    680.814     22.186    584.456    676.081    589.154    584.456    584.456
 93.270    669.000    694.592    -25.592    584.106    689.343    589.315    584.106    584.106
 93.370    693.000    710.071    -17.071    583.756    704.245    589.535    583.756    583.756
 93.470    696.000    727.096    -31.096    583.407    720.642    589.807    583.407    583.407
 93.570    708.000    745.419    -37.419    583.057    738.287    590.128    583.057    583.057
 93.670    770.000    764.692      5.308    582.707    756.840    590.491    582.707    582.707
 93.770    822.000    784.479     37.521    582.357    775.867    590.896    582.357    582.357
 93.870    848.000    804.285     43.715    582.007    794.871    591.343    582.007    582.007
 93.970    851.000    823.624     27.376    581.657    813.355    591.845    581.657    581.657
 94.070    812.000    842.113    -30.113    581.308    830.910    592.427    581.308    581.308
 94.170    835.000    859.572    -24.572    580.958    847.312    593.134    580.958    580.958
 94.270    935.738    876.078     59.659    580.609    862.574    594.028    580.609    580.609
 94.370    833.926    891.936    -58.011    580.259    876.921    595.190    580.259    580.259
 94.470    921.123    907.566     13.557    579.910    890.684    596.709    579.910    579.910
 94.570    922.000    923.365     -1.365    579.561    904.172    598.672    579.561    579.561
 94.670    914.445    939.598    -25.153    579.212    917.579    601.150    579.212    579.212
 94.770    948.000    956.349     -8.349    578.864    930.942    604.192    578.864    578.864
 94.870    926.948    973.535    -46.587    578.515    944.165    607.808    578.515    578.515
 94.970   1000.956    990.958      9.998    578.167    957.084    611.967    578.167    578.167
 95.070    986.438   1008.401    -21.963    577.819    969.563    616.587    577.819    577.819
 95.170   1007.000   1025.523    -18.523    577.472    981.397    621.531    577.472    577.472
 95.270   1011.000   1041.861    -30.861    577.124    992.312    626.611    577.124    577.124
 95.370   1052.878   1056.736     -3.858    576.777   1001.871    631.586    576.777    576.777
 95.470   1066.000   1069.217     -3.217    576.431   1009.421    636.177    576.431    576.431
 95.570   1041.190   1078.149    -36.959    576.084   1014.115    640.077    576.084    576.084
 95.670   1110.678   1082.288     28.390    575.738   1015.009    642.985    575.738    575.738
 95.770   1091.129   1080.520     10.610    575.393   1011.252    644.639    575.393    575.393
 95.870   1068.000   1072.131     -4.131    575.048   1002.303    644.863    575.048    575.048
 95.970   1047.000   1057.046    -10.046    574.703    988.136    643.610    574.703    574.703
 96.070   1030.000   1035.910     -5.910    574.359    969.304    640.969    574.359    574.359
 96.170   1059.000   1009.983     49.017    574.015    946.864    637.144    574.015    574.015
 96.270    959.000    980.945    -21.945    573.672    922.218    632.413    573.672    573.672
 96.370    977.000    950.667     26.333    573.329    896.927    627.085    573.329    573.329
 96.470    973.000    921.034     51.966    572.987    872.575    621.463    572.987    572.987
 96.570    955.493    893.841     61.652    572.645    850.682    615.820    572.645    572.645
 96.670    885.000    870.737     14.263    572.304    832.667    610.387    572.304    572.304
 96.770    866.000    853.186     12.814    571.964    819.811    605.346    571.964    571.964
 96.870    820.000    842.447    -22.447    571.624    813.245    600.828    571.624    571.624
 96.970    874.000    839.532     34.468    571.285    813.902    596.909    571.285    571.285
 97.070    814.054    845.351    -31.297    570.946    822.657    593.627    570.946    570.946
 97.170    902.000    860.500     41.500    570.608    840.109    590.979    570.608    570.608
 97.270    843.885    885.323    -41.438    570.271    866.633    588.932    570.271    570.271
 97.370    885.958    919.913    -33.955    569.935    902.372    587.437    569.935    569.935
 97.470    911.698    964.066    -52.368    569.599    947.181    586.437    569.599    569.599
 97.570   1031.000   1017.238     13.762    569.264   1000.581    585.867    569.264    569.264
 97.670   1098.000   1078.493     19.507    568.930   1061.701    585.660    568.930    568.930
 97.770   1162.020   1146.456     15.565    568.597   1129.238    585.748    568.597    568.597
 97.870   1144.000   1219.292    -75.292    568.264   1201.424    586.061    568.264    568.264
 97.970   1263.191   1294.665    -31.474    567.933   1276.000    586.526    567.933    567.933
 98.070   1326.611   1369.733    -43.121    567.602   1350.198    587.066    567.602    567.602
 98.170   1481.000   1441.196     39.804    567.272   1420.803    587.600    567.272    567.272
 98.270   1479.839   1505.412    -25.573    566.944   1484.253    588.046    566.944    566.944
 98.370   1514.000   1558.624    -44.624    566.616   1536.876    588.319    566.616    566.616
 98.470   1598.000   1597.358      0.642    566.289   1575.270    588.347    566.289    566.289
 98.570   1658.000   1618.931     39.069    565.963   1596.810    588.073    565.963    565.963
 98.670   1603.169   1621.950    -18.780    565.638   1600.132    587.465    565.638    565.638
 98.770   1526.000   1606.587    -80.587    565.314   1585.402    586.528    565.314    565.314
 98.870   1614.000   1574.520     39.480    564.991   1554.264    585.294    564.991    564.991
 98.970   1476.000   1528.581    -52.581    564.670   1509.492    583.819    564.670    564.670
 99.070   1473.000   1472.278      0.722    564.349   1454.526    582.172    564.349    564.349
 99.170   1379.000   1409.368    -30.368    564.030   1393.051    580.425    564.030    564.030
 99.270   1403.083   1343.541     59.542    563.711   1328.685    578.648    563.711    563.711
 99.370   1352.000   1278.218     73.782    563.394   1264.788    576.904    563.394    563.394
 99.470   1233.000   1216.446     16.554    563.078   1204.352    575.248    563.078    563.078
 99.570   1143.447   1160.842    -17.394    562.764   1149.948    573.727    562.764    562.764
 99.670   1175.610   1113.582     62.028    562.450   1103.716    572.377    562.450    562.450
 99.770   1053.737   1076.415    -22.677    562.138   1067.380    571.224    562.138    562.138
 99.870   1018.000   1050.684    -32.684    561.827   1042.266    570.288    561.827    561.827
 99.970   1073.000   1037.362     35.638    561.518   1029.335    569.577    561.518    561.518
100.070   1031.565   1037.066     -5.501    561.210   1029.207    569.093    561.210    561.210
100.170   1111.743   1050.088     61.656    560.903   1042.179    568.829    560.903    560.903
100.270   1111.000   1076.401     34.599    560.598   1068.237    568.773    560.598    560.598
100.370   1114.332   1115.669     -1.337    560.294   1107.064    568.906    560.294    560.294
100.470   1163.000   1167.247     -4.247    559.991   1158.038    569.206    559.991    559.991
100.570   1192.000   1230.169    -38.169    559.690   1220.225    569.642    559.690    559.690
100.670   1292.000   1303.136    -11.136    559.391   1292.357    570.182    559.391    559.391
100.770   1444.000   1384.479     59.521    559.093   1372.803    570.789    559.093    559.093
100.870   1525.651   1472.197     53.454    558.796   1459.605    571.420    558.796    558.796
100.970   1621.791   1563.886     57.905    558.502   1550.402    572.031    558.502    558.502
101.070   1648.000   1656.796     -8.796    558.208   1642.490    572.577    558.208    558.208
101.170   1837.000   1747.949     89.051    557.917   1732.936    573.014    557.917    557.917
101.270   1852.000   1834.326     17.674    557.627   1818.759    573.303    557.627    557.627
101.370   1888.464   1913.128    -24.664    557.339   1897.187    573.413    557.339    557.339
101.470   1962.000   1982.024    -20.024    557.052   1965.903    573.333    557.052    557.052
101.570   2144.000   2039.309    104.691    556.767   2023.197    573.064    556.767    556.767
101.670   2070.000   2083.867    -13.867    556.484   2067.931    572.629    556.484    556.484
101.770   2202.000   2115.006     86.994    556.203   2099.380    572.059    556.203    556.203
101.870   2134.000   2132.252      1.748    555.923   2117.027    571.396    555.923    555.923
101.970   2106.000   2135.239    -29.239    555.646   2120.467    570.681    555.646    555.646
102.070   2127.773   2123.786      3.987    555.370   2109.475    569.955    555.370    555.370
102.170   2139.000   2098.118     40.882    555.096   2084.243    569.253    555.096    555.096
102.270   1999.000   2059.146    -60.146    554.824   2045.650    568.605    554.824    554.824
102.370   1996.000   2008.629    -12.629    554.554   1995.432    568.034    554.554    554.554
102.470   1959.000   1949.121      9.879    554.287   1936.130    567.556    554.287    554.287
102.570   1813.908   1883.702    -69.794    554.021   1870.815    567.177    554.021    554.021
102.670   1788.000   1815.589    -27.589    553.757   1802.707    566.897    553.757    553.757
102.770   1740.000   1747.765     -7.765    553.495   1734.800    566.705    553.495    553.495
102.870   1654.000   1682.710    -28.710    553.235   1669.592    566.584    553.235    553.235
102.970   1611.000   1622.257    -11.257    552.977   1608.938    566.513    552.977    552.977
103.070   1654.000   1567.542     86.458    552.722   1554.001    566.465    552.722    552.722
103.170   1472.000   1519.019    -47.019    552.468   1505.262    566.415    552.468    552.468
103.270   1434.000   1476.508    -42.508    552.217   1462.566    566.337    552.217    552.217
103.370   1451.000   1439.262     11.738    551.968   1425.190    566.209    551.968    551.968
103.470   1413.356   1406.062      7.294    551.722   1391.936    566.009    551.722    551.722
103.570   1406.000   1375.356     30.644    551.477   1361.272    565.716    551.477    551.477
103.670   1363.969   1345.443     18.526    551.235   1331.515    565.314    551.235    551.235
103.770   1331.000   1314.703     16.297    550.996   1301.058    564.789    550.996    550.996
103.870   1283.481   1281.837      1.644    550.758   1268.604    564.136    550.758    550.758
103.970   1179.000   1246.039    -67.039    550.523   1233.346    563.358    550.523    550.523
104.070   1187.000   1207.076    -20.076    550.291   1195.035    562.469    550.291    550.291
104.170   1105.000   1165.227    -60.227    550.061   1153.931    561.489    550.061    550.061
104.270   1054.000   1121.149    -67.149    549.833   1110.666    560.442    549.833    549.833
104.370   1016.114   1075.712    -59.598    549.608   1066.083    559.357    549.608    549.608
104.470   1076.548   1029.860     46.688    549.386   1021.099    558.259    549.386    549.386
104.570    983.000    984.514     -1.514    549.166    976.612    557.170    549.166    549.166
104.670   1003.000    940.509     62.491    548.949    933.439    556.112    548.949    548.949
104.770    876.852    898.568    -21.716    548.734    892.288    555.099    548.734    548.734
104.870    812.629    859.269    -46.640    548.522    853.727    554.140    548.522    548.522
104.970    782.015    823.056    -41.041    548.313    818.193    553.242    548.313    548.313
105.070    815.734    790.266     25.468    548.106    786.006    552.424    548.106    548.106
105.170    740.000    761.035    -21.035    547.902    757.307    551.681    547.902    547.902
105.270    742.000    735.388      6.612    547.701    732.123    551.009    547.701    547.701
105.370    665.750    713.240    -47.490    547.503    710.371    550.408    547.503    547.503
105.470    671.000    694.416    -23.416    547.308    691.882    549.873    547.308    547.308
105.570    636.906    678.673    -41.767    547.116    676.417    549.397    547.116    547.116
105.670    715.000    665.744     49.256    546.926    663.715    548.975    546.926    546.926
105.770    734.000    655.331     78.669    546.740    653.484    548.602    546.740    546.740
105.870    636.896    647.143    -10.247    546.556    645.440    548.271    546.556    546.556
105.970    666.000    640.911     25.089    546.375    639.319    547.977    546.375    546.375
106.070    600.691    636.399    -35.708    546.198    634.889    547.715    546.198    546.198
106.170    643.000    633.410      9.590    546.024    631.956    547.482    546.024    546.024
106.270    674.104    631.788     42.316    545.852    630.369    547.273    545.852    545.852
106.370    656.000    631.422     24.578    545.684    630.019    547.086    545.684    545.684
106.470    669.000    632.239     36.761    545.519    630.835    546.920    545.519    545.519
106.570    634.000    634.200     -0.200    545.357    632.777    546.774    545.357    545.357
106.670    661.000    637.291     23.709    545.199    635.835    546.647    545.199    545.199
106.770    671.000    641.521     29.479    545.043    640.015    546.538    545.043    545.043
106.870    653.000    646.905      6.095    544.891    645.335    546.447    544.891    544.891
106.970    685.000    653.461     31.539    544.743    651.812    546.375    544.743    544.743
107.070    696.322    661.199     35.122    544.597    659.456    546.321    544.597    544.597
107.170    654.000    670.113    -16.113    544.455    668.260    546.285    544.455    544.455
107.270    678.024    680.166     -2.143    544.317    678.190    546.267    544.317    544.317
107.370    643.452    691.290    -47.838    544.182    689.177    546.265    544.182    544.182
107.470    714.085    703.372     10.714    544.050    701.110    546.278    544.050    544.050
107.570    718.246    716.250      1.995    543.922    713.832    546.304    543.922    543.922
107.670    714.000    729.716    -15.716    543.798    727.135    546.339    543.798    543.798
107.770    730.000    743.509    -13.509    543.677    740.762    546.381    543.677    543.677
107.870    759.000    757.318      1.682    543.560    754.409    546.425    543.560    543.560
107.970    805.712    770.795     34.917    543.446    767.729    546.466    543.446    543.446
108.070    750.000    783.557    -33.557    543.337    780.348    546.499    543.337    543.337
108.170    824.000    795.210     28.790    543.231    791.876    546.518    543.231    543.231
108.270    834.326    805.377     28.948    543.128    801.942    546.517    543.128    543.128
108.370    784.827    813.738    -28.910    543.030    810.230    546.493    543.030    543.030
108.470    813.841    820.069     -6.227    542.935    816.521    546.442    542.935    542.935
108.570    828.000    824.288      3.712    542.844    820.732    546.362    542.844    542.844
108.670    814.000    826.469    -12.469    542.758    822.940    546.253    542.758    542.758
108.770    785.000    826.841    -41.841    542.675    823.366    546.119    542.675    542.675
108.870    775.000    825.747    -50.747    542.596    822.354    545.963    542.596    542.596
108.970    822.000    823.606     -1.606    542.521    820.315    545.791    542.521    542.521
109.070    812.000    820.854     -8.854    542.450    817.679    545.609    542.450    542.450
109.170    860.678    817.904     42.774    542.383    814.854    545.422    542.383    542.383
109.270    797.000    815.113    -18.113    542.321    812.191    545.235    542.321    542.321
109.370    814.577    812.761      1.815    542.262    809.967    545.054    542.262    542.262
109.470    815.000    811.038      3.962    542.208    808.366    544.881    542.208    542.208
109.570    790.000    810.036    -20.036    542.158    807.480    544.720    542.158    542.158
109.670    796.000    809.751    -13.751    542.112    807.299    544.572    542.112    542.112
109.770    858.784    810.077     48.707    542.070    807.721    544.438    542.070    542.070
109.870    761.573    810.820    -49.247    542.033    808.550    544.319    542.033    542.033
109.970    754.778    811.703    -56.925    542.001    809.509    544.214    542.001    542.001
110.070    829.368    812.388     16.980    541.972    810.264    544.119    541.972    541.972
110.170    829.000    812.492     16.508    541.948    810.442    544.024    541.948    541.948
110.270    765.000    811.666    -46.666    541.929    809.681    543.942    541.929    541.929
110.370    802.000    809.587     -7.587    541.914    807.661    543.871    541.914    541.914
110.470    829.159    806.013     23.146    541.904    804.145    543.805    541.904    541.904
110.570    812.000    800.823     11.177    541.898    799.013    543.741    541.898    541.898
110.670    768.000    794.024    -26.024    541.897    792.276    543.679    541.897    541.897
110.770    758.000    785.742    -27.742    541.900    784.058    543.619    541.900    541.900
110.870    812.000    776.194     35.806    541.909    774.576    543.561    541.909    541.909
110.970    788.353    765.655     22.698    541.922    764.104    543.507    541.922    541.922
111.070    742.492    754.428    -11.935    541.940    752.943    543.456    541.940    541.940
111.170    749.000    742.813      6.187    541.962    741.395    543.411    541.962    541.962
111.270    775.466    731.092     44.374    541.990    729.738    543.373    541.990    541.990
111.370    733.000    719.536     13.464    542.022    718.243    543.342    542.022    542.022
111.470    727.878    708.374     19.504    542.060    707.137    543.320    542.060    542.060
111.570    713.318    697.794     15.524    542.102    696.610    543.307    542.102    542.102
111.670    725.945    687.953     37.992    542.149    686.815    543.305    542.149    542.149
111.770    653.000    678.969    -25.969    542.202    677.872    543.314    542.202    542.202
111.870    670.000    670.925     -0.925    542.259    669.864    543.333    542.259    542.259
111.970    680.000    663.872     16.128    542.322    662.840    543.364    542.322    542.322
112.070    664.514    657.827      6.687    542.390    656.818    543.407    542.390    542.390
112.170    655.992    652.782      3.211    542.463    651.790    543.460    542.463    542.463
112.270    662.000    648.704     13.296    542.541    647.725    543.524    542.541    542.541
112.370    613.677    645.544    -31.867    542.625    644.571    543.599    542.625    542.625
112.470    673.992    643.238     30.754    542.714    642.268    543.684    542.714    542.714
112.570    620.000    641.714    -21.714    542.808    640.742    543.778    542.808    542.808
112.670    660.000    640.895     19.105    542.908    639.918    543.882    542.908    542.908
112.770    636.000    640.704     -4.704    543.013    639.720    543.993    543.013    543.013
112.870    652.000    641.066     10.934    543.124    640.073    544.112    543.124    543.124
112.970    627.000    641.913    -14.913    543.240    640.910    544.238    543.240    543.240
113.070    636.000    643.185     -7.185    543.362    642.170    544.370    543.362    543.362
113.170    637.905    644.830     -6.925    543.489    643.803    544.509    543.489    543.489
113.270    628.884    646.811    -17.928    543.622    645.772    544.654    543.622    543.622
113.370    635.000    649.106    -14.106    543.761    648.055    544.804    543.761    543.761
113.470    654.000    651.705      2.295    543.905    650.641    544.961    543.905    543.905
113.570    695.565    654.616     40.949    544.056    653.539    545.124    544.056    544.056
113.670    650.000    657.864     -7.864    544.212    656.773    545.294    544.212    544.212
113.770    656.000    661.493     -5.493    544.374    660.385    545.473    544.374    544.374
113.870    666.000    665.565      0.435    544.542    664.436    545.660    544.542    544.542
113.970    665.000    670.166     -5.166    544.716    669.013    545.858    544.716    544.716
114.070    697.000    675.410     21.590    544.895    674.227    546.067    544.895    544.895
114.170    653.000    681.445    -28.445    545.081    680.225    546.289    545.081    545.081
114.270    652.904    688.460    -35.556    545.273    687.194    546.526    545.273    545.273
114.370    730.680    696.698     33.982    545.471    695.374    546.780    545.471    545.471
114.470    716.000    706.462      9.538    545.676    705.068    547.053    545.676    545.676
114.570    709.000    718.135     -9.135    545.886    716.655    547.347    545.886    545.886
114.670    714.000    732.192    -18.192    546.103    730.607    547.664    546.103    546.103
114.770    694.000    749.214    -55.214    546.326    747.504    548.009    546.326    546.326
114.870    771.000    769.912      1.088    546.555    768.051    548.383    546.555    546.555
114.970    809.000    795.134     13.866    546.791    793.095    548.791    546.791    546.791
115.070    835.485    825.892      9.593    547.033    823.642    549.235    547.033    547.033
115.170    889.593    863.363     26.229    547.281    860.866    549.720    547.281    547.281
115.270    884.000    908.905    -24.905    547.536    906.122    550.250    547.536    547.536
115.370    881.000    964.055    -83.055    547.798    960.941    550.827    547.798    547.798
115.470    995.436   1030.519    -35.083    548.066   1027.027    551.457    548.066    548.066
115.570   1123.000   1110.160     12.840    548.341   1106.236    552.142    548.341    548.341
115.670   1244.599   1204.957     39.642    548.623   1200.547    552.887    548.623    548.623
115.770   1254.000   1316.969    -62.969    548.911   1312.014    553.694    548.911    548.911
115.870   1385.494   1448.265    -62.771    549.206   1442.703    554.565    549.206    549.206
115.970   1602.000   1600.851      1.149    549.508   1594.619    555.503    549.508    549.508
116.070   1833.000   1776.575     56.425    549.816   1769.610    556.509    549.816    549.816
116.170   2007.000   1977.023     29.977    550.132   1969.262    557.581    550.132    550.132
116.270   2208.000   2203.402      4.598    550.455   2194.786    558.719    550.455    550.455
116.370   2581.000   2456.423    124.577    550.784   2446.894    559.919    550.784    550.784
116.470   2759.543   2736.173     23.370    551.121   2725.681    561.176    551.121    551.121
116.570   3017.633   3041.996    -24.363    551.465   3030.500    562.483    551.465    551.465
116.670   3329.000   3372.406    -43.406    551.815   3359.874    563.830    551.815    551.815
116.770   3706.000   3725.086    -19.086    552.173   3711.497    565.209    552.173    552.173
116.870   4083.000   4096.642    -13.642    552.539   4081.989    566.608    552.539    552.539
116.970   4472.000   4482.719    -10.719    552.911   4467.008    568.015    552.911    552.911
117.070   5005.321   4877.970    127.350    553.291   4861.223    569.415    553.291    553.291
117.170   5233.000   5276.098    -43.098    553.678   5258.351    570.795    553.678    553.678
117.270   5697.000   5669.918     27.082    554.073   5651.222    572.144    554.073    554.073
117.370   5991.000   6051.468    -60.468    554.475   6031.889    573.447    554.475    554.475
117.470   6371.709   6412.171    -40.462    554.884   6391.788    574.691    554.884    554.884
117.570   6837.000   6743.058     93.942    555.301   6721.965    575.864    555.301    555.301
117.670   6948.733   7035.077    -86.344    555.726   7013.380    576.951    555.726    555.726
117.770   7211.000   7279.506    -68.506    556.158   7257.325    577.939    556.158    556.158
117.870   7541.000   7468.470     72.530    556.598   7445.936    578.816    556.598    556.598
117.970   7687.000   7595.520     91.480    557.046   7572.773    579.571    557.046    557.046
118.070   7498.000   7656.198   -158.198    557.502   7633.381    580.197    557.502    557.502
118.170   7717.888   7648.475     69.412    557.965   7625.732    580.691    557.965    557.965
118.270   7556.000   7572.967    -16.967    558.436   7550.436    581.051    558.436    558.436
118.370   7515.000   7432.858     82.142    558.916   7410.670    581.283    558.916    558.916
118.470   7070.000   7233.564   -163.564    559.403   7211.838    581.395    559.403    559.403
118.570   6951.000   6982.218    -31.218    559.898   6961.060    581.397    559.898    559.898
118.670   6571.000   6687.081   -116.081    560.401   6666.584    581.302    560.401    560.401
118.770   6207.000   6356.989   -149.989    560.913   6337.231    581.123    560.913    560.913
118.870   5915.000   6000.883    -85.883    561.432   5981.928    580.873    561.432    561.432
118.970   5645.349   5627.447     17.903    561.960   5609.347    580.567    561.960    561.960
119.070   5220.000   5244.844    -24.844    562.496   5227.637    580.219    562.496    562.496
119.170   4963.000   4860.524    102.476    563.040   4844.234    579.842    563.040    563.040
119.270   4624.000   4481.094    142.906    563.593   4465.734    579.451    563.593    563.593
119.370   4167.000   4112.231     54.769    564.154   4097.801    579.061    564.154    564.154
119.470   3679.000   3758.637    -79.637    564.724   3745.124    578.684    564.724    564.724
119.570   3506.000   3424.024     81.976    565.302   3411.406    578.333    565.302    565.302
119.670   3131.000   3111.141     19.859    565.889   3099.385    578.020    565.889    565.889
119.770   2832.000   2821.826     10.174    566.484   2810.892    577.754    566.484    566.484
119.870   2573.000   2557.089     15.911    567.088   2546.929    577.544    567.088    567.088
119.970   2295.000   2317.209    -22.209    567.701   2307.768    577.397    567.701    567.701
120.070   2131.000   2101.845     29.155    568.322   2093.065    577.319    568.322    568.322
120.170   1945.000   1910.152     34.848    568.953   1901.971    577.315    568.953    568.953
120.270   1820.000   1740.895     79.105    569.592   1733.248    577.388    569.592    569.592
120.370   1610.016   1592.554     17.461    570.240   1585.374    577.540    570.240    570.240
120.470   1541.128   1463.424     77.704    570.897   1456.641    577.773    570.897    570.897
120.570   1502.000   1351.698    150.302    571.563   1345.244    578.088    571.563    571.563
120.670   1312.000   1255.546     56.454    572.238   1249.350    578.485    572.238    572.238
120.770   1234.737   1173.172     61.565    572.923   1167.165    578.966    572.923    572.923
120.870   1094.000   1102.867     -8.867    573.616   1096.977    579.530    573.616    573.616
120.970   1123.000   1043.040     79.960    574.319   1037.195    580.177    574.319    574.319
121.070   1018.092    992.243     25.849    575.031    986.372    580.908    575.031    575.031
121.170    933.149    949.185    -16.035    575.752    943.214    581.724    575.752    575.752
121.270    877.799    912.730    -34.931    576.483    906.586    582.626    576.483    576.483
121.370    866.760    881.901    -15.142    577.223    875.506    583.614    577.223    577.223
121.470    901.742    855.862     45.881    577.973    849.138    584.691    577.973    577.973
121.570    818.000    833.909    -15.909    578.732    826.776    585.860    578.732    578.732
121.670    813.905    815.458     -1.554    579.500    807.832    587.122    579.500    579.500
121.770    777.000    800.024    -23.024    580.279    791.818    588.481    580.279    580.279
121.870    736.000    787.208    -51.208    581.067    778.333    589.939    581.067    581.067
121.970    734.000    776.685    -42.685    581.865    767.048    591.500    581.865    581.865
122.070    738.582    768.185    -29.604    582.672    757.692    593.166    582.672    582.672
122.170    797.000    761.490     35.510    583.490    750.043    594.939    583.490    583.490
122.270    728.000    756.415    -28.415    584.317    743.913    596.823    584.317    584.317
122.370    717.662    752.805    -35.143    585.155    739.148    598.817    585.155    585.155
122.470    709.676    750.527    -40.852    586.002    735.614    600.923    586.002    586.002
122.570    788.000    749.464     38.536    586.860    733.193    603.141    586.860    586.860
122.670    763.797    749.508     14.289    587.727    731.779    605.467    587.727    587.727
122.770    741.000    750.558     -9.558    588.605    731.277    607.900    588.605    588.605
122.870    759.000    752.518      6.482    589.493    731.593    610.434    589.493    589.493
122.970    705.914    755.289    -49.376    590.392    732.639    613.061    590.392    590.392
123.070    725.000    758.774    -33.774    591.300    734.325    615.770    591.300    591.300
123.170    734.628    762.868    -28.240    592.219    736.561    618.550    592.219    592.219
123.270    756.000    767.463    -11.463    593.149    739.257    621.382    593.149    593.149
123.370    722.021    772.446    -50.424    594.089    742.317    624.248    594.089    594.089
123.470    775.000    777.694     -2.694    595.040    745.642    627.125    595.040    595.040
123.570    838.608    783.081     55.527    596.001    749.133    629.987    596.001    596.001
123.670    825.780    788.472     37.308    596.973    752.682    632.803    596.973    596.973
123.770    791.000    793.728     -2.728    597.956    756.184    635.544    597.956    597.956
123.870    821.263    798.705     22.557    598.949    759.527    638.175    598.949    598.949
123.970    877.000    803.260     73.740    599.954    762.603    640.662    599.954    599.954
124.070    775.000    807.248    -32.248    600.969    765.303    642.969    600.969    600.969
124.170    821.000    810.521     10.479    601.995    767.511    645.064    601.995    601.995
124.270    798.000    812.960    -14.960    603.032    769.139    646.914    603.032    603.032
124.370    863.000    814.503     48.497    604.081    770.150    648.498    604.081    604.081
124.470    857.008    815.050     41.958    605.140    770.462    649.795    605.140    605.140
124.570    812.000    814.554     -2.554    606.211    770.039    650.794    606.211    606.211
124.670    856.177    813.004     43.172    607.292    768.872    651.495    607.292    607.292
124.770    896.000    810.426     85.574    608.386    766.977    651.907    608.386    608.386
124.870    874.000    806.876     67.124    609.490    764.394    652.044    609.490    609.490
124.970    817.000    802.438     14.562    610.606    761.183    651.933    610.606    610.606
