neutron_powder_diffraction_0011
R_wp: 3.634
Temperature (K): 455.606
Counts: 83591.00
Wavelength (Ã…): 2.52098
COMMENTS
Test file for demonstrating the .xyy file format in Reel1.0
END OF HEADER
   tth       Y_obs     Y_calc      Y_res    Background    Phase_1_Nuc    Phase_1_Mag    Phase_2_Nuc    Phase_2_Mag
  9.970    730.000    741.954    -11.954    740.206    741.256    740.903    740.206    740.206
 10.070    756.895    740.832     16.063    738.992    740.126    739.697    738.992    738.992
 10.170    773.000    739.728     33.272    737.785    739.015    738.498    737.785    737.785
 10.270    755.000    738.646     16.354    736.585    737.925    737.306    736.585    736.585
 10.370    757.437    737.586     19.850    735.392    736.857    736.120    735.392    735.392
 10.470    714.000    736.554    -22.554    734.206    735.817    734.942    734.206    734.206
 10.570    786.000    735.552     50.448    733.026    734.808    733.770    733.026    733.026
 10.670    735.818    734.588      1.230    731.853    733.835    732.605    731.853    731.853
 10.770    774.164    733.668     40.495    730.686    732.907    731.447    730.686    730.686
 10.870    757.000    732.804     24.196    729.527    732.034    730.295    729.527    729.527
 10.970    776.000    732.007     43.993    728.373    731.228    729.151    728.373    728.373
 11.070    763.000    731.298     31.702    727.227    730.510    728.013    727.227    727.227
 11.170    763.000    730.702     32.298    726.087    729.905    726.882    726.087    726.087
 11.270    677.699    730.258    -52.559    724.954    729.452    725.757    724.954    724.954
 11.370    703.466    730.032    -26.566    723.827    729.216    724.640    723.827    723.827
 11.470    744.000    730.155     13.845    722.707    729.329    723.529    722.707    722.707
 11.570    776.000    730.964     45.036    721.593    730.128    722.425    721.593    721.593
 11.670    756.000    732.767     23.233    720.486    731.919    721.328    720.486    720.486
 11.770    799.000    736.752     62.248    719.385    735.891    720.237    719.385    719.385
 11.870    881.000    744.729    136.271    718.291    743.853    719.153    718.291    718.291
 11.970    830.000    758.861     71.139    717.204    757.967    718.075    717.204    717.204
 12.070    815.209    780.332     34.877    716.123    779.416    717.005    716.123    716.123
 12.170    800.000    806.820     -6.820    715.048    805.878    715.940    715.048    715.048
 12.270    877.000    829.565     47.435    713.979    828.600    714.883    713.979    713.979
 12.370    845.000    835.159      9.841    712.918    834.179    713.832    712.918    712.918
 12.470    890.000    818.410     71.590    711.862    817.427    712.787    711.862    711.862
 12.570    770.000    790.046    -20.046    710.813    789.067    711.749    710.813    710.813
 12.670    735.000    762.893    -27.893    709.770    761.917    710.718    709.770    709.770
 12.770    691.000    742.584    -51.584    708.734    741.607    709.693    708.734    708.734
 12.870    721.000    729.410     -8.410    707.703    728.427    708.675    707.703    707.703
 12.970    772.139    721.451     50.688    706.680    720.459    707.663    706.680    706.680
 13.070    691.000    716.583    -25.583    705.662    715.582    706.658    705.662    705.662
 13.170    663.000    713.322    -50.322    704.651    712.309    705.660    704.651    704.651
 13.270    744.042    710.865     33.177    703.646    709.840    704.667    703.646    703.646
 13.370    667.000    708.842    -41.842    702.647    707.804    703.682    702.647    702.647
 13.470    683.000    707.084    -24.084    701.654    706.033    702.703    701.654    701.654
 13.570    751.000    705.507     45.493    700.668    704.443    701.730    700.668    700.668
 13.670    675.000    704.063    -29.063    699.688    702.986    700.763    699.688    699.688
 13.770    678.597    702.727    -24.129    698.714    701.635    699.804    698.714    698.714
 13.870    719.000    701.480     17.520    697.746    700.374    698.851    697.746    697.746
 13.970    676.310    700.276    -23.965    696.784    699.155    697.904    696.784    696.784
 14.070    723.431    699.119     24.313    695.828    697.983    696.963    695.828    695.828
 14.170    693.000    698.002     -5.002    694.879    696.851    696.029    694.879    694.879
 14.270    682.540    696.920    -14.379    693.935    695.753    695.101    693.935    693.935
 14.370    646.205    695.866    -49.661    692.998    694.683    694.180    692.998    692.998
 14.470    701.000    694.837      6.163    692.067    693.638    693.265    692.067    692.067
 14.570    722.604    693.833     28.771    691.141    692.618    692.356    691.141    691.141
 14.670    638.515    692.846    -54.331    690.222    691.613    691.454    690.222    690.222
 14.770    656.000    691.875    -35.875    689.309    690.625    690.558    689.309    689.309
 14.870    720.000    690.918     29.082    688.401    689.651    689.668    688.401    688.401
 14.970    731.000    689.976     41.024    687.500    688.690    688.785    687.500    687.500
 15.070    645.000    689.047    -44.047    686.604    687.743    687.908    686.604    686.604
 15.170    735.090    688.130     46.960    685.715    686.807    687.038    685.715    685.715
 15.270    710.189    687.225     22.964    684.831    685.882    686.173    684.831    684.831
 15.370    650.000    686.330    -36.330    683.953    684.967    685.316    683.953    683.953
 15.470    674.000    685.445    -11.445    683.081    684.062    684.464    683.081    683.081
 15.570    704.000    684.570     19.430    682.215    683.166    683.619    682.215    682.215
 15.670    633.588    683.704    -50.115    681.355    682.279    682.780    681.355    681.355
 15.770    686.453    682.847      3.607    680.501    681.401    681.947    680.501    680.501
 15.870    702.000    681.999     20.001    679.652    680.530    681.120    679.652    679.652
 15.970    680.000    681.161     -1.161    678.809    679.670    680.300    678.809    678.809
 16.070    652.000    680.335    -28.335    677.972    678.821    679.487    677.972    677.972
 16.170    731.474    679.512     51.962    677.141    677.974    678.679    677.141    677.141
 16.270    658.000    678.697    -20.697    676.316    677.134    677.878    676.316    676.316
 16.370    681.000    677.889      3.111    675.496    676.301    677.083    675.496    675.496
 16.470    683.000    677.089      5.911    674.682    675.475    676.294    674.682    674.682
 16.570    676.000    676.296     -0.296    673.873    674.657    675.512    673.873    673.873
 16.670    681.000    675.511      5.489    673.070    673.845    674.736    673.070    673.070
 16.770    635.203    674.741    -39.538    672.273    673.048    673.967    672.273    672.273
 16.870    620.539    673.978    -53.439    671.482    672.256    673.204    671.482    671.482
 16.970    638.765    673.215    -34.450    670.696    671.464    672.446    670.696    670.696
 17.070    650.567    672.461    -21.894    669.915    670.680    671.696    669.915    669.915
 17.170    684.750    671.742     13.009    669.140    669.929    670.953    669.140    669.140
 17.270    690.227    671.070     19.157    668.371    669.224    670.217    668.371    668.371
 17.370    691.000    670.353     20.647    667.607    668.474    669.486    667.607    667.607
 17.470    675.892    669.626      6.266    666.849    667.715    668.761    666.849    666.849
 17.570    704.508    668.905     35.603    666.097    666.960    668.042    666.097    666.097
 17.670    673.039    668.192      4.848    665.349    666.212    667.329    665.349    665.349
 17.770    708.534    667.485     41.049    664.608    665.470    666.623    664.608    664.608
 17.870    630.000    666.785    -36.785    663.871    664.733    665.923    663.871    663.871
 17.970    704.430    666.092     38.338    663.141    664.003    665.230    663.141    663.141
 18.070    617.315    665.406    -48.092    662.415    663.278    664.543    662.415    662.415
 18.170    657.890    664.729     -6.839    661.695    662.561    663.863    661.695    661.695
 18.270    703.000    664.058     38.942    660.980    661.849    663.189    660.980    660.980
 18.370    669.000    663.394      5.606    660.271    661.143    662.522    660.271    660.271
 18.470    694.714    662.736     31.978    659.567    660.442    661.861    659.567    659.567
 18.570    647.000    662.085    -15.085    658.868    659.747    661.207    658.868    658.868
 18.670    631.000    661.443    -30.443    658.175    659.058    660.559    658.175    658.175
 18.770    667.000    660.816      6.184    657.487    658.384    659.919    657.487    657.487
 18.870    665.042    660.189      4.853    656.804    657.709    659.285    656.804    656.804
 18.970    674.788    659.567     15.220    656.127    657.036    658.658    656.127    656.127
 19.070    626.000    658.952    -32.952    655.454    656.370    658.037    655.454    655.454
 19.170    659.000    658.344      0.656    654.787    655.708    657.423    654.787    654.787
 19.270    637.195    657.749    -20.555    654.125    655.057    656.817    654.125    654.125
 19.370    610.987    657.217    -46.230    653.469    654.456    656.230    653.469    653.469
 19.470    675.393    656.676     18.717    652.817    653.843    655.651    652.817    652.817
 19.570    613.945    656.103    -42.158    652.171    653.208    655.066    652.171    652.171
 19.670    615.359    655.536    -40.177    651.529    652.578    654.488    651.529    651.529
 19.770    621.943    654.978    -33.034    650.893    651.955    653.916    650.893    650.893
 19.870    631.000    654.439    -23.439    650.262    651.349    653.352    650.262    650.262
 19.970    626.954    653.900    -26.947    649.636    650.739    652.797    649.636    649.636
 20.070    621.000    653.397    -32.397    649.015    650.146    652.266    649.015    649.015
 20.170    593.000    652.899    -59.899    648.399    649.562    651.737    648.399    648.399
 20.270    683.000    652.406     30.594    647.788    648.990    651.205    647.788    647.788
 20.370    633.000    651.939    -18.939    647.183    648.441    650.680    647.183    647.183
 20.470    666.000    651.462     14.538    646.582    647.882    650.162    646.582    646.582
 20.570    612.000    650.977    -38.977    645.986    647.310    649.652    645.986    645.986
 20.670    660.000    650.514      9.486    645.395    646.759    649.150    645.395    645.395
 20.770    670.510    650.064     20.446    644.809    646.215    648.657    644.809    644.809
 20.870    645.000    649.603     -4.603    644.228    645.658    648.172    644.228    644.228
 20.970    610.214    649.155    -38.941    643.651    645.108    647.699    643.651    643.651
 21.070    626.000    648.717    -22.717    643.080    644.562    647.235    643.080    643.080
 21.170    672.870    648.282     24.588    642.513    644.019    646.777    642.513    642.513
 21.270    626.465    647.858    -21.393    641.952    643.484    646.326    641.952    641.952
 21.370    633.000    647.450    -14.450    641.395    642.959    645.886    641.395    641.395
 21.470    691.259    647.050     44.208    640.843    642.438    645.455    640.843    640.843
 21.570    609.000    646.658    -37.658    640.296    641.920    645.034    640.296    640.296
 21.670    641.000    646.278     -5.278    639.753    641.409    644.622    639.753    639.753
 21.770    647.000    645.909      1.091    639.215    640.904    644.221    639.215    639.215
 21.870    633.000    645.554    -12.554    638.682    640.405    643.831    638.682    638.682
 21.970    623.000    645.211    -22.211    638.154    639.914    643.452    638.154    638.154
 22.070    669.000    644.885     24.115    637.631    639.432    643.084    637.631    637.631
 22.170    639.000    644.573     -5.573    637.112    638.958    642.728    637.112    637.112
 22.270    674.595    644.277     30.319    636.597    638.491    642.384    636.597    636.597
 22.370    666.000    643.997     22.003    636.088    638.033    642.052    636.088    636.088
 22.470    616.000    643.735    -27.735    635.583    637.584    641.734    635.583    635.583
 22.570    678.602    643.493     35.109    635.082    637.146    641.430    635.082    635.082
 22.670    636.000    643.276     -7.276    634.587    636.722    641.141    634.587    634.587
 22.770    635.000    643.080     -8.080    634.096    636.309    640.867    634.096    634.096
 22.870    598.000    642.905    -44.905    633.609    635.907    640.608    633.609    633.609
 22.970    623.000    642.758    -19.758    633.127    635.520    640.365    633.127    633.127
 23.070    612.910    642.640    -29.729    632.649    635.149    640.140    632.649    632.649
 23.170    635.000    642.554     -7.554    632.176    634.798    639.933    632.176    632.176
 23.270    651.000    642.505      8.495    631.708    634.469    639.744    631.708    631.708
 23.370    638.723    642.498     -3.775    631.243    634.167    639.576    631.243    631.243
 23.470    602.233    642.540    -40.307    630.784    633.896    639.428    630.784    630.784
 23.570    610.919    642.638    -31.720    630.328    633.664    639.304    630.328    630.328
 23.670    612.367    642.805    -30.437    629.878    633.480    639.204    629.878    629.878
 23.770    710.000    643.053     66.947    629.431    633.356    639.129    629.431    629.431
 23.870    688.781    643.404     45.377    628.989    633.312    639.083    628.989    628.989
 23.970    679.721    643.886     35.835    628.551    633.373    639.066    628.551    628.551
 24.070    660.223    644.542     15.681    628.118    633.582    639.080    628.118    628.118
 24.170    615.000    645.454    -30.454    627.689    634.018    639.128    627.689    627.689
 24.270    649.000    646.792      2.208    627.264    634.847    639.213    627.264    627.264
 24.370    637.000    648.917    -11.917    626.844    636.428    639.338    626.844    626.844
 24.470    672.000    652.533     19.467    626.428    639.462    639.506    626.428    626.428
 24.570    649.000    658.781     -9.781    626.016    645.088    639.720    626.016    626.016
 24.670    644.316    669.012    -24.696    625.608    654.653    639.986    625.608    625.608
 24.770    725.000    683.995     41.005    625.204    668.921    640.308    625.204    625.204
 24.870    716.000    702.454     13.546    624.805    686.610    640.692    624.805    624.805
 24.970    710.000    719.233     -9.233    624.410    702.555    641.143    624.410    624.410
 25.070    737.785    725.688     12.097    624.019    708.097    641.669    624.019    624.019
 25.170    721.000    717.434      3.566    623.632    698.841    642.279    623.632    623.632
 25.270    760.000    700.673     59.327    623.249    680.983    642.980    623.249    623.249
 25.370    671.870    683.926    -12.056    622.871    663.039    643.785    622.871    622.871
 25.470    641.000    671.371    -30.371    622.496    649.179    644.705    622.496    622.496
 25.570    702.000    663.626     38.374    622.126    640.006    645.756    622.126    622.126
 25.670    684.000    659.678     24.322    621.760    634.489    646.955    621.760    621.760
 25.770    699.814    658.186     41.628    621.397    631.266    648.321    621.397    621.397
 25.870    674.000    658.134     15.866    621.039    629.296    649.880    621.039    621.039
 25.970    677.000    658.950     18.050    620.685    627.972    651.665    620.685    620.685
 26.070    649.000    660.352    -11.352    620.334    626.990    653.698    620.334    620.334
 26.170    671.000    662.258      8.742    619.988    626.221    656.026    619.988    619.988
 26.270    686.134    664.655     21.480    619.646    625.602    658.699    619.646    619.646
 26.370    685.294    667.570     17.723    619.307    625.099    661.779    619.307    619.307
 26.470    663.000    671.061     -8.061    618.972    624.691    665.342    618.972    618.972
 26.570    681.000    675.209      5.791    618.642    624.367    669.482    618.642    618.642
 26.670    707.000    680.128     26.872    618.315    624.121    674.321    618.315    618.315
 26.770    676.000    685.972     -9.972    617.992    623.951    680.012    617.992    617.992
 26.870    704.000    692.942     11.058    617.673    623.860    686.752    617.673    617.673
 26.970    692.000    701.306     -9.306    617.358    623.855    694.805    617.358    617.358
 27.070    762.430    711.426     51.004    617.046    623.950    704.519    617.046    617.046
 27.170    696.327    723.802    -27.475    616.738    624.163    716.372    616.738    616.738
 27.270    733.000    739.115     -6.115    616.434    624.524    731.019    616.434    616.434
 27.370    743.000    758.337    -15.337    616.134    625.071    749.392    616.134    616.134
 27.470    755.000    782.917    -27.917    615.838    625.868    772.876    615.838    615.838
 27.570    837.000    815.183     21.817    615.545    627.016    803.698    615.545    615.545
 27.670    880.000    859.815     20.185    615.256    628.715    846.338    615.256    615.256
 27.770    888.000    929.688    -41.688    614.971    631.518    913.112    614.971    614.971
 27.870   1069.000   1064.959      4.041    614.689    637.140   1042.455    614.689    614.689
 27.970   1396.885   1375.475     21.410    614.411    650.269   1339.501    614.411    614.411
 28.070   2075.804   2084.101     -8.298    614.136    680.410   2017.568    614.136    614.136
 28.170   3327.000   3468.975   -141.975    613.866    739.431   3342.896    613.866    613.866
 28.270   5462.000   5589.697   -127.697    613.598    829.902   5372.570    613.598    613.598
 28.370   8046.459   7899.122    147.337    613.335    928.583   7582.876    613.335    613.335
 28.470   9053.000   9182.056   -129.056    613.075    983.874   8810.457    613.075    613.075
 28.570   8646.000   8546.217     99.783    612.818    958.195   8200.561    612.818    612.818
 28.670   6857.000   6642.395    214.605    612.565    880.235   6374.864    612.565    612.565
 28.770   4893.000   4821.009     71.991    612.315    809.127   4624.454    612.315    612.315
 28.870   3986.037   3930.140     55.897    612.069    782.605   3759.790    612.069    612.069
 28.970   4001.000   4044.987    -43.987    611.827    803.759   3853.157    611.827    611.827
 29.070   4787.000   4682.110    104.890    611.587    847.988   4445.828    611.587    611.587
 29.170   4945.834   5092.921   -147.087    611.352    875.005   4829.529    611.352    611.352
 29.270   4849.151   4744.592    104.559    611.119    855.514   4500.630    611.119    611.119
 29.370   3755.000   3787.698    -32.698    610.891    799.373   3599.696    610.891    610.891
 29.470   2609.000   2717.723   -108.723    610.665    736.293   2592.491    610.665    610.665
 29.570   1834.000   1876.119    -42.119    610.443    686.643   1800.183    610.443    610.443
 29.670   1367.541   1347.400     20.142    610.224    655.489   1302.286    610.224    610.224
 29.770   1043.000   1063.193    -20.193    610.008    638.807   1034.473    610.008    610.008
 29.870    943.000    921.067     21.933    609.796    630.542    900.362    609.796    609.796
 29.970    914.000    846.853     67.147    609.587    626.313    830.150    609.587    609.587
 30.070    823.511    802.451     21.061    609.382    623.880    787.968    609.382    609.382
 30.170    810.000    772.047     37.953    609.179    622.326    758.911    609.179    609.179
 30.270    761.628    749.588     12.040    608.980    621.332    737.244    608.980    608.980
 30.370    772.000    732.592     39.408    608.784    620.821    720.560    608.784    608.784
 30.470    738.323    720.029     18.294    608.591    620.901    707.721    608.591    608.591
 30.570    772.000    711.891     60.109    608.402    621.950    698.341    608.402    608.402
 30.670    659.532    709.296    -49.764    608.216    624.757    692.747    608.216    608.216
 30.770    759.284    714.386     44.897    608.032    630.526    691.878    608.032    608.032
 30.870    729.000    729.294     -0.294    607.852    640.400    696.717    607.852    607.852
 30.970    765.731    753.783     11.948    607.675    654.376    707.038    607.675    607.675
 31.070    803.000    782.077     20.923    607.501    669.808    719.710    607.501    607.501
 31.170    838.393    801.196     37.196    607.330    680.633    727.826    607.330    607.330
 31.270    901.000    797.647    103.353    607.163    680.532    724.216    607.163    607.163
 31.370    827.000    771.136     55.864    606.998    669.403    708.684    606.998    606.998
 31.470    691.176    734.843    -43.668    606.836    653.497    688.151    606.836    606.836
 31.570    728.666    701.687     26.980    606.678    638.937    669.409    606.678    606.678
 31.670    714.000    677.356     36.644    606.522    628.429    655.438    606.522    606.522
 31.770    710.000    661.877     48.123    606.369    622.004    646.236    606.369    606.369
 31.870    676.000    652.776     23.224    606.220    618.510    640.481    606.220    606.220
 31.970    657.000    647.417      9.583    606.073    616.716    636.771    606.073    606.073
 32.070    599.503    644.013    -44.509    605.929    615.789    634.150    605.929    605.929
 32.170    676.000    641.629     34.371    605.788    615.299    632.116    605.788    605.788
 32.270    646.000    639.854      6.146    605.650    615.062    630.441    605.650    605.650
 32.370    662.000    638.516     23.484    605.515    615.005    629.025    605.515    605.515
 32.470    692.000    637.543     54.457    605.382    615.103    627.821    605.382    605.382
 32.570    639.000    636.901      2.099    605.253    615.350    626.803    605.253    605.253
 32.670    646.000    636.584      9.416    605.126    615.754    625.955    605.126    605.126
 32.770    694.000    636.602     57.398    605.002    616.331    625.272    605.002    605.002
 32.870    699.000    636.985     62.015    604.881    617.110    624.756    604.881    604.881
 32.970    610.000    637.786    -27.786    604.762    618.132    624.415    604.762    604.762
 33.070    653.000    639.085     13.915    604.647    619.460    624.271    604.647    604.647
 33.170    683.000    641.006     41.994    604.534    621.183    624.356    604.534    604.534
 33.270    690.677    643.746     46.932    604.424    623.441    624.728    604.424    604.424
 33.370    652.000    647.654      4.346    604.316    626.478    625.491    604.316    604.316
 33.470    662.832    653.454      9.378    604.211    630.797    626.866    604.211    604.211
 33.570    681.000    662.766     18.234    604.109    637.522    629.350    604.109    604.109
 33.670    672.000    679.088     -7.088    604.010    649.072    634.020    604.010    604.010
 33.770    713.000    709.009      3.991    603.913    670.004    642.907    603.913    603.913
 33.870    816.334    762.476     53.858    603.819    707.199    659.078    603.819    603.819
 33.970    799.000    850.068    -51.068    603.727    767.975    685.795    603.727    603.727
 34.070    917.363    975.882    -58.519    603.638    855.167    724.323    603.638    603.638
 34.170   1050.000   1126.921    -76.921    603.551    959.793    770.651    603.551    603.551
 34.270   1259.000   1262.139     -3.139    603.467   1053.475    812.118    603.467    603.467
 34.370   1318.000   1316.651      1.349    603.386   1091.344    828.704    603.386    603.386
 34.470   1218.963   1254.405    -35.441    603.307   1048.459    809.279    603.307    603.307
 34.570   1090.222   1115.169    -24.947    603.231    952.317    766.112    603.231    603.231
 34.670    913.000    963.874    -50.874    603.157    847.821    719.234    603.157    603.157
 34.770    839.000    839.648     -0.648    603.085    762.031    680.719    603.085    603.085
 34.870    770.637    753.892     16.744    603.016    702.834    654.085    603.016    603.016
 34.970    741.000    701.697     39.303    602.949    666.836    637.816    602.949    602.949
 35.070    619.676    672.295    -52.619    602.885    646.592    628.592    602.885    602.885
 35.170    657.713    655.888      1.825    602.823    635.326    623.388    602.823    602.823
 35.270    631.734    646.116    -14.382    602.764    628.639    620.242    602.764    602.764
 35.370    612.578    639.650    -27.072    602.706    624.230    618.127    602.706    602.706
 35.470    607.908    634.962    -27.055    602.652    621.042    616.572    602.652    602.652
 35.570    676.503    631.366     45.137    602.599    618.600    615.366    602.599    602.599
 35.670    635.000    628.522      6.478    602.549    616.669    614.403    602.549    602.549
 35.770    668.000    626.235     41.765    602.501    615.112    613.625    602.501    602.501
 35.870    658.000    624.375     33.625    602.456    613.840    612.991    602.456    602.456
 35.970    610.031    622.851    -12.820    602.412    612.789    612.475    602.412    602.412
 36.070    633.153    621.599     11.554    602.371    611.912    612.059    602.371    602.371
 36.170    572.406    620.571    -48.166    602.332    611.176    611.728    602.332    602.332
 36.270    631.472    619.733     11.739    602.295    610.555    611.474    602.295    602.295
 36.370    608.000    619.061    -11.061    602.261    610.029    611.293    602.261    602.261
 36.470    593.000    618.536    -25.536    602.229    609.584    611.182    602.229    602.229
 36.570    588.364    618.151    -29.787    602.198    609.208    611.142    602.198    602.198
 36.670    568.682    617.900    -49.218    602.170    608.894    611.177    602.170    602.170
 36.770    571.565    617.786    -46.221    602.144    608.636    611.295    602.144    602.144
 36.870    618.000    617.817      0.183    602.121    608.431    611.507    602.121    602.121
 36.970    643.000    618.012     24.988    602.099    608.280    611.831    602.099    602.099
 37.070    648.000    618.401     29.599    602.079    608.190    612.291    602.079    602.079
 37.170    595.000    619.039    -24.039    602.062    608.176    612.926    602.062    602.062
 37.270    638.000    620.026     17.974    602.046    608.277    613.795    602.046    602.046
 37.370    636.000    621.551     14.449    602.032    608.571    615.013    602.032    602.032
 37.470    637.000    623.976     13.024    602.021    609.183    616.815    602.021    602.021
 37.570    672.258    627.968     44.290    602.011    610.287    619.694    602.011    602.011
 37.670    628.658    634.665     -6.007    602.004    612.054    624.616    602.004    602.004
 37.770    619.000    645.764    -26.764    601.998    614.551    633.214    601.998    601.998
 37.870    706.146    663.301     42.845    601.994    617.588    647.709    601.994    601.994
 37.970    736.081    688.781     47.300    601.993    620.538    670.239    601.993    601.993
 38.070    689.000    721.765    -32.765    601.993    622.332    701.430    601.993    601.993
 38.170    741.514    758.558    -17.044    601.995    622.152    738.407    601.995    601.995
 38.270    768.000    790.877    -22.877    601.999    620.233    772.654    601.999    601.999
 38.370    786.629    805.937    -19.308    602.004    617.458    790.499    602.004    602.004
 38.470    815.000    794.915     20.085    602.012    614.589    782.358    602.012    602.012
 38.570    706.000    763.075    -57.075    602.021    612.087    753.030    602.021    602.021
 38.670    720.000    723.977     -3.977    602.033    610.168    715.860    602.033    602.033
 38.770    734.000    688.435     45.565    602.046    608.836    681.659    602.046    602.046
 38.870    655.000    661.303     -6.303    602.060    607.976    655.397    602.060    602.060
 38.970    634.000    643.013     -9.013    602.077    607.446    637.650    602.077    602.077
 39.070    649.000    631.747     17.253    602.095    607.124    626.722    602.095    602.095
 39.170    616.000    625.135     -9.135    602.115    606.929    620.324    602.115    602.115
 39.270    619.218    621.229     -2.011    602.137    606.808    616.560    602.137    602.137
 39.370    621.000    618.779      2.221    602.160    606.734    614.207    602.160    602.160
 39.470    655.175    617.106     38.069    602.185    606.692    612.601    602.185    602.185
 39.570    594.000    615.876    -21.876    602.212    606.673    611.417    602.212    602.212
 39.670    603.000    614.930    -11.930    602.241    606.672    610.499    602.241    602.241
 39.770    593.000    614.183    -21.183    602.271    606.688    609.766    602.271    602.271
 39.870    637.000    613.586     23.414    602.302    606.718    609.171    602.302    602.302
 39.970    657.000    613.106     43.894    602.336    606.761    608.682    602.336    602.336
 40.070    598.950    612.721    -13.771    602.370    606.816    608.276    602.370    602.370
 40.170    601.000    612.411    -11.411    602.407    606.881    607.938    602.407    602.407
 40.270    635.000    612.163     22.837    602.445    606.955    607.653    602.445    602.445
 40.370    643.000    611.974     31.026    602.484    607.045    607.414    602.484    602.484
 40.470    641.000    611.834     29.166    602.525    607.148    607.211    602.525    602.525
 40.570    632.000    611.736     20.264    602.568    607.264    607.040    602.568    602.568
 40.670    583.400    611.677    -28.277    602.612    607.393    606.896    602.612    602.612
 40.770    610.000    611.655     -1.655    602.657    607.538    606.774    602.657    602.657
 40.870    672.000    611.668     60.332    602.704    607.700    606.672    602.704    602.704
 40.970    635.320    611.716     23.604    602.752    607.881    606.588    602.752    602.752
 41.070    629.309    611.800     17.509    602.802    608.084    606.519    602.802    602.802
 41.170    589.399    611.922    -22.523    602.853    608.313    606.464    602.853    602.853
 41.270    593.000    612.085    -19.085    602.906    608.571    606.422    602.906    602.906
 41.370    567.000    612.295    -45.295    602.960    608.865    606.391    602.960    602.960
 41.470    630.000    612.557     17.443    603.015    609.202    606.371    603.015    603.015
 41.570    600.000    612.882    -12.882    603.072    609.593    606.362    603.072    603.072
 41.670    594.000    613.282    -19.282    603.130    610.051    606.363    603.130    603.130
 41.770    589.000    613.778    -24.778    603.189    610.595    606.374    603.189    603.189
 41.870    565.000    614.399    -49.399    603.250    611.254    606.397    603.250    603.250
 41.970    602.000    615.198    -13.198    603.312    612.081    606.432    603.312    603.312
 42.070    601.000    616.280    -15.280    603.375    613.174    606.483    603.375    603.375
 42.170    665.264    617.850     47.414    603.439    614.735    606.558    603.439    603.439
 42.270    636.000    620.308     15.692    603.505    617.146    606.672    603.505    603.505
 42.370    674.077    624.346     49.731    603.572    621.073    606.851    603.572    603.572
 42.470    591.624    630.982    -39.358    603.640    627.496    607.135    603.640    603.640
 42.570    590.000    641.413    -51.413    603.709    637.568    607.569    603.709    603.709
 42.670    625.000    656.567    -31.567    603.779    652.179    608.189    603.779    603.779
 42.770    677.982    676.366      1.616    603.851    671.257    608.991    603.851    603.851
 42.870    681.000    698.801    -17.801    603.924    692.868    609.899    603.924    603.924
 42.970    712.000    719.036     -7.036    603.998    712.362    610.726    603.998    603.998
 43.070    668.000    729.922    -61.922    604.073    722.862    611.194    604.073    604.073
 43.170    682.430    726.418    -43.988    604.149    719.517    611.111    604.149    604.149
 43.270    706.487    710.427     -3.939    604.226    704.159    610.549    604.226    604.226
 43.370    687.000    688.679     -1.679    604.304    683.259    609.768    604.304    604.304
 43.470    601.000    667.369    -66.369    604.383    662.778    609.007    604.383    604.383
 43.570    613.000    649.906    -36.906    604.464    645.995    608.397    604.464    604.464
 43.670    608.000    637.275    -29.275    604.545    633.860    607.976    604.545    604.545
 43.770    603.599    628.985    -25.386    604.627    625.898    607.725    604.627    604.627
 43.870    632.415    623.917      8.499    604.711    621.034    607.601    604.711    604.711
 43.970    639.000    620.929     18.071    604.795    618.170    607.560    604.795    604.795
 44.070    664.000    619.158     44.842    604.880    616.474    607.568    604.880    604.880
 44.170    583.000    618.062    -35.062    604.966    615.426    607.605    604.966    604.966
 44.270    600.000    617.342    -17.342    605.054    614.739    607.660    605.054    605.054
 44.370    589.239    616.848    -27.609    605.142    614.267    607.725    605.142    605.142
 44.470    643.000    616.503     26.497    605.231    613.937    607.799    605.231    605.231
 44.570    603.800    616.267    -12.467    605.321    613.709    607.880    605.321    605.321
 44.670    637.000    616.116     20.884    605.411    613.561    607.967    605.411    605.411
 44.770    650.000    616.031     33.969    605.503    613.476    608.059    605.503    605.503
 44.870    624.376    616.002      8.373    605.595    613.442    608.156    605.595    605.595
 44.970    570.159    616.021    -45.862    605.689    613.452    608.258    605.689    605.689
 45.070    651.465    616.080     35.386    605.783    613.499    608.364    605.783    605.783
 45.170    610.000    616.174     -6.174    605.878    613.577    608.475    605.878    605.878
 45.270    630.000    616.301     13.699    605.973    613.685    608.590    605.973    605.973
 45.370    645.000    616.457     28.543    606.070    613.818    608.710    606.070    606.070
 45.470    644.000    616.642     27.358    606.167    613.975    608.834    606.167    606.167
 45.570    637.238    616.852     20.385    606.265    614.156    608.962    606.265    606.265
 45.670    575.000    617.090    -42.090    606.364    614.358    609.096    606.364    606.364
 45.770    653.000    617.353     35.647    606.463    614.582    609.234    606.463    606.463
 45.870    632.000    617.642     14.358    606.563    614.828    609.377    606.563    606.563
 45.970    598.000    617.960    -19.960    606.664    615.097    609.526    606.664    606.664
 46.070    637.000    618.306     18.694    606.766    615.390    609.681    606.766    606.766
 46.170    598.000    618.683    -20.683    606.868    615.708    609.843    606.868    606.868
 46.270    636.435    619.094     17.341    606.971    616.053    610.011    606.971    606.971
 46.370    619.000    619.542     -0.542    607.074    616.429    610.187    607.074    607.074
 46.470    659.000    620.032     38.968    607.178    616.838    610.372    607.178    607.178
 46.570    653.000    620.568     32.432    607.283    617.285    610.565    607.283    607.283
 46.670    661.000    621.158     39.842    607.388    617.775    610.769    607.388    607.388
 46.770    617.000    621.811     -4.811    607.494    618.318    610.986    607.494    607.494
 46.870    578.153    622.538    -44.385    607.600    618.921    611.215    607.600    607.600
 46.970    649.902    623.357     26.545    607.707    619.601    611.461    607.707    607.707
 47.070    604.000    624.294    -20.294    607.814    620.379    611.727    607.814    607.814
 47.170    639.000    625.394     13.606    607.922    621.295    612.019    607.922    607.922
 47.270    576.950    626.743    -49.793    608.031    622.424    612.347    608.031    608.031
 47.370    649.293    628.496     20.797    608.140    623.902    612.730    608.140    608.140
 47.470    624.000    630.931     -6.931    608.249    625.974    613.201    608.249    608.249
 47.570    637.899    634.488      3.412    608.359    629.027    613.813    608.359    608.359
 47.670    676.000    639.772     36.228    608.469    633.594    614.637    608.469    608.469
 47.770    692.870    647.461     45.409    608.580    640.275    615.752    608.580    608.580
 47.870    619.000    658.078    -39.078    608.691    649.526    617.221    608.691    608.691
 47.970    702.000    671.632     30.368    608.802    661.357    619.048    608.802    608.802
 48.070    721.000    687.201     33.799    608.914    674.948    621.129    608.914    608.914
 48.170    675.000    702.504    -27.504    609.027    688.282    623.202    609.027    609.027
 48.270    699.981    713.882    -13.901    609.139    698.121    624.849    609.139    609.139
 48.370    644.000    717.647    -73.647    609.252    701.200    625.647    609.252    609.252
 48.470    694.327    712.807    -18.480    609.366    696.638    625.488    609.366    609.366
 48.570    692.000    702.089    -10.089    609.480    686.836    624.694    609.480    609.480
 48.670    640.000    689.595    -49.595    609.594    675.410    623.749    609.594    609.594
 48.770    670.000    678.435     -8.435    609.708    665.098    623.024    609.708    609.708
 48.870    656.000    670.223    -14.223    609.823    657.311    622.720    609.823    609.823
 48.970    657.000    665.440     -8.440    609.937    652.456    622.911    609.937    609.937
 49.070    616.000    663.882    -47.882    610.053    650.328    623.599    610.053    610.053
 49.170    659.000    665.075     -6.075    610.168    650.474    624.762    610.168    610.168
 49.270    674.000    668.607      5.393    610.283    652.480    626.405    610.283    610.283
 49.370    666.000    674.389     -8.389    610.399    656.174    628.610    610.399    610.399
 49.470    700.000    682.967     17.033    610.515    661.850    631.627    610.515    610.515
 49.570    680.000    696.148    -16.148    610.632    670.679    636.093    610.632    610.632
 49.670    733.000    718.310     14.690    610.748    685.578    643.467    610.748    610.748
 49.770    722.000    758.557    -36.557    610.864    712.663    656.736    610.864    610.864
 49.870    814.000    833.161    -19.161    610.981    762.966    681.136    610.981    610.981
 49.970    921.747    967.274    -45.527    611.098    853.149    725.150    611.098    611.098
 50.070   1231.626   1190.080     41.546    611.215   1002.883    798.297    611.215    611.215
 50.170   1484.402   1523.713    -39.310    611.332   1227.071    907.810    611.332    611.332
 50.270   1877.000   1964.925    -87.925    611.449   1523.546   1052.626    611.449    611.449
 50.370   2438.377   2466.736    -28.358    611.567   1860.772   1217.322    611.567    611.567
 50.470   2874.000   2930.477    -56.477    611.684   2172.499   1369.502    611.684    611.684
 50.570   3240.000   3223.074     16.926    611.801   2369.363   1465.461    611.801    611.801
 50.670   3202.515   3237.451    -34.937    611.919   2379.454   1470.001    611.919    611.919
 50.770   2998.000   2968.168     29.832    612.036   2199.133   1381.262    612.036    612.036
 50.870   2502.000   2516.485    -14.485    612.154   1896.480   1232.394    612.154    612.154
 50.970   1966.000   2017.109    -51.109    612.271   1562.093   1067.513    612.271    612.271
 51.070   1510.000   1573.410    -63.410    612.389   1265.541    920.443    612.389    612.389
 51.170   1247.625   1237.051     10.575    612.506   1041.628    808.065    612.506    612.506
 51.270   1047.000   1014.397     32.603    612.624    894.630    732.484    612.624    612.624
 51.370    923.000    884.190     38.810    612.741    810.083    686.913    612.741    612.741
 51.470    766.193    816.038    -49.846    612.859    767.120    661.825    612.859    612.859
 51.570    786.000    782.647      3.353    612.976    746.636    649.027    612.976    612.976
 51.670    807.000    764.740     42.260    613.093    734.756    643.113    613.093    613.093
 51.770    772.000    751.769     20.231    613.211    723.832    641.178    613.211    613.211
 51.870    706.008    740.300    -34.293    613.328    711.775    641.877    613.328    613.328
 51.970    791.000    730.549     60.451    613.445    699.484    644.525    613.445    613.445
 52.070    686.281    723.271    -36.991    613.562    688.364    648.477    613.562    613.562
 52.170    720.000    718.433      1.567    613.678    679.335    652.776    613.678    613.678
 52.270    742.000    715.024     26.976    613.795    672.749    656.065    613.795    613.795
 52.370    741.000    711.515     29.485    613.911    668.533    656.887    613.911    613.911
 52.470    692.444    706.905    -14.461    614.028    666.389    654.538    614.028    614.028
 52.570    719.000    701.487     17.513    614.144    665.978    649.648    614.144    614.144
 52.670    644.095    696.415    -52.321    614.259    667.074    643.599    614.259    614.259
 52.770    688.000    692.955     -4.955    614.375    669.673    637.657    614.375    614.375
 52.870    719.000    692.250     26.750    614.490    674.111    632.631    614.490    614.490
 52.970    677.000    695.494    -18.494    614.606    681.232    628.870    614.606    614.606
 53.070    701.997    704.268     -2.270    614.721    692.609    626.381    614.721    614.721
 53.170    693.000    720.923    -27.923    614.835    710.768    624.991    614.835    614.835
 53.270    743.000    748.776     -5.776    614.950    739.234    624.492    614.950    614.950
 53.370    745.000    791.813    -46.813    615.064    782.164    624.713    615.064    615.064
 53.470    827.410    853.638    -26.229    615.178    843.350    625.466    615.178    615.178
 53.570    943.000    936.174      6.826    615.291    924.601    626.866    615.291    615.291
 53.670   1041.000   1037.004      3.996    615.405   1023.646    628.768    615.405    615.405
 53.770   1154.000   1147.340      6.660    615.517   1131.945    630.925    615.517    615.517
 53.870   1275.000   1250.184     24.816    615.630   1232.872    632.964    615.630    615.630
 53.970   1273.440   1321.248    -47.808    615.742   1302.655    634.370    615.742    615.742
 54.070   1326.000   1337.697    -11.697    615.854   1318.934    634.663    615.854    615.854
 54.170   1238.000   1293.318    -55.318    615.966   1275.626    633.709    615.966    615.966
 54.270   1227.000   1203.987     23.013    616.077   1188.278    631.836    616.077    616.077
 54.370   1060.000   1095.335    -35.335    616.188   1081.991    629.576    616.188    616.188
 54.470    933.000    988.776    -55.776    616.298    977.736    627.374    616.298    616.298
 54.570    867.000    897.073    -30.073    616.408    888.014    625.495    616.408    616.408
 54.670    849.000    825.481     23.519    616.517    817.972    624.046    616.517    616.517
 54.770    740.000    773.967    -33.967    616.626    767.580    623.028    616.626    616.626
 54.870    738.844    739.430     -0.586    616.735    733.802    622.374    616.735    616.735
 54.970    763.049    717.623     45.426    616.843    712.479    621.995    616.843    616.843
 55.070    699.000    704.525     -5.525    616.951    699.673    621.808    616.951    616.951
 55.170    682.009    697.019    -15.011    617.058    692.335    621.747    617.058    617.058
 55.270    646.000    693.019    -47.019    617.165    688.418    621.769    617.165    617.165
 55.370    690.000    691.283     -1.283    617.271    686.708    621.850    617.271    617.271
 55.470    683.000    691.149     -8.149    617.377    686.555    621.975    617.377    617.377
 55.570    687.000    692.310     -5.310    617.482    687.656    622.139    617.482    617.482
 55.670    681.000    694.667    -13.667    617.586    689.915    622.342    617.586    617.586
 55.770    683.000    698.262    -15.262    617.691    693.369    622.587    617.691    617.691
 55.870    704.000    703.277      0.723    617.794    698.192    622.882    617.794    617.794
 55.970    740.000    710.104     29.896    617.897    704.764    623.240    617.897    617.897
 56.070    689.000    719.523    -30.523    617.999    713.835    623.690    617.999    617.999
 56.170    735.418    733.040      2.378    618.101    726.858    624.285    618.101    618.101
 56.270    781.236    753.428     27.808    618.203    746.510    625.122    618.203    618.203
 56.370    836.748    785.449     51.299    618.303    777.384    626.368    618.303    618.303
 56.470    793.000    836.540    -43.540    618.403    826.658    628.281    618.403    618.403
 56.570    900.981    916.995    -16.014    618.503    904.266    631.222    618.503    618.503
 56.670   1014.000   1038.985    -24.985    618.601   1021.955    635.616    618.601    618.601
 56.770   1204.000   1213.833     -9.833    618.699   1190.655    641.857    618.699    618.699
 56.870   1390.395   1447.512    -57.118    618.797   1416.131    650.155    618.797    618.797
 56.970   1776.877   1735.143     41.733    618.894   1693.677    660.342    618.894    618.894
 57.070   2144.905   2055.716     89.189    618.990   2003.020    671.685    618.990    618.990
 57.170   2380.686   2368.182     12.504    619.085   2304.546    682.755    619.085    619.085
 57.270   2697.000   2612.065     84.935    619.180   2539.887    691.446    619.180    619.180
 57.370   2795.000   2722.348     72.652    619.274   2646.283    695.494    619.274    619.274
 57.470   2712.000   2663.910     48.090    619.367   2589.821    693.676    619.367    619.367
 57.570   2429.000   2457.042    -28.042    619.459   2390.058    686.702    619.459    619.459
 57.670   2173.731   2161.486     12.245    619.551   2104.639    676.661    619.551    619.551
 57.770   1821.246   1841.083    -19.837    619.642   1795.178    665.788    619.642    619.642
 57.870   1577.922   1543.235     34.687    619.733   1507.415    655.753    619.733    619.733
 57.970   1257.171   1295.038    -37.867    619.822   1267.476    647.540    619.822    619.822
 58.070   1066.000   1106.234    -40.234    619.911   1084.697    641.561    619.911    619.911
 58.170    990.000    974.328     15.672    619.999    956.533    637.871    619.999    619.999
 58.270    908.000    890.325     17.675    620.086    874.063    636.396    620.086    620.086
 58.370    864.000    843.808     20.192    620.173    826.871    637.137    620.173    620.173
 58.470    870.000    826.294     43.706    620.258    806.287    640.276    620.258    620.258
 58.570    781.368    832.497    -51.129    620.343    806.687    646.149    620.343    620.343
 58.670    842.780    859.880    -17.100    620.427    825.227    655.064    620.427    620.427
 58.770    859.000    907.169    -48.169    620.510    860.627    667.025    620.510    620.510
 58.870    920.605    972.526    -51.921    620.592    911.640    681.443    620.592    620.592
 58.970   1042.000   1051.903     -9.903    620.674    975.607    696.929    620.674    620.674
 59.070   1158.306   1138.042     20.263    620.754   1047.460    711.298    620.754    620.754
 59.170   1178.936   1221.020    -42.085    620.834   1119.845    721.980    620.834    620.834
 59.270   1255.000   1291.117    -36.117    620.912   1185.006    727.010    620.912    620.912
 59.370   1293.213   1341.856    -48.643    620.990   1236.887    725.964    620.990    620.990
 59.470   1379.000   1369.720      9.280    621.067   1270.993    719.818    621.067    621.067
 59.570   1438.441   1372.595     65.846    621.143   1283.724    710.053    621.143    621.143
 59.670   1341.000   1351.746    -10.746    621.218   1274.854    698.158    621.218    621.218
 59.770   1288.063   1315.230    -27.167    621.293   1250.947    685.619    621.293    621.293
 59.870   1245.101   1276.519    -31.417    621.366   1224.120    673.790    621.366    621.366
 59.970   1215.676   1249.047    -33.370    621.438   1206.898    663.583    621.438    621.438
 60.070   1257.000   1242.091     14.909    621.510   1208.215    655.341    621.510    621.510
 60.170   1237.366   1260.163    -22.797    621.580   1232.672    648.983    621.580    621.580
 60.270   1304.000   1304.418     -0.418    621.649   1281.697    644.233    621.649    621.649
 60.370   1413.000   1372.848     40.152    621.718   1353.583    640.799    621.718    621.718
 60.470   1529.000   1457.880     71.120    621.785   1441.021    638.420    621.785    621.785
 60.570   1559.986   1543.998     15.987    621.852   1528.730    636.869    621.852    621.852
 60.670   1668.000   1608.472     59.528    621.917   1594.174    635.957    621.917    621.917
 60.770   1604.000   1627.465    -23.465    621.982   1613.665    635.543    621.982    621.982
 60.870   1556.000   1587.631    -31.631    622.045   1573.949    635.529    622.045    622.045
 60.970   1422.402   1494.415    -72.012    622.108   1480.519    635.855    622.108    622.108
 61.070   1414.607   1367.692     46.916    622.169   1353.262    636.496    622.169    622.169
 61.170   1268.603   1230.632     37.971    622.229   1215.328    637.469    622.229    622.229
 61.270   1119.000   1102.148     16.852    622.289   1085.551    638.846    622.289    622.289
 61.370   1002.000    994.557      7.443    622.347    976.079    640.800    622.347    622.347
 61.470    907.000    913.992     -6.992    622.404    892.715    643.663    622.404    622.404
 61.570    825.904    862.065    -36.161    622.460    836.496    648.010    622.460    622.460
 61.670    879.396    838.129     41.268    622.515    805.858    654.759    622.515    622.515
 61.770    851.000    841.441      9.559    622.569    798.742    665.228    622.569    622.569
 61.870    899.000    872.541     26.459    622.622    814.002    681.102    622.622    622.622
 61.970    904.000    933.394    -29.394    622.673    851.760    704.224    622.673    622.673
 62.070   1027.390   1026.235      1.155    622.724    912.686    736.160    622.724    622.724
 62.170   1124.000   1151.433    -27.433    622.773    996.488    777.571    622.773    622.773
 62.270   1309.000   1304.969      4.031    622.822   1100.105    827.504    622.822    622.822
 62.370   1482.971   1476.187      6.784    622.869   1216.082    882.763    622.869    622.869
 62.470   1631.000   1646.378    -15.378    622.915   1331.540    937.525    622.915    622.915
 62.570   1792.000   1789.158      2.842    622.960   1428.394    983.496    622.960    622.960
 62.670   1881.000   1875.002      5.998    623.004   1486.435   1011.368    623.004    623.004
 62.770   1827.000   1882.073    -55.073    623.046   1490.709   1014.250    623.046    623.046
 62.870   1764.000   1808.138    -44.138    623.088   1439.667    991.447    623.088    623.088
 62.970   1706.000   1672.047     33.953    623.128   1346.176    948.932    623.128    623.128
 63.070   1517.000   1502.925     14.075    623.167   1230.130    895.927    623.167    623.167
 63.170   1308.908   1328.202    -19.294    623.205   1110.273    841.120    623.205    623.205
 63.270   1096.000   1167.869    -71.869    623.242   1000.265    790.846    623.242    623.242
 63.370    965.000   1033.525    -68.525    623.277    908.027    748.779    623.277    623.277
 63.470    895.000    929.397    -34.397    623.311    836.447    716.266    623.311    623.311
 63.570    844.000    854.241    -10.241    623.344    784.671    692.916    623.344    623.344
 63.670    811.000    803.585      7.415    623.376    749.642    677.318    623.376    623.376
 63.770    818.724    771.942     46.782    623.407    727.611    667.733    623.407    623.407
 63.870    796.134    754.241     41.893    623.436    715.114    662.555    623.436    623.436
 63.970    762.000    746.825     15.175    623.464    709.645    660.634    623.464    623.464
 64.070    721.100    747.777    -26.677    623.491    709.857    661.398    623.491    623.491
 64.170    814.197    756.910     57.287    623.517    715.515    664.893    623.517    623.517
 64.270    778.000    775.574      2.426    623.541    727.305    671.786    623.541    623.541
 64.370    800.000    806.329     -6.329    623.564    746.530    683.328    623.564    623.564
 64.470    800.576    852.429    -51.853    623.586    774.707    701.260    623.586    623.586
 64.570    932.000    917.054     14.946    623.607    813.031    727.565    623.607    623.607
 64.670   1036.000   1002.260     33.740    623.626    861.760    764.039    623.626    623.626
 64.770   1147.829   1107.711     40.118    623.644    919.571    811.676    623.644    623.644
 64.870   1227.000   1229.383     -2.383    623.660    982.965    869.949    623.660    623.660
 64.970   1328.000   1358.470    -30.470    623.676   1045.859    936.140    623.676    623.676
 65.070   1506.992   1481.081     25.912    623.690   1099.773   1004.845    623.690    623.690
 65.170   1707.000   1579.761    127.239    623.703   1135.496   1067.822    623.703    623.703
 65.270   1668.000   1637.537     30.463    623.714   1146.429   1114.697    623.714    623.714
 65.370   1750.000   1643.382    106.618    623.724   1131.505   1135.509    623.724    623.724
 65.470   1584.414   1596.670    -12.256    623.733   1095.284   1125.066    623.733    623.733
 65.570   1548.832   1507.899     40.933    623.740   1045.679   1085.944    623.740    623.740
 65.670   1513.000   1394.282    118.718    623.746    991.120   1026.922    623.746    623.746
 65.770   1201.419   1273.246    -71.827    623.751    938.399    958.634    623.751    623.751
 65.870   1169.189   1158.091     11.097    623.754    891.663    890.231    623.754    623.754
 65.970    958.000   1056.724    -98.724    623.756    852.408    828.126    623.756    623.756
 66.070    963.255    972.300     -9.045    623.757    820.180    775.930    623.757    623.757
 66.170    854.000    904.764    -50.764    623.756    793.712    734.857    623.756    623.756
 66.270    754.000    852.439    -98.439    623.754    771.890    704.345    623.754    623.754
 66.370    773.000    813.029    -40.029    623.751    754.042    682.770    623.751    623.751
 66.470    838.664    784.087     54.576    623.746    739.760    668.099    623.746    623.746
 66.570    737.322    763.321    -25.999    623.740    728.710    658.369    623.740    623.740
 66.670    719.000    748.817    -29.817    623.732    720.600    651.962    623.732    623.732
 66.770    735.000    739.139     -4.139    623.723    715.188    647.683    623.723    623.723
 66.870    690.000    733.310    -43.310    623.713    712.299    644.731    623.713    623.713
 66.970    783.440    730.740     52.699    623.701    711.839    642.607    623.701    623.701
 67.070    738.000    731.184      6.816    623.687    713.854    641.022    623.687    623.687
 67.170    703.000    734.784    -31.784    623.673    718.640    639.822    623.673    623.673
 67.270    695.000    742.195    -47.195    623.657    726.918    638.939    623.657    623.657
 67.370    763.000    754.788      8.212    623.639    740.068    638.364    623.639    623.639
 67.470    780.000    774.904      5.096    623.620    760.393    638.136    623.620    623.620
 67.570    814.000    806.093      7.907    623.600    791.354    638.343    623.600    623.600
 67.670    854.000    853.216      0.784    623.578    837.681    639.116    623.578    623.578
 67.770    948.000    922.255     25.745    623.555    905.189    640.623    623.555    623.555
 67.870   1056.740   1019.665     37.075    623.530   1000.147    643.051    623.530    623.530
 67.970   1185.897   1151.159     34.738    623.504   1128.106    646.563    623.504    623.504
 68.070   1285.000   1319.993    -34.993    623.476   1292.234    651.253    623.476    623.476
 68.170   1557.000   1524.982     32.018    623.447   1491.388    657.077    623.447    623.447
 68.270   1810.000   1758.596     51.404    623.417   1718.275    663.802    623.417    623.417
 68.370   2095.249   2005.449     89.800    623.385   1957.980    670.959    623.385    623.385
 68.470   2176.000   2241.526    -65.526    623.351   2187.221    677.817    623.351    623.351
 68.570   2407.000   2435.227    -28.227    623.316   2375.354    683.414    623.316    623.316
 68.670   2517.000   2552.705    -35.705    623.280   2489.553    686.724    623.280    623.280
 68.770   2623.000   2569.092     53.908    623.242   2505.694    686.989    623.242    623.242
 68.870   2460.000   2480.481    -20.481    623.203   2419.975    684.089    623.203    623.203
 68.970   2323.593   2306.201     17.392    623.162   2251.139    678.608    623.162    623.162
 69.070   2092.426   2078.896     13.530    623.119   2030.844    671.533    623.119    623.119
 69.170   1849.614   1831.848     17.767    623.076   1791.371    663.871    623.076    623.076
 69.270   1547.361   1591.680    -44.319    623.030   1558.551    656.429    623.030    623.030
 69.370   1336.000   1376.372    -40.372    622.983   1349.823    649.749    622.983    622.983
 69.470   1230.478   1195.696     34.783    622.935   1174.671    644.127    622.935    622.935
 69.570   1005.830   1052.562    -46.732    622.885   1035.921    639.651    622.885    622.885
 69.670    994.000    944.828     49.172    622.834    931.497    636.255    622.834    622.834
 69.770    972.000    867.293    104.707    622.781    856.357    633.782    622.781    622.781
 69.870    823.000    813.526      9.474    622.727    804.264    632.034    622.727    622.727
 69.970    825.000    777.243     47.757    622.671    769.129    630.818    622.671    622.671
 70.070    818.000    753.134     64.866    622.613    745.791    629.980    622.613    622.613
 70.170    778.232    737.141     41.091    622.554    730.317    629.396    622.554    622.554
 70.270    691.151    726.425    -35.274    622.494    719.954    628.978    622.494    622.494
 70.370    742.040    719.137     22.904    622.432    712.909    628.670    622.432    622.432
 70.470    746.000    714.147     31.853    622.369    708.086    628.437    622.369    622.369
 70.570    708.561    710.805     -2.243    622.304    704.854    628.260    622.304    622.304
 70.670    732.000    708.766     23.234    622.237    702.878    628.130    622.237    622.237
 70.770    761.297    707.885     53.412    622.169    702.015    628.041    622.169    622.169
 70.870    782.000    708.165     73.835    622.099    702.267    627.997    622.099    622.099
 70.970    722.000    709.755     12.245    622.028    703.778    628.004    622.028    622.028
 71.070    682.000    712.998    -30.998    621.955    706.875    628.075    621.955    621.955
 71.170    752.000    718.510     33.490    621.881    712.149    628.237    621.881    621.881
 71.270    731.074    727.299      3.775    621.805    720.566    628.529    621.805    621.805
 71.370    699.000    740.902    -41.902    621.728    733.603    629.013    621.728    621.728
 71.470    817.054    761.514     55.540    621.649    753.366    629.776    621.649    621.649
 71.570    774.257    792.044    -17.786    621.569    782.647    630.935    621.569    621.569
 71.670    846.081    836.027     10.054    621.487    824.841    632.630    621.487    621.487
 71.770    896.478    897.318     -0.840    621.403    883.647    635.015    621.403    621.403
 71.870   1012.283    979.509     32.774    621.318    962.513    638.233    621.318    621.318
 71.970   1072.872   1085.088    -12.216    621.231   1063.830    642.384    621.231    621.231
 72.070   1212.000   1214.438     -2.438    621.143   1187.964    647.485    621.143    621.143
 72.170   1328.000   1364.810    -36.810    621.053   1332.275    653.429    621.053    621.053
 72.270   1598.140   1529.439     68.701    620.962   1490.268    659.950    620.962    620.962
 72.370   1710.000   1696.918     13.082    620.869   1650.988    666.598    620.869    620.869
 72.470   1838.000   1851.050    -13.050    620.775   1798.883    672.733    620.775    620.775
 72.570   1946.000   1971.987    -25.987    620.679   1914.891    677.574    620.679    620.679
 72.670   1982.617   2039.994    -57.378    620.581   1980.056    680.340    620.581    620.581
 72.770   2046.000   2042.017      3.983    620.482   1981.836    680.517    620.482    620.482
 72.870   2026.866   1977.574     49.292    620.381   1919.759    678.088    620.381    620.381
 72.970   1826.000   1859.011    -33.011    620.279   1805.674    673.543    620.279    620.279
 73.070   1744.000   1705.854     38.146    620.175   1658.332    667.653    620.175    620.175
 73.170   1590.000   1538.097     51.903    620.070   1496.942    661.203    620.070    620.070
 73.270   1335.000   1372.212    -37.212    619.963   1337.339    654.829    619.963    619.963
 73.370   1242.068   1219.888     22.179    619.854   1190.769    648.974    619.854    619.854
 73.470   1072.244   1088.128    -15.884    619.744   1063.986    643.892    619.744    619.744
 73.570    934.664    979.877    -45.214    619.632    959.839    639.677    619.632    619.632
 73.670    892.260    894.914     -2.654    619.519    878.123    636.315    619.519    619.519
 73.770    831.000    830.878      0.122    619.404    816.559    633.727    619.404    619.404
 73.870    786.000    784.282      1.718    619.288    771.766    631.806    619.288    619.288
 73.970    801.000    751.346     49.654    619.170    740.073    630.444    619.170    619.170
 74.070    722.000    728.590     -6.590    619.050    718.095    629.546    619.050    619.050
 74.170    720.000    713.150      6.850    618.929    703.041    629.040    618.929    618.929
 74.270    704.428    702.877      1.551    618.807    692.804    628.883    618.807    618.807
 74.370    695.000    696.281     -1.281    618.682    685.915    629.053    618.682    618.682
 74.470    653.000    692.390    -39.390    618.557    681.408    629.546    618.557    618.557
 74.570    640.929    690.590    -49.661    618.429    678.669    630.360    618.429    618.429
 74.670    638.938    690.479    -51.541    618.300    677.307    631.487    618.300    618.300
 74.770    698.000    691.746      6.254    618.170    677.036    632.900    618.170    618.170
 74.870    733.000    694.081     38.919    618.038    677.599    634.545    618.038    618.038
 74.970    703.000    697.116      5.884    617.904    678.719    636.333    617.904    617.904
 75.070    688.000    700.393    -12.393    617.769    680.061    638.138    617.769    617.769
 75.170    740.000    703.353     36.647    617.632    681.230    639.798    617.632    617.632
 75.270    687.287    705.396    -18.110    617.494    681.800    641.136    617.494    617.494
 75.370    659.850    706.029    -46.180    617.354    681.419    642.013    617.354    617.354
 75.470    740.000    705.072     34.928    617.213    679.938    642.395    617.213    617.213
 75.570    680.143    702.783    -22.640    617.070    677.498    642.400    617.070    617.070
 75.670    667.673    699.802    -32.129    616.925    674.482    642.285    616.925    616.925
 75.770    780.000    696.979     83.021    616.779    671.396    642.395    616.779    616.779
 75.870    694.000    695.246     -1.246    616.631    668.771    643.132    616.631    616.631
 75.970    658.919    695.570    -36.651    616.482    667.125    644.946    616.482    616.482
 76.070    731.000    698.950     32.050    616.331    666.958    648.333    616.331    616.331
 76.170    754.949    706.408     48.541    616.179    668.754    653.835    616.179    616.179
 76.270    750.000    718.953     31.047    616.025    672.962    662.009    616.025    616.025
 76.370    706.000    737.487    -31.487    615.870    679.970    673.370    615.870    615.870
 76.470    758.000    762.666     -4.666    615.713    690.042    688.310    615.713    615.713
 76.570    761.000    794.727    -33.727    615.554    703.256    706.988    615.554    615.554
 76.670    833.000    833.281     -0.281    615.394    719.414    729.214    615.394    615.394
 76.770    881.000    877.133      3.867    615.233    737.969    754.340    615.233    615.233
 76.870    900.000    924.123    -24.123    615.070    757.958    781.168    615.070    615.070
 76.970    995.993    971.026     24.967    614.905    777.960    807.898    614.905    614.905
 77.070   1066.000   1013.569     52.431    614.739    796.100    832.130    614.739    614.739
 77.170   1055.000   1046.750      8.250    614.571    810.192    851.053    614.571    614.571
 77.270   1108.351   1065.717     42.635    614.402    818.112    861.934    614.402    614.402
 77.370   1097.399   1067.217     30.182    614.231    818.444    862.941    614.231    614.231
 77.470   1079.000   1050.885     28.115    614.059    811.023    853.869    614.059    614.059
 77.570   1058.000   1019.411     38.589    613.885    797.017    836.238    613.885    613.885
 77.670   1018.000    977.419     40.581    613.710    778.438    812.659    613.710    613.710
 77.770    946.356    929.954     16.402    613.533    757.483    785.981    613.533    613.533
 77.870    867.000    881.446    -14.446    613.355    736.079    758.706    613.355    613.355
 77.970    854.000    835.289     18.711    613.175    715.705    732.749    613.175    613.175
 78.070    743.000    793.780    -50.780    612.994    697.359    709.408    612.994    612.994
 78.170    731.994    758.210    -26.216    612.811    681.604    689.413    612.811    612.811
 78.270    731.721    729.013      2.708    612.626    668.627    673.010    612.626    612.626
 78.370    739.000    705.963     33.037    612.441    658.329    660.073    612.441    612.441
 78.470    647.000    688.395    -41.395    612.253    650.420    650.227    612.253    612.253
 78.570    671.000    675.410     -4.410    612.064    644.507    642.966    612.064    612.064
 78.670    639.603    666.058    -26.455    611.874    640.176    637.755    611.874    611.874
 78.770    658.000    659.455     -1.455    611.682    637.040    634.095    611.682    611.682
 78.870    688.000    654.856     33.144    611.489    634.775    631.569    611.489    611.489
 78.970    651.000    651.682     -0.682    611.294    633.126    629.849    611.294    611.294
 79.070    667.951    649.510     18.441    611.098    631.909    628.698    611.098    611.098
 79.170    603.069    648.052    -44.982    610.900    630.996    627.954    610.900    610.900
 79.270    694.274    647.122     47.152    610.701    630.307    627.515    610.701    610.701
 79.370    674.000    646.617     27.383    610.501    629.793    627.323    610.501    610.501
 79.470    642.000    646.492     -4.492    610.299    629.434    627.355    610.299    610.299
 79.570    650.058    646.745      3.313    610.095    629.223    627.616    610.095    610.095
 79.670    663.785    647.421     16.365    609.890    629.170    628.139    609.890    609.890
 79.770    595.000    648.607    -53.607    609.684    629.298    628.991    609.684    609.684
 79.870    613.000    650.451    -37.451    609.476    629.639    630.285    609.476    609.476
 79.970    641.000    653.174    -12.174    609.267    630.237    632.201    609.267    609.267
 80.070    675.002    657.110     17.892    609.056    631.152    635.010    609.056    609.056
 80.170    617.000    662.733    -45.733    608.844    632.460    639.112    608.844    608.844
 80.270    642.000    670.702    -28.702    608.631    634.257    645.068    608.631    608.631
 80.370    655.000    681.894    -26.894    608.416    636.670    653.629    608.416    608.416
 80.470    716.761    697.414     19.348    608.199    639.852    665.747    608.199    608.199
 80.570    682.690    718.573    -35.883    607.982    643.989    682.547    607.982    607.982
 80.670    769.000    746.804     22.196    607.763    649.290    705.253    607.763    607.763
 80.770    806.000    783.514     22.486    607.542    655.977    735.049    607.542    607.542
 80.870    839.000    829.878      9.122    607.320    664.274    772.889    607.320    607.320
 80.970    936.000    886.595     49.405    607.097    674.386    819.265    607.097    607.097
 81.070    965.000    953.619     11.381    606.872    686.486    873.960    606.872    606.872
 81.170   1093.000   1029.883     63.117    606.646    700.666    935.818    606.646    606.646
 81.270   1144.000   1113.047     30.953    606.419    716.866   1002.556    606.419    606.419
 81.370   1279.000   1199.349     79.651    606.190    734.811   1070.691    606.190    606.190
 81.470   1211.240   1283.648    -72.408    605.960    753.958   1135.624    605.960    605.960
 81.570   1357.563   1359.801     -2.238    605.729    773.512   1192.008    605.729    605.729
 81.670   1465.088   1421.486     43.601    605.496    792.497   1234.496    605.496    605.496
 81.770   1562.000   1463.375     98.625    605.262    809.892   1258.778    605.262    605.262
 81.870   1665.000   1482.156    182.844    605.026    824.755   1262.485    605.026    605.026
 81.970   1584.000   1477.061    106.939    604.789    836.368   1245.562    604.789    604.789
 82.070   1566.000   1449.647    116.353    604.551    844.268   1210.028    604.551    604.551
 82.170   1517.000   1403.301    113.699    604.312    848.218   1159.507    604.312    604.312
 82.270   1310.696   1342.783    -32.087    604.071    848.251   1098.724    604.071    604.071
 82.370   1317.828   1273.381     44.446    603.829    844.538   1032.797    603.829    603.829
 82.470   1234.000   1200.055     33.945    603.586    837.281    966.484    603.586    603.586
 82.570   1135.000   1126.916      8.084    603.341    826.755    903.622    603.341    603.341
 82.670   1104.000   1057.106     46.894    603.095    813.427    846.888    603.095    603.095
 82.770    973.000    992.848    -19.848    602.848    798.000    797.802    602.848    602.848
 82.870    996.953    935.468     61.484    602.600    781.291    756.873    602.600    602.600
 82.970    856.000    885.446    -29.446    602.350    764.048    723.834    602.350    602.350
 83.070    818.000    842.574    -24.574    602.099    746.860    697.890    602.099    602.099
 83.170    851.000    806.251     44.749    601.847    730.182    677.983    601.847    601.847
 83.270    745.000    775.761    -30.761    601.594    714.415    662.996    601.594    601.594
 83.370    727.000    750.462    -23.462    601.339    699.943    651.904    601.339    601.339
 83.470    705.000    729.840    -24.840    601.083    687.115    643.846    601.083    601.083
 83.570    689.132    713.498    -24.365    600.826    676.208    638.144    600.826    600.826
 83.670    696.000    701.118     -5.118    600.568    667.405    634.300    600.568    600.568
 83.770    683.000    692.428     -9.428    600.308    660.789    631.957    600.308    600.308
 83.870    659.105    687.163    -28.058    600.048    656.347    630.865    600.048    600.048
 83.970    713.077    685.028     28.048    599.786    653.971    630.835    599.786    599.786
 84.070    648.000    685.661    -37.661    599.523    653.464    631.703    599.523    599.523
 84.170    666.000    688.603    -22.603    599.259    654.541    633.296    599.259    599.259
 84.270    658.000    693.287    -35.287    598.993    656.835    635.413    598.993    598.993
 84.370    692.000    699.028     -7.028    598.727    659.902    637.813    598.727    598.727
 84.470    688.000    705.038    -17.038    598.459    663.239    640.212    598.459    598.459
 84.570    713.642    710.452      3.190    598.191    666.299    642.293    598.191    598.191
 84.670    739.340    714.402     24.937    597.921    668.540    643.731    597.921    597.921
 84.770    673.000    716.136    -43.136    597.650    669.492    644.241    597.650    597.650
 84.870    687.011    715.174    -28.163    597.378    668.854    643.647    597.378    597.378
 84.970    649.000    711.428    -62.428    597.104    666.561    641.924    597.104    597.104
 85.070    652.000    705.214    -53.214    596.830    662.790    639.210    596.830    596.830
 85.170    688.000    697.130     -9.130    596.555    657.890    635.757    596.555    596.555
 85.270    659.000    687.898    -28.898    596.278    652.279    631.865    596.278    596.278
 85.370    715.541    678.231     37.310    596.001    646.369    627.836    596.001    596.001
 85.470    674.136    668.760      5.375    595.722    640.519    623.940    595.722    595.722
 85.570    672.183    659.992     12.191    595.443    635.010    620.405    595.443    595.443
 85.670    619.935    652.308    -32.373    595.162    630.041    617.413    595.162    595.162
 85.770    674.964    645.968     28.995    594.880    625.732    615.103    594.880    594.880
 85.870    624.000    641.122    -17.122    594.597    622.134    613.572    594.597    594.597
 85.970    591.281    637.828    -46.546    594.314    619.242    612.887    594.314    594.314
 86.070    647.000    636.076     10.924    594.029    617.012    613.080    594.029    594.029
 86.170    607.912    635.805    -27.893    593.743    615.377    614.157    593.743    593.743
 86.270    624.000    636.921    -12.921    593.457    614.268    616.094    593.457    593.457
 86.370    600.253    639.304    -39.051    593.169    613.622    618.833    593.169    593.169
 86.470    672.000    642.813     29.187    592.880    613.397    622.276    592.880    592.880
 86.570    642.000    647.287     -5.287    592.591    613.576    626.278    592.591    592.591
 86.670    645.000    652.544     -7.544    592.300    614.175    630.642    592.300    592.300
 86.770    690.000    658.378     31.622    592.009    615.242    635.114    592.009    592.009
 86.870    695.346    664.560     30.786    591.717    616.854    639.388    591.717    591.717
 86.970    621.514    670.849    -49.335    591.423    619.119    643.114    591.423    591.423
 87.070    615.000    677.008    -62.008    591.129    622.162    645.931    591.129    591.129
 87.170    694.000    682.854     11.146    590.834    626.120    647.518    590.834    590.834
 87.270    681.000    688.307     -7.307    590.538    631.122    647.669    590.538    590.538
 87.370    715.000    693.432     21.568    590.242    637.270    646.343    590.242    590.242
 87.470    673.000    698.417    -25.417    589.944    644.618    643.674    589.944    589.944
 87.570    689.729    703.500    -13.771    589.645    653.146    639.923    589.645    589.645
 87.670    738.000    708.878     29.122    589.346    662.735    635.404    589.346    589.346
 87.770    671.000    714.626    -43.626    589.046    673.145    630.431    589.046    589.046
 87.870    723.000    720.650      2.350    588.745    684.005    625.284    588.745    588.745
 87.970    731.000    726.672      4.328    588.443    694.805    620.196    588.443    588.443
 88.070    742.000    732.232      9.768    588.141    704.897    615.353    588.141    588.141
 88.170    779.176    736.723     42.453    587.838    713.537    610.895    587.838    587.838
 88.270    736.232    739.478     -3.246    587.534    719.974    606.907    587.534    587.534
 88.370    738.000    739.925     -1.925    587.229    723.596    603.429    587.229    587.229
 88.470    744.562    737.760      6.803    586.923    724.099    600.460    586.923    586.923
 88.570    719.000    733.050    -14.050    586.617    721.582    597.970    586.617    586.617
 88.670    739.100    726.216     12.884    586.310    716.512    595.913    586.310    586.310
 88.770    703.372    717.905    -14.533    586.002    709.589    594.230    586.002    586.002
 88.870    763.824    708.850     54.975    585.694    701.604    592.866    585.694    585.694
 88.970    728.000    699.773     28.227    585.385    693.333    591.767    585.385    585.385
 89.070    684.000    691.332     -7.332    585.075    685.478    590.884    585.075    585.075
 89.170    629.000    684.078    -55.078    584.765    678.632    590.180    584.765    584.765
 89.270    703.000    678.432     24.568    584.454    673.247    589.621    584.454    584.454
 89.370    628.000    674.653    -46.653    584.142    669.609    589.179    584.142    584.142
 89.470    660.000    672.832    -12.832    583.830    667.834    588.832    583.830    583.830
 89.570    653.000    672.890    -19.890    583.517    667.861    588.560    583.517    583.517
 89.670    704.000    674.590     29.410    583.203    669.474    588.343    583.203    583.203
 89.770    708.000    677.554     30.446    582.889    672.315    588.161    582.889    582.889
 89.870    684.000    681.285      2.715    582.575    675.906    587.995    582.575    582.575
 89.970    699.000    685.198     13.802    582.260    679.683    587.823    582.260    582.260
 90.070    725.224    688.653     36.571    581.944    683.028    587.624    581.944    581.944
 90.170    694.067    691.026      3.041    581.628    685.338    587.377    581.628    581.628
 90.270    706.326    691.792     14.535    581.311    686.104    587.063    581.311    581.311
 90.370    628.000    690.623    -62.623    580.994    685.009    586.675    580.994    580.994
 90.470    708.000    687.458     20.542    580.676    681.990    586.210    580.676    580.676
 90.570    701.000    682.485     18.515    580.358    677.229    585.678    580.358    580.358
 90.670    701.000    676.088     24.912    580.039    671.095    585.094    580.039    580.039
 90.770    663.000    668.731     -5.731    579.720    664.033    584.474    579.720    579.720
 90.870    676.115    660.883     15.232    579.401    656.496    583.838    579.401    579.401
 90.970    700.222    652.969     47.253    579.081    648.893    583.201    579.081    579.081
 91.070    634.000    645.340    -11.340    578.760    641.562    582.575    578.760    578.760
 91.170    605.000    638.265    -33.265    578.440    634.764    581.972    578.440    578.440
 91.270    640.000    631.933      8.067    578.118    628.679    581.398    578.118    578.118
 91.370    597.000    626.456    -29.456    577.797    623.416    580.857    577.797    577.797
 91.470    618.000    621.878     -3.878    577.475    619.018    580.351    577.475    577.475
 91.570    608.000    618.191    -10.191    577.153    615.476    579.879    577.153    577.153
 91.670    623.000    615.350      7.650    576.831    612.748    579.441    576.831    576.831
 91.770    620.000    613.290      6.710    576.508    610.771    579.033    576.508    576.508
 91.870    592.000    611.942    -19.942    576.185    609.477    578.653    576.185    576.185
 91.970    590.872    611.245    -20.373    575.862    608.809    578.299    575.862    575.862
 92.070    646.268    611.161     35.107    575.538    608.729    577.969    575.538    575.538
 92.170    610.000    611.678     -1.678    575.214    609.226    577.664    575.214    575.214
 92.270    623.000    612.818     10.182    574.890    610.320    577.385    574.890    574.890
 92.370    566.718    614.639    -47.921    574.566    612.068    577.132    574.566    574.566
 92.470    622.000    617.232      4.768    574.242    614.555    576.911    574.242    574.242
 92.570    670.000    620.715     49.285    573.917    617.897    576.725    573.917    573.917
 92.670    645.000    625.234     19.766    573.592    622.234    576.580    573.592    573.592
 92.770    634.810    630.944      3.866    573.268    627.715    576.480    573.268    573.268
 92.870    641.000    638.002      2.998    572.943    634.493    576.432    572.943    572.943
 92.970    643.000    646.550     -3.550    572.617    642.706    576.438    572.617    572.617
 93.070    667.349    656.705     10.644    572.292    652.466    576.502    572.292    572.292
 93.170    618.504    668.534    -50.030    571.967    663.841    576.624    571.967    571.967
 93.270    695.000    682.050     12.950    571.642    676.845    576.804    571.642    571.642
 93.370    710.934    697.192     13.743    571.316    691.421    577.039    571.316    571.316
 93.470    699.130    713.820    -14.690    570.991    707.432    577.323    570.991    570.991
 93.570    726.733    731.706     -4.972    570.665    724.656    577.653    570.665    570.665
 93.670    752.047    750.530      1.517    570.340    742.779    578.022    570.340    570.340
 93.770    794.000    769.893     24.107    570.015    761.403    578.430    570.015    570.015
 93.870    778.013    789.346    -11.333    569.689    780.077    578.879    569.689    569.689
 93.970    782.000    808.454    -26.454    569.364    798.354    579.381    569.364    569.364
 94.070    805.000    826.896    -21.896    569.039    815.885    579.964    569.039    569.039
 94.170    858.901    844.550     14.351    568.713    832.503    580.673    568.713    568.713
 94.270    820.470    861.525    -41.055    568.388    848.254    581.572    568.388    568.388
 94.370    847.000    878.121    -31.121    568.063    863.359    582.739    568.063    568.063
 94.470    919.476    894.740     24.737    567.739    878.131    584.261    567.739    567.739
 94.570    961.987    911.664     50.323    567.414    892.774    586.218    567.414    567.414
 94.670    927.000    929.029     -2.029    567.090    907.360    588.674    567.090    567.090
 94.770    950.725    946.786      3.939    566.765    921.799    591.669    566.765    566.765
 94.870    931.000    964.744    -33.744    566.441    935.899    595.205    566.441    566.441
 94.970    923.460    982.648    -59.188    566.117    949.444    599.242    566.117    566.117
 95.070   1001.000   1000.223      0.777    565.794    962.248    603.693    565.794    565.794
 95.170   1024.000   1017.157      6.843    565.471    974.136    608.419    565.471    565.471
 95.270   1040.000   1033.011      6.989    565.147    984.862    613.229    565.147    565.147
 95.370   1090.000   1047.128     42.872    564.825    994.002    617.888    564.825    564.825
 95.470   1059.000   1058.594      0.406    564.502   1000.915    622.125    564.502    564.502
 95.570   1061.000   1066.285     -5.285    564.180   1004.767    625.650    564.180    564.180
 95.670   1017.000   1069.016    -52.016    563.859   1004.654    628.181    563.859    563.859
 95.770   1102.000   1065.769     36.231    563.537    999.790    629.486    563.537    563.537
 95.870   1010.506   1055.975    -45.469    563.216    989.748    629.423    563.216    563.216
 95.970   1093.000   1039.703     53.297    562.896    974.615    627.974    562.896    562.896
 96.070    985.000   1017.712    -32.712    562.576    955.042    625.243    562.576    562.576
 96.170    989.000    991.338     -2.338    562.256    932.158    621.441    562.256    562.256
 96.270   1025.460    962.286     63.174    561.937    907.394    616.837    561.937    561.937
 96.370    993.000    932.411     60.589    561.618    882.315    611.725    561.618    561.618
 96.470    911.000    903.568      7.432    561.300    858.492    606.388    561.300    561.300
 96.570    816.088    877.509    -61.421    560.983    837.425    601.077    560.983    560.983
 96.670    875.000    855.838     19.162    560.666    820.508    596.004    560.666    560.666
 96.770    814.329    839.974    -25.645    560.349    808.994    591.332    560.349    560.349
 96.870    842.000    831.134     10.866    560.033    803.989    587.175    560.033    560.033
 96.970    869.000    830.324     38.676    559.718    806.431    583.601    559.718    559.718
 97.070    863.000    838.328     24.672    559.403    817.080    580.634    559.403    559.403
 97.170    834.963    855.697    -20.734    559.089    836.495    578.266    559.089    559.089
 97.270    937.930    882.734     55.196    558.776    865.013    576.463    558.776    558.776
 97.370    930.000    919.471     10.529    558.463    902.715    575.176    558.463    558.463
 97.470    930.000    965.628    -35.628    558.152    949.380    574.347    558.152    558.152
 97.570   1071.000   1020.538     50.462    557.840   1004.403    573.914    557.840    557.840
 97.670   1115.250   1083.288     31.962    557.530   1066.933    573.816    557.530    557.530
 97.770   1209.000   1152.403     56.597    557.220   1135.562    573.986    557.220    557.220
 97.870   1241.000   1225.944     15.056    556.911   1208.419    574.356    556.911    556.911
 97.970   1330.000   1301.502     28.498    556.603   1283.166    574.856    556.603    556.603
 98.070   1371.000   1376.165     -5.165    556.296   1356.966    575.412    556.296    556.296
 98.170   1443.000   1446.562     -3.562    555.990   1426.527    575.946    555.990    555.990
 98.270   1577.000   1508.999     68.001    555.685   1488.237    576.375    555.685    555.685
 98.370   1564.761   1559.715      5.047    555.380   1538.415    576.620    555.380    555.380
 98.470   1641.172   1595.317     45.855    555.076   1573.739    576.610    555.076    555.076
 98.570   1639.868   1613.318     26.549    554.774   1591.772    576.294    554.774    554.774
 98.670   1653.000   1612.629     40.371    554.472   1591.447    575.648    554.472    554.472
 98.770   1572.123   1593.781    -21.658    554.171   1573.282    574.683    554.171    554.171
 98.870   1498.000   1558.780    -60.780    553.872   1539.246    573.436    553.872    553.872
 98.970   1493.000   1510.694    -17.694    553.573   1492.345    571.968    553.573    553.573
 99.070   1419.000   1453.142    -34.142    553.275   1436.127    570.347    553.275    553.275
 99.170   1365.416   1389.878    -24.461    552.979   1374.277    568.644    552.979    552.979
 99.270   1298.514   1324.499    -25.985    552.684   1310.326    566.924    552.684    552.684
 99.370   1243.000   1260.285    -17.285    552.389   1247.492    565.249    552.389    552.389
 99.470   1163.000   1200.105    -37.105    552.096   1188.597    563.668    552.096    552.096
 99.570   1104.000   1146.395    -42.395    551.804   1136.033    562.224    551.804    551.804
 99.670   1125.085   1101.161     23.924    551.513   1091.776    560.949    551.513    551.513
 99.770   1021.260   1066.009    -44.749    551.224   1057.409    559.867    551.224    551.224
 99.870   1077.201   1042.180     35.021    550.936   1034.158    558.992    550.936    550.936
 99.970   1091.731   1030.577     61.154    550.649   1022.920    558.331    550.649    550.649
100.070   1073.486   1031.786     41.700    550.363   1024.284    557.883    550.363    550.363
100.170   1100.676   1046.087     54.589    550.078   1038.537    557.640    550.078    550.078
100.270   1087.000   1073.464     13.536    549.795   1065.675    557.589    549.795    549.795
100.370   1153.000   1113.606     39.394    549.513   1105.410    557.711    549.513    549.513
100.470   1235.609   1165.911     69.699    549.233   1157.162    557.983    549.233    549.233
100.570   1209.000   1229.472    -20.472    548.954   1220.052    558.376    548.954    548.954
100.670   1356.000   1303.058     52.942    548.677   1292.881    558.859    548.677    548.677
100.770   1367.000   1385.091    -18.091    548.401   1374.107    559.397    548.401    548.401
100.870   1432.803   1473.614    -40.811    548.126   1461.811    559.951    548.126    548.126
100.970   1573.000   1566.285      6.715    547.853   1553.694    560.480    547.853    547.853
101.070   1738.387   1660.412     77.975    547.581   1647.102    560.944    547.581    547.581
101.170   1740.585   1753.044    -12.458    547.311   1739.124    561.303    547.311    547.311
101.270   1839.000   1841.237     -2.237    547.043   1826.852    561.523    547.043    547.043
101.370   1940.000   1922.221     17.779    546.776   1907.535    561.580    546.776    546.776
101.470   2005.475   1993.676     11.799    546.511   1978.864    561.468    546.511    546.511
101.570   1964.372   2053.847    -89.475    546.247   2039.072    561.192    546.247    546.247
101.670   2075.035   2101.465    -26.430    545.985   2086.867    560.775    545.985    545.985
101.770   2192.037   2135.550     56.487    545.725   2121.237    560.251    545.725    545.725
101.870   2188.000   2155.224     32.776    545.467   2141.266    559.657    545.467    545.467
101.970   2241.328   2159.669     81.659    545.210   2146.096    559.031    545.210    545.210
102.070   2062.354   2148.296    -85.942    544.955   2135.102    558.408    544.955    544.955
102.170   2158.070   2121.085     36.985    544.702   2108.235    557.821    544.702    544.702
102.270   2086.000   2078.939      7.061    544.450   2066.370    557.292    544.450    544.450
102.370   2116.480   2023.851     92.630    544.201   2011.484    556.840    544.201    544.201
102.470   1889.000   1958.782    -69.782    543.953   1946.526    556.477    543.953    543.953
102.570   1928.000   1887.278     40.722    543.708   1875.041    556.205    543.708    543.708
102.670   1778.703   1812.986    -34.284    543.464   1800.680    556.019    543.464    543.464
102.770   1675.000   1739.230    -64.230    543.222   1726.783    555.904    543.222    543.222
102.870   1588.000   1668.732    -80.732    542.982   1656.092    555.842    542.982    542.982
102.970   1604.498   1603.479      1.020    542.745   1590.619    555.809    542.745    542.745
103.070   1552.473   1544.686      7.787    542.509   1531.607    555.778    542.509    542.509
103.170   1552.575   1492.826     59.750    542.275   1479.552    555.726    542.275    542.275
103.270   1413.000   1447.682    -34.682    542.044   1434.260    555.631    542.044    542.044
103.370   1406.000   1408.429     -2.429    541.814   1394.925    555.473    541.814    541.814
103.470   1403.000   1373.743     29.257    541.587   1360.242    555.235    541.587    541.587
103.570   1349.000   1341.963      7.037    541.362   1328.563    554.903    541.362    541.362
103.670   1256.000   1311.293    -55.293    541.139   1298.105    554.463    541.139    541.139
103.770   1245.000   1280.060    -35.060    540.918   1267.205    553.906    540.918    540.918
103.870   1201.000   1246.952    -45.952    540.700   1234.550    553.232    540.700    540.700
103.970   1167.000   1211.183    -44.183    540.483   1199.347    552.447    540.483    540.483
104.070   1131.330   1172.545    -41.214    540.270   1161.372    551.566    540.270    540.270
104.170   1151.033   1131.328     19.705    540.058   1120.895    550.610    540.058    540.058
104.270   1065.080   1088.175    -23.096    539.849   1078.534    549.604    539.849    539.849
104.370   1034.000   1043.922     -9.922    539.642   1035.099    548.572    539.642    539.642
104.470    974.000    999.472    -25.472    539.438    991.471    547.539    539.438    539.438
104.570    974.000    955.689     18.311    539.236    948.493    546.525    539.236    539.236
104.670    923.000    913.356      9.644    539.036    906.932    545.546    539.036    539.036
104.770    906.000    873.146     32.854    538.839    867.447    544.615    538.839    538.839
104.870    877.053    835.602     41.451    538.645    830.572    543.743    538.645    538.645
104.970    856.000    801.127     54.873    538.453    796.705    542.935    538.453    538.453
105.070    776.042    769.986      6.057    538.264    766.107    542.195    538.264    538.264
105.170    764.000    742.306     21.694    538.078    738.904    541.524    538.078    538.078
105.270    755.126    718.091     37.035    537.894    715.103    540.920    537.894    537.894
105.370    680.751    697.229    -16.478    537.712    694.599    540.375    537.712    537.712
105.470    709.379    679.548     29.832    537.534    677.222    539.887    537.534    537.534
105.570    715.000    664.837     50.163    537.358    662.756    539.461    537.358    537.358
105.670    622.480    652.805    -30.325    537.185    650.924    539.084    537.185    537.185
105.770    646.062    643.165      2.897    537.015    641.443    538.751    537.015    537.015
105.870    650.843    635.641     15.202    536.847    634.043    538.456    536.847    536.847
105.970    578.356    629.977    -51.621    536.683    628.472    538.195    536.683    536.683
106.070    660.770    625.949     34.821    536.521    624.512    537.963    536.521    536.521
106.170    606.591    623.371    -16.780    536.363    621.980    537.756    536.363    536.363
106.270    634.000    622.098     11.902    536.207    620.733    537.572    536.207    536.207
106.370    610.000    622.023    -12.023    536.054    620.666    537.409    536.054    536.054
106.470    627.000    623.075      3.925    535.904    621.709    537.266    535.904    535.904
106.570    637.048    625.212     11.836    535.757    623.822    537.140    535.757    535.757
106.670    605.009    628.416    -23.407    535.614    626.987    537.033    535.614    535.614
106.770    643.000    632.686     10.314    535.473    631.204    536.943    535.473    535.473
106.870    642.000    638.028      3.972    535.336    636.480    536.870    535.336    535.336
106.970    671.392    644.452     26.940    535.202    642.822    536.814    535.202    535.202
107.070    664.000    651.958     12.042    535.071    650.232    536.776    535.071    535.071
107.170    660.000    660.532     -0.532    534.943    658.697    536.754    534.943    534.943
107.270    689.000    670.136     18.864    534.818    668.178    536.748    534.818    534.818
107.370    715.000    680.696     34.304    534.697    678.604    536.758    534.697    534.697
107.470    700.000    692.101      7.899    534.579    689.865    536.781    534.579    534.579
107.570    754.798    704.194     50.603    534.464    701.805    536.816    534.464    534.464
107.670    736.000    716.772     19.228    534.353    714.226    536.859    534.353    534.353
107.770    751.000    729.582     21.418    534.245    726.878    536.907    534.245    534.245
107.870    776.878    742.332     34.546    534.141    739.472    536.956    534.141    534.141
107.970    817.000    754.689     62.311    534.040    751.682    537.001    534.040    534.040
108.070    818.000    766.295     51.705    533.943    763.155    537.036    533.943    533.943
108.170    778.000    776.789      1.211    533.849    773.535    537.056    533.849    533.849
108.270    773.000    785.833    -12.833    533.759    782.489    537.057    533.759    533.759
108.370    772.471    793.153    -20.683    533.672    789.748    537.034    533.672    533.672
108.470    794.000    798.583     -4.583    533.589    795.147    536.983    533.589    533.589
108.570    824.000    802.095     21.905    533.510    798.662    536.905    533.510    533.510
108.670    816.000    803.817     12.183    533.435    800.417    536.800    533.435    533.435
108.770    842.000    804.012     37.988    533.363    800.674    536.671    533.363    533.363
108.870    772.000    803.049    -31.049    533.295    799.796    536.522    533.295    533.295
108.970    828.000    801.348     26.652    533.230    798.197    536.359    533.230    533.230
109.070    796.000    799.331     -3.331    533.170    796.296    536.188    533.170    533.170
109.170    827.000    797.385     29.615    533.114    794.471    536.015    533.114    533.114
109.270    750.000    795.829    -45.829    533.061    793.039    535.843    533.061    533.061
109.370    764.380    794.899    -30.519    533.012    792.231    535.677    533.012    533.012
109.470    842.000    794.735     47.265    532.968    792.181    535.521    532.968    532.968
109.570    840.343    795.374     44.969    532.927    792.927    535.378    532.927    532.927
109.670    749.000    796.750    -47.750    532.891    794.401    535.247    532.891    532.891
109.770    816.322    798.697     17.625    532.858    796.436    535.131    532.858    532.858
109.870    778.000    800.954    -22.954    532.830    798.771    535.028    532.830    532.830
109.970    828.173    803.178     24.995    532.806    801.064    534.938    532.806    532.806
110.070    779.000    804.968    -25.968    532.786    802.917    534.859    532.786    532.786
110.170    759.000    805.897    -46.897    532.770    803.904    534.788    532.770    532.770
110.270    819.007    805.556     13.451    532.758    803.619    534.723    532.758    532.758
110.370    797.667    803.605     -5.938    532.751    801.724    534.662    532.751    532.751
110.470    784.000    799.819    -15.819    532.748    797.996    534.603    532.748    532.748
110.570    772.000    794.117    -22.117    532.750    792.355    534.545    532.750    532.750
110.670    790.000    786.568      3.432    532.756    784.870    534.487    532.756    532.756
110.770    779.281    777.357      1.924    532.766    775.738    534.419    532.766    532.766
110.870    751.000    766.803    -15.803    532.781    765.257    534.360    532.781    532.781
110.970    770.000    755.244     14.756    532.800    753.768    534.309    532.800    532.800
111.070    722.000    743.036    -21.036    532.824    741.628    534.262    532.824    532.824
111.170    764.000    730.526     33.474    532.852    729.186    534.221    532.852    532.852
111.270    693.000    718.036    -25.036    532.885    716.760    534.188    532.885    532.885
111.370    667.000    705.848    -38.848    532.923    704.633    534.162    532.923    532.923
111.470    718.532    694.204     24.328    532.965    693.045    534.145    532.965    532.965
111.570    673.404    683.299     -9.896    533.012    682.192    534.138    533.012    533.012
111.670    684.281    673.280     11.002    533.064    672.219    534.141    533.064    533.064
111.770    695.078    664.269     30.810    533.121    663.247    534.156    533.121    533.121
111.870    675.000    656.330     18.670    533.183    655.342    534.181    533.183    533.183
111.970    620.000    649.490    -29.490    533.249    648.529    534.218    533.249    533.249
112.070    662.000    643.744     18.256    533.320    642.804    534.266    533.320    533.320
112.170    596.395    639.061    -42.666    533.396    638.136    534.325    533.396    533.396
112.270    621.000    635.386    -14.386    533.478    634.471    534.395    533.478    533.478
112.370    589.410    632.648    -43.238    533.564    631.738    534.474    533.564    533.564
112.470    719.000    630.765     88.235    533.655    629.856    534.563    533.655    533.655
112.570    593.000    629.651    -36.651    533.752    628.738    534.661    533.752    533.752
112.670    655.000    629.216     25.784    533.853    628.298    534.767    533.853    533.853
112.770    625.000    629.375     -4.375    533.960    628.449    534.881    533.960    533.960
112.870    586.171    630.049    -43.879    534.072    629.114    535.001    534.072    534.072
112.970    594.000    631.168    -37.168    534.189    630.222    535.128    534.189    534.189
113.070    677.147    632.671     44.476    534.312    631.713    535.261    534.312    534.312
113.170    661.114    634.511     26.604    534.440    633.542    535.400    534.440    534.440
113.270    616.000    636.654    -20.654    534.573    635.673    535.545    534.573    534.573
113.370    661.000    639.082     21.918    534.711    638.090    535.694    534.711    534.711
113.470    621.000    641.794    -20.794    534.855    640.790    535.850    534.855    534.855
113.570    637.837    644.804     -6.967    535.005    643.786    536.012    535.005    535.005
113.670    676.057    648.143     27.914    535.160    647.111    536.181    535.160    535.160
113.770    698.670    651.862     46.809    535.321    650.814    536.357    535.321    535.321
113.870    671.221    656.031     15.190    535.487    654.964    536.543    535.487    535.487
113.970    711.000    660.745     50.255    535.659    659.654    536.738    535.659    535.659
114.070    661.010    666.125     -5.115    535.836    665.005    536.944    535.836    535.836
114.170    648.000    672.334    -24.334    536.020    671.177    537.163    536.020    536.020
114.270    670.000    679.573     -9.573    536.209    678.370    537.396    536.209    536.209
114.370    723.000    688.099     34.901    536.404    686.839    537.645    536.404    536.404
114.470    765.000    698.235     66.765    536.604    696.906    537.912    536.604    536.604
114.570    708.000    710.386     -2.386    536.811    708.973    538.200    536.811    536.811
114.670    743.000    725.053     17.947    537.023    723.537    538.511    537.023    537.023
114.770    756.000    742.849     13.151    537.242    741.209    538.848    537.242    537.242
114.870    722.367    764.518    -42.151    537.466    762.731    539.213    537.466    537.466
114.970    734.000    790.950    -56.950    537.697    788.987    539.611    537.697    537.697
115.070    831.000    823.195      7.805    537.934    821.026    540.043    537.934    537.934
115.170    844.832    862.478    -17.645    538.176    860.067    540.515    538.176    538.176
115.270    947.000    910.199     36.801    538.425    907.508    541.029    538.425    538.425
115.370    988.000    967.939     20.061    538.681    964.925    541.589    538.681    538.681
115.470   1018.894   1037.443    -18.549    538.942   1034.060    542.199    538.942    538.942
115.570   1067.471   1120.602    -53.130    539.210   1116.800    542.861    539.210    539.210
115.670   1215.969   1219.416     -3.447    539.484   1215.143    543.579    539.484    539.484
115.770   1279.000   1335.944    -56.944    539.764   1331.144    544.356    539.764    539.764
115.870   1510.689   1472.237     38.452    540.051   1466.853    545.193    540.051    540.051
115.970   1594.000   1630.258    -36.258    540.344   1624.231    546.093    540.344    540.344
116.070   1891.000   1811.783     79.217    540.644   1805.054    547.054    540.644    540.644
116.170   2066.422   2018.293     48.129    540.951   2010.807    548.076    540.951    540.951
116.270   2373.000   2250.860    122.140    541.263   2242.563    549.157    541.263    541.263
116.370   2563.000   2510.023     52.977    541.583   2500.865    550.293    541.583    541.583
116.470   2697.480   2795.668    -98.188    541.909   2785.608    551.478    541.909    541.909
116.570   3070.000   3106.924    -36.924    542.242   3095.927    552.706    542.242    542.242
116.670   3534.000   3442.061     91.939    542.582   3430.105    553.968    542.582    542.582
116.770   3844.000   3798.424     45.576    542.929   3785.496    555.253    542.929    542.929
116.870   4209.000   4172.379     36.621    543.282   4158.480    556.551    543.282    543.282
116.970   4559.000   4559.300     -0.300    543.643   4544.446    557.849    543.643    543.643
117.070   5072.598   4953.581    119.017    544.010   4937.799    559.136    544.010    544.010
117.170   5413.000   5348.663     64.337    544.384   5331.994    560.398    544.384    544.384
117.270   5716.000   5737.165    -21.165    544.765   5719.664    561.626    544.765    544.765
117.370   6172.000   6111.024     60.976    545.154   6092.758    562.808    545.154    545.154
117.470   6270.000   6461.537   -191.537    545.549   6442.583    563.933    545.549    545.549
117.570   6839.025   6779.721     59.304    545.952   6760.169    564.989    545.952    545.952
117.670   7181.000   7056.621    124.379    546.362   7036.573    565.965    546.362    546.362
117.770   7343.797   7283.753     60.044    546.779   7263.321    566.848    546.779    546.779
117.870   7514.918   7453.635     61.284    547.203   7432.938    567.629    547.203    547.203
117.970   7455.000   7560.375   -105.375    547.635   7539.538    568.299    547.635    547.635
118.070   7599.000   7600.213     -1.213    548.074   7579.363    568.853    548.074    548.074
118.170   7571.507   7571.907     -0.399    548.520   7551.169    569.288    548.520    548.520
118.270   7399.000   7476.861    -77.861    548.974   7456.355    569.606    548.974    548.974
118.370   7315.000   7318.973     -3.973    549.436   7298.810    569.811    549.436    549.436
118.470   7006.927   7104.228    -97.301    549.905   7084.510    569.912    549.905    549.905
118.570   6969.091   6840.144    128.947    550.382   6820.961    569.917    550.382    550.382
118.670   6597.000   6535.187     61.813    550.866   6516.617    569.838    550.866    550.866
118.770   6159.930   6198.235    -38.305    551.358   6180.345    569.687    551.358    551.358
118.870   5724.000   5838.145   -114.145    551.858   5820.989    569.475    551.858    551.858
118.970   5290.000   5463.425   -173.425    552.365   5447.048    569.215    552.365    552.365
119.070   5066.000   5081.995    -15.995    552.881   5066.429    568.919    552.881    552.881
119.170   4725.130   4701.017     24.113    553.404   4686.283    568.599    553.404    553.404
119.270   4326.000   4326.781     -0.781    553.935   4312.888    568.270    553.935    553.935
119.370   3995.868   3964.628     31.240    554.475   3951.574    567.943    554.475    554.475
119.470   3672.000   3618.916     53.084    555.022   3606.691    567.630    555.022    555.022
119.570   3249.000   3293.023    -44.023    555.577   3281.605    567.343    555.577    555.577
119.670   3058.060   2989.376     68.685    556.141   2978.734    567.092    556.141    556.141
119.770   2697.201   2709.517    -12.316    556.712   2699.614    566.887    556.712    556.712
119.870   2389.216   2454.197    -64.981    557.292   2444.988    566.734    557.292    557.292
119.970   2228.000   2223.476      4.524    557.880   2214.912    566.641    557.880    557.880
120.070   1997.000   2016.843    -19.843    558.477   2008.869    566.613    558.477    558.477
120.170   1906.420   1833.325     73.095    559.081   1825.883    566.655    559.081    559.081
120.270   1710.000   1671.603     38.397    559.695   1664.633    566.768    559.695    559.695
120.370   1601.000   1530.111     70.889    560.316   1523.550    566.956    560.316    560.316
120.470   1461.000   1407.127     53.873    560.946   1400.911    567.221    560.946    560.946
120.570   1332.699   1300.858     31.841    561.585   1294.921    567.563    561.585    561.585
120.670   1212.701   1209.502      3.199    562.232   1203.777    567.984    562.232    562.232
120.770   1152.000   1131.309     20.691    562.888   1125.729    568.484    562.888    562.888
120.870   1009.213   1064.624    -55.412    563.553   1059.121    569.063    563.553    563.553
120.970   1003.000   1007.918     -4.918    564.226   1002.423    569.722    564.226    564.226
121.070    941.123    959.804    -18.681    564.908    954.247    570.462    564.908    564.908
121.170    957.215    919.051     38.163    565.599    913.362    571.283    565.599    565.599
121.270    877.000    884.583     -7.583    566.299    878.689    572.186    566.299    566.299
121.370    861.000    855.469      5.531    567.008    849.298    573.172    567.008    567.008
121.470    815.000    830.921    -15.921    567.726    824.397    574.243    567.726    567.726
121.570    760.709    810.272    -49.563    568.453    803.318    575.400    568.453    568.453
121.670    736.346    792.965    -56.619    569.189    785.503    576.646    569.189    569.189
121.770    737.000    778.541    -41.541    569.934    770.489    577.982    569.934    569.934
121.870    721.000    766.616    -45.616    570.688    757.893    579.410    570.688    570.688
121.970    770.000    756.877     13.123    571.452    747.397    580.932    571.452    571.452
122.070    702.738    749.064    -46.326    572.225    738.740    582.549    572.225    572.225
122.170    740.000    742.960     -2.960    573.007    731.706    584.264    573.007    573.007
122.270    739.000    738.385      0.615    573.799    726.112    586.076    573.799    573.799
122.370    789.242    735.184     54.058    574.600    721.804    587.985    574.600    574.600
122.470    697.000    733.224    -36.224    575.410    718.650    589.992    575.410    575.410
122.570    620.000    732.388   -112.388    576.230    716.532    592.096    576.230    576.230
122.670    676.000    732.569    -56.569    577.060    715.347    594.293    577.060    577.060
122.770    734.000    733.667      0.333    577.900    714.999    596.581    577.900    577.900
122.870    714.000    735.587    -21.587    578.749    715.397    598.954    578.749    578.749
122.970    735.869    738.235     -2.366    579.607    716.454    601.405    579.607    579.607
123.070    731.000    741.514    -10.514    580.476    718.084    603.925    580.476    580.476
123.170    699.000    745.326    -46.326    581.355    720.201    606.502    581.355    581.355
123.270    761.000    749.569     11.431    582.243    722.717    609.119    582.243    582.243
123.370    750.000    754.136     -4.136    583.141    725.544    611.760    583.141    583.141
123.470    741.000    758.912    -17.912    584.050    728.589    614.402    584.050    584.050
123.570    762.148    763.778     -1.630    584.968    731.757    617.022    584.968    584.968
123.670    787.100    768.609     18.491    585.897    734.949    619.593    585.897    585.897
123.770    766.923    773.277     -6.354    586.835    738.066    622.085    586.835    586.835
123.870    773.000    777.648     -4.648    587.784    741.007    624.469    587.784    587.784
123.970    792.000    781.591     10.409    588.744    743.669    626.711    588.744    588.744
124.070    816.378    784.976     31.402    589.713    745.957    628.781    589.713    589.713
124.170    763.867    787.683    -23.816    590.693    747.779    630.649    590.693    590.693
124.270    833.895    789.605     44.290    591.684    749.054    632.289    591.684    591.684
124.370    804.022    790.656     13.367    592.684    749.718    633.679    592.684    592.684
124.470    847.377    790.774     56.603    593.696    749.724    634.805    593.696    593.696
124.570    774.000    789.929    -15.929    594.718    749.049    635.659    594.718    594.718
124.670    873.000    788.120     84.880    595.751    747.689    636.244    595.751    595.751
124.770    896.000    785.361    110.639    596.794    745.649    636.569    596.794    596.794
124.870    799.087    781.731     17.356    597.848    742.991    636.652    597.848    597.848
124.970    827.782    777.342     50.440    598.913    739.800    636.518    598.913    598.913
