neutron_powder_diffraction_0004
R_wp: 3.638
Temperature (K): 437.747
Counts: 83880.00
Wavelength (Ã…): 2.52098
COMMENTS
Test file for demonstrating the .xyy file format in Reel1.0
END OF HEADER
   tth       Y_obs     Y_calc      Y_res    Background    Phase_1_Nuc    Phase_1_Mag    Phase_2_Nuc    Phase_2_Mag
  9.970    729.300    757.546    -28.246    755.812    756.803    756.554    755.812    755.812
 10.070    776.842    756.481     20.361    754.661    755.731    755.410    754.661    754.661
 10.170    747.000    755.433     -8.433    753.515    754.675    754.273    753.515    753.515
 10.270    751.732    754.404     -2.672    752.375    753.638    753.141    752.375    752.375
 10.370    814.000    753.397     60.603    751.242    752.623    752.015    751.242    751.242
 10.470    759.000    752.415      6.585    750.114    751.632    750.896    750.114    750.114
 10.570    757.000    751.461      5.539    748.992    750.670    749.782    748.992    748.992
 10.670    723.690    750.543    -26.852    747.876    749.742    748.675    747.876    747.876
 10.770    810.000    749.665     60.335    746.765    748.856    747.573    746.765    746.765
 10.870    714.000    748.839    -34.839    745.661    748.021    746.478    745.661    745.661
 10.970    800.000    748.076     51.924    744.562    747.249    745.388    744.562    744.562
 11.070    769.000    747.395     21.605    743.469    746.558    744.305    743.469    743.469
 11.170    735.000    746.821    -11.821    742.383    745.974    743.227    742.383    742.383
 11.270    745.000    746.389     -1.389    741.301    745.532    742.156    741.301    741.301
 11.370    732.917    746.167    -13.250    740.226    745.300    741.090    740.226    740.226
 11.470    771.000    746.343     24.657    739.157    745.466    740.031    739.157    739.157
 11.570    771.000    746.994     24.006    738.093    746.105    738.977    738.093    738.093
 11.670    815.000    748.632     66.368    737.035    747.732    737.929    737.035    737.035
 11.770    806.000    752.377     53.623    735.983    751.464    736.888    735.983    735.983
 11.870    850.000    760.123     89.877    734.936    759.194    735.852    734.936    734.936
 11.970    809.000    774.295     34.705    733.895    773.346    734.822    733.895    733.895
 12.070    848.000    796.426     51.574    732.860    795.453    733.798    732.860    732.860
 12.170    837.000    824.370     12.630    731.831    823.369    732.780    731.831    731.831
 12.270    851.025    848.984      2.040    730.807    847.958    731.768    730.807    730.807
 12.370    850.000    855.665     -5.665    729.789    854.623    730.761    729.789    729.789
 12.470    855.264    838.284     16.980    728.777    837.239    729.761    728.777    728.777
 12.570    766.000    808.381    -42.381    727.770    807.341    728.766    727.770    727.770
 12.670    790.000    779.938     10.062    726.769    778.901    727.777    726.769    726.769
 12.770    774.396    759.008     15.388    725.774    757.969    726.794    725.774    725.774
 12.870    739.000    745.754     -6.754    724.784    744.710    725.817    724.784    724.784
 12.970    719.000    737.963    -18.963    723.800    736.910    724.846    723.800    723.800
 13.070    704.000    733.297    -29.297    722.822    732.232    723.881    722.822    722.822
 13.170    750.398    730.194     20.204    721.849    729.117    722.921    721.849    721.849
 13.270    715.000    727.856    -12.856    720.881    726.766    721.968    720.881    720.881
 13.370    732.000    725.924      6.076    719.920    724.821    721.020    719.920    719.920
 13.470    681.303    724.242    -42.939    718.964    723.125    720.078    718.964    718.964
 13.570    691.417    722.732    -31.315    718.013    721.601    719.142    718.013    718.013
 13.670    775.289    721.348     53.941    717.068    720.203    718.212    717.068    717.068
 13.770    704.628    720.059    -15.430    716.128    718.898    717.287    716.128    716.128
 13.870    672.000    718.842    -46.842    715.194    717.667    716.368    715.194    715.194
 13.970    749.000    717.684     31.316    714.265    716.493    715.456    714.265    714.265
 14.070    710.000    716.572     -6.572    713.342    715.365    714.548    713.342    713.342
 14.170    706.887    715.505     -8.618    712.425    714.282    713.647    712.425    712.425
 14.270    684.000    714.486    -30.486    711.513    713.246    712.752    711.513    711.513
 14.370    737.000    713.474     23.526    710.606    712.216    711.863    710.606    710.606
 14.470    714.000    712.482      1.518    709.705    711.207    710.979    709.705    709.705
 14.570    738.000    711.510     26.490    708.809    710.218    710.101    708.809    708.809
 14.670    714.256    710.557      3.699    707.918    709.246    709.228    707.918    707.918
 14.770    722.000    709.619     12.381    707.033    708.290    708.362    707.033    707.033
 14.870    724.845    708.695     16.149    706.154    707.347    707.501    706.154    706.154
 14.970    686.000    707.785    -21.785    705.279    706.418    706.646    705.279    705.279
 15.070    695.019    706.890    -11.871    704.410    705.503    705.797    704.410    704.410
 15.170    706.023    706.005      0.018    703.547    704.598    704.954    703.547    703.547
 15.270    682.000    705.129    -23.129    702.689    703.701    704.116    702.689    702.689
 15.370    723.000    704.262     18.738    701.836    702.813    703.284    701.836    701.836
 15.470    690.000    703.405    -13.405    700.988    701.935    702.458    700.988    700.988
 15.570    687.000    702.557    -15.557    700.146    701.064    701.638    700.146    700.146
 15.670    716.116    701.717     14.399    699.309    700.202    700.823    699.309    699.309
 15.770    670.286    700.886    -30.600    698.477    699.348    700.015    698.477    698.477
 15.870    676.000    700.063    -24.063    697.651    698.501    699.212    697.651    697.651
 15.970    660.509    699.247    -38.738    696.829    697.662    698.415    696.829    696.829
 16.070    708.000    698.439      9.561    696.013    696.829    697.624    696.013    696.013
 16.170    746.480    697.639     48.841    695.203    696.003    696.838    695.203    695.203
 16.270    672.000    696.846    -24.846    694.397    695.184    696.058    694.397    694.397
 16.370    744.129    696.061     48.068    693.597    694.373    695.285    693.597    693.597
 16.470    746.326    695.289     51.037    692.801    693.573    694.517    692.801    692.801
 16.570    726.057    694.518     31.539    692.011    692.774    693.755    692.011    692.011
 16.670    732.836    693.753     39.083    691.227    691.981    692.998    691.227    691.227
 16.770    647.602    692.995    -45.392    690.447    691.194    692.248    690.447    690.447
 16.870    701.000    692.243      8.757    689.672    690.412    691.503    689.672    689.672
 16.970    720.472    691.499     28.973    688.903    689.637    690.765    688.903    688.903
 17.070    704.000    690.761     13.239    688.139    688.867    690.032    688.139    688.139
 17.170    653.000    690.030    -37.030    687.379    688.104    689.305    687.379    687.379
 17.270    638.052    689.311    -51.259    686.625    687.351    688.586    686.625    686.625
 17.370    698.000    688.603      9.397    685.876    686.609    687.871    685.876    685.876
 17.470    670.000    687.900    -17.900    685.132    685.870    687.162    685.132    685.132
 17.570    699.000    687.265     11.735    684.393    685.197    686.461    684.393    684.393
 17.670    672.000    686.606    -14.606    683.659    684.501    685.765    683.659    683.659
 17.770    691.000    685.918      5.082    682.930    683.774    685.074    682.930    682.930
 17.870    704.000    685.233     18.767    682.206    683.051    684.389    682.206    682.206
 17.970    687.381    684.555      2.826    681.487    682.332    683.710    681.487    681.487
 18.070    667.000    683.883    -16.883    680.774    681.619    683.037    680.774    680.774
 18.170    689.000    683.218      5.782    680.065    680.912    682.370    680.065    680.065
 18.270    641.000    682.560    -41.560    679.360    680.211    681.710    679.360    679.360
 18.370    663.000    681.911    -18.911    678.661    679.516    681.056    678.661    678.661
 18.470    682.000    681.266      0.734    677.967    678.826    680.407    677.967    677.967
 18.570    699.000    680.628     18.372    677.278    678.140    679.766    677.278    677.278
 18.670    626.000    679.996    -53.996    676.593    677.459    679.130    676.593    676.593
 18.770    721.980    679.371     42.609    675.914    676.784    678.501    675.914    675.914
 18.870    688.000    678.753      9.247    675.239    676.114    677.878    675.239    675.239
 18.970    643.788    678.141    -34.353    674.570    675.449    677.262    674.570    674.570
 19.070    724.303    677.537     46.765    673.905    674.790    676.652    673.905    673.905
 19.170    658.000    676.951    -18.951    673.244    674.146    676.049    673.244    673.244
 19.270    671.000    676.397     -5.397    672.589    673.522    675.463    672.589    672.589
 19.370    681.542    675.863      5.679    671.939    672.912    674.890    671.939    671.939
 19.470    666.000    675.292     -9.292    671.293    672.277    674.308    671.293    671.293
 19.570    634.000    674.724    -40.724    670.652    671.644    673.732    670.652    670.652
 19.670    647.000    674.163    -27.163    670.016    671.016    673.162    670.016    670.016
 19.770    664.000    673.611     -9.611    669.384    670.396    672.600    669.384    669.384
 19.870    688.000    673.085     14.915    668.758    669.798    672.045    668.758    668.758
 19.970    657.501    672.555    -15.054    668.136    669.194    671.497    668.136    668.136
 20.070    651.000    672.027    -21.027    667.518    668.590    670.956    667.518    667.518
 20.170    666.000    671.520     -5.520    666.906    668.003    670.423    666.906    666.906
 20.270    638.250    671.032    -32.782    666.298    667.428    669.902    666.298    666.298
 20.370    683.000    670.571     12.429    665.695    666.861    669.405    665.695    665.695
 20.470    711.988    670.088     41.900    665.096    666.282    668.901    665.096    665.096
 20.570    672.000    669.621      2.379    664.502    665.724    668.399    664.502    664.502
 20.670    647.326    669.169    -21.843    663.913    665.177    667.905    663.913    663.913
 20.770    674.000    668.750      5.250    663.328    664.658    667.420    663.328    663.328
 20.870    655.000    668.295    -13.295    662.748    664.101    666.942    662.748    662.748
 20.970    699.169    667.846     31.324    662.172    663.546    666.472    662.172    662.172
 21.070    642.000    667.422    -25.422    661.601    663.012    666.011    661.601    661.601
 21.170    679.309    667.022     12.287    661.035    662.497    665.560    661.035    661.035
 21.270    659.000    666.605     -7.605    660.473    661.961    665.117    660.473    660.473
 21.370    667.482    666.207      1.274    659.916    661.439    664.684    659.916    659.916
 21.470    710.672    665.822     44.849    659.363    660.922    664.263    659.363    659.363
 21.570    684.000    665.447     18.553    658.814    660.407    663.855    658.814    658.814
 21.670    689.000    665.073     23.927    658.270    659.893    663.451    658.270    658.270
 21.770    670.000    664.714      5.286    657.731    659.388    663.057    657.731    657.731
 21.870    715.752    664.366     51.385    657.196    658.888    662.674    657.196    657.196
 21.970    611.442    664.030    -52.588    656.665    658.394    662.302    656.665    656.665
 22.070    666.387    663.709      2.678    656.139    657.906    661.942    656.139    656.139
 22.170    705.272    663.402     41.870    655.617    657.427    661.593    655.617    655.617
 22.270    616.000    663.111    -47.111    655.100    656.955    661.257    655.100    655.100
 22.370    634.000    662.838    -28.838    654.587    656.491    660.934    654.587    654.587
 22.470    681.011    662.584     18.428    654.079    656.038    660.625    654.079    654.079
 22.570    634.801    662.353    -27.553    653.574    655.598    660.330    653.574    653.574
 22.670    632.335    662.142    -29.807    653.074    655.166    660.051    653.074    653.074
 22.770    681.840    661.950     19.890    652.579    654.744    659.785    652.579    652.579
 22.870    701.000    661.781     39.219    652.087    654.333    659.536    652.087    652.087
 22.970    662.000    661.639      0.361    651.601    653.937    659.303    651.601    651.601
 23.070    639.000    661.527    -22.527    651.118    653.557    659.089    651.118    651.118
 23.170    706.025    661.447     44.578    650.639    653.194    658.893    650.639    650.639
 23.270    668.050    661.405      6.645    650.165    652.853    658.717    650.165    650.165
 23.370    674.000    661.405     12.595    649.695    652.537    658.563    649.695    649.695
 23.470    699.000    661.452     37.548    649.229    652.251    658.431    649.229    649.229
 23.570    630.771    661.554    -30.783    648.768    652.001    658.322    648.768    648.768
 23.670    677.000    661.723     15.277    648.311    651.797    658.238    648.311    648.311
 23.770    674.000    661.971     12.029    647.857    651.649    658.181    647.857    647.857
 23.870    616.000    662.318    -46.318    647.408    651.576    658.152    647.408    647.408
 23.970    683.000    662.791     20.209    646.963    651.601    658.155    646.963    646.963
 24.070    613.301    663.431    -50.130    646.523    651.765    658.191    646.523    646.523
 24.170    677.000    664.313     12.687    646.086    652.138    658.264    646.086    646.086
 24.270    637.565    665.585    -28.020    645.654    652.868    658.374    645.654    645.654
 24.370    650.366    667.588    -17.222    645.225    654.292    658.526    645.225    645.225
 24.470    681.000    671.014      9.986    644.801    657.098    658.724    644.801    644.801
 24.570    724.000    677.049     46.951    644.381    662.470    658.971    644.381    644.381
 24.670    686.000    687.189     -1.189    643.964    671.899    659.272    643.964    643.964
 24.770    695.594    702.424     -6.830    643.552    686.372    659.633    643.552    643.552
 24.870    739.000    721.666     17.334    643.144    704.794    660.058    643.144    643.144
 24.970    754.000    739.718     14.282    642.740    721.956    660.556    642.740    642.740
 25.070    729.000    747.267    -18.267    642.339    728.534    661.133    642.339    642.339
 25.170    731.000    739.078     -8.078    641.943    719.277    661.797    641.943    641.943
 25.270    739.000    721.600     17.400    641.551    700.632    662.560    641.551    641.551
 25.370    731.000    704.064     26.936    641.163    681.821    663.432    641.163    641.163
 25.470    711.000    691.022     19.978    640.778    667.390    664.427    640.778    640.778
 25.570    688.000    683.132      4.868    640.398    657.980    665.560    640.398    640.398
 25.670    661.490    679.254    -17.764    640.021    652.431    666.850    640.021    640.021
 25.770    683.000    677.918      5.082    639.648    649.252    668.319    639.648    639.648
 25.870    663.000    678.041    -15.041    639.279    647.331    669.993    639.279    639.279
 25.970    697.785    679.023     18.762    638.914    646.036    671.904    638.914    638.914
 26.070    648.000    680.601    -32.601    638.553    645.074    674.081    638.553    638.553
 26.170    683.682    682.694      0.989    638.196    644.319    676.572    638.196    638.196
 26.270    704.000    685.295     18.705    637.842    643.708    679.429    637.842    637.842
 26.370    663.247    688.438    -25.191    637.492    643.211    682.719    637.492    637.492
 26.470    764.000    692.184     71.816    637.146    642.807    686.523    637.146    637.146
 26.570    640.000    696.622    -56.622    636.804    642.485    690.941    636.804    636.804
 26.670    684.000    701.876    -17.876    636.466    642.239    696.101    636.466    636.466
 26.770    690.000    708.108    -18.108    636.131    642.070    702.167    636.131    636.131
 26.870    682.114    715.531    -33.416    635.800    641.979    709.349    635.800    635.800
 26.970    744.489    724.431     20.058    635.472    641.975    717.925    635.472    635.472
 27.070    692.000    735.196    -43.196    635.149    642.072    728.269    635.149    635.149
 27.170    732.000    748.348    -16.348    634.829    642.288    740.883    634.829    634.829
 27.270    759.281    764.602     -5.321    634.512    642.652    756.456    634.512    634.512
 27.370    764.664    785.000    -20.335    634.200    643.206    775.985    634.200    634.200
 27.470    830.000    811.066     18.934    633.891    644.014    800.933    633.891    633.891
 27.570    863.472    845.255     18.218    633.585    645.177    833.650    633.585    633.585
 27.670    898.000    892.468      5.532    633.283    646.898    878.835    633.283    633.283
 27.770    977.000    965.989     11.011    632.985    649.726    949.221    632.985    632.985
 27.870   1138.479   1106.589     31.890    632.690    655.336   1083.890    632.690    632.690
 27.970   1427.000   1424.505      2.495    632.399    668.256   1388.533    632.399    632.399
 28.070   2073.533   2142.238    -68.705    632.111    697.617   2076.474    632.111    632.111
 28.170   3323.000   3539.140   -216.140    631.827    754.890   3415.570    631.827    631.827
 28.270   5428.000   5684.925   -256.925    631.547    842.963   5472.703    631.547    631.547
 28.370   7943.907   8052.534   -108.627    631.269    940.297   7742.540    631.269    631.269
 28.470   9431.000   9432.400     -1.400    630.996    997.467   9065.170    630.996    630.996
 28.570   9082.000   8884.414    197.586    630.726    976.349   8538.556    630.726    630.726
 28.670   6907.059   6989.392    -82.333    630.459    901.684   6718.345    630.459    630.459
 28.770   4969.242   5105.286   -136.044    630.195    830.713   4905.056    630.195    630.195
 28.870   4292.000   4137.116    154.884    629.935    802.161   3965.105    629.935    629.935
 28.970   4201.000   4207.251     -6.251    629.679    821.052   4016.013    629.679    629.679
 29.070   4961.618   4848.087    113.531    629.426    864.439   4613.238    629.426    629.426
 29.170   5355.000   5294.642     60.358    629.176    892.761   5031.380    629.176    629.176
 29.270   5032.000   4973.443     58.557    628.929    875.696   4727.179    628.929    628.929
 29.370   4030.000   4001.021     28.979    628.686    820.889   3809.362    628.686    628.686
 29.470   2798.000   2883.435    -85.435    628.447    757.549   2754.775    628.447    628.447
 29.570   1971.000   1990.404    -19.404    628.210    706.891   1912.017    628.210    628.210
 29.670   1314.000   1422.747   -108.747    627.977    674.721   1376.170    627.977    627.977
 29.770   1212.000   1114.967     97.033    627.747    657.337   1085.464    627.747    627.747
 29.870    973.171    960.507     12.664    627.520    648.684    939.389    627.520    627.520
 29.970    930.000    880.091     49.909    627.297    644.259    863.156    627.297    627.297
 30.070    888.685    832.278     56.406    627.076    641.717    817.656    627.076    627.076
 30.170    802.000    799.682      2.318    626.859    640.091    786.463    626.859    626.859
 30.270    831.000    775.625     55.375    626.646    639.034    763.246    626.646    626.646
 30.370    756.000    757.379     -1.379    626.435    638.460    745.360    626.435    626.435
 30.470    787.000    743.777     43.223    626.228    638.460    731.549    626.228    626.228
 30.570    766.036    734.716     31.320    626.023    639.389    721.350    626.023    626.023
 30.670    746.000    731.245     14.755    625.822    642.015    715.047    625.822    625.822
 30.770    778.000    735.525     42.475    625.624    647.544    713.592    625.624    625.624
 30.870    784.000    749.850     34.150    625.429    657.192    718.061    625.429    625.429
 30.970    765.000    774.270     -9.270    625.237    671.094    728.371    625.237    625.237
 31.070    843.000    803.280     39.720    625.048    686.774    741.497    625.048    625.048
 31.170    829.000    823.869      5.131    624.863    698.243    750.423    624.863    624.863
 31.270    810.738    821.677    -10.939    624.680    698.870    747.425    624.680    624.680
 31.370    809.000    795.240     13.760    624.500    688.015    731.679    624.500    624.500
 31.470    771.932    757.869     14.063    624.324    671.901    710.260    624.324    624.324
 31.570    672.355    723.330    -50.974    624.150    656.963    690.498    624.150    624.150
 31.670    676.000    697.861    -21.861    623.979    646.127    675.703    623.979    623.979
 31.770    717.000    681.639     35.361    623.811    639.493    665.952    623.811    623.811
 31.870    723.000    672.106     50.894    623.647    635.888    659.862    623.647    623.647
 31.970    701.000    666.494     34.506    623.485    634.036    655.940    623.485    623.485
 32.070    685.799    662.916     22.882    623.326    633.072    653.168    623.326    623.326
 32.170    670.946    660.395     10.551    623.170    632.552    651.012    623.170    623.170
 32.270    663.000    658.499      4.501    623.017    632.284    649.231    623.017    623.017
 32.370    699.000    657.051     41.949    622.866    632.195    647.721    622.866    622.866
 32.470    628.000    655.974    -27.974    622.719    632.259    646.433    622.719    622.719
 32.570    647.674    655.234     -7.560    622.574    632.470    645.339    622.574    622.574
 32.670    643.295    654.823    -11.528    622.433    632.833    644.422    622.433    622.433
 32.770    678.782    654.748     24.035    622.294    633.364    643.677    622.294    622.294
 32.870    641.986    655.038    -13.051    622.158    634.091    643.104    622.158    622.158
 32.970    636.000    655.743    -19.743    622.024    635.054    642.713    622.024    622.024
 33.070    673.000    656.941     16.059    621.894    636.310    642.524    621.894    621.894
 33.170    652.000    658.752     -6.752    621.766    637.946    642.571    621.766    621.766
 33.270    646.000    661.363    -15.363    621.641    640.093    642.910    621.641    621.641
 33.370    689.000    665.100     23.900    621.518    642.975    643.643    621.518    621.518
 33.470    700.000    670.634     29.366    621.398    647.051    644.981    621.398    621.398
 33.570    690.000    679.479     10.521    621.281    653.351    647.409    621.281    621.281
 33.670    689.242    694.997     -5.755    621.167    664.159    652.003    621.167    621.167
 33.770    750.000    723.737     26.263    621.055    683.924    660.863    621.055    621.055
 33.870    787.000    775.981     11.019    620.946    719.630    677.288    620.946    620.946
 33.970    859.000    863.249     -4.249    620.840    779.099    704.975    620.840    620.840
 34.070   1018.000    991.041     26.959    620.736    866.068    745.687    620.736    620.736
 34.170   1119.087   1147.602    -28.515    620.635    972.559    795.651    620.635    620.635
 34.270   1314.000   1291.806     22.194    620.536   1070.651    841.668    620.536    620.536
 34.370   1318.000   1355.234    -37.234    620.440   1113.892    861.775    620.440    620.440
 34.470   1309.000   1296.284     12.716    620.346   1074.031    842.618    620.346    620.346
 34.570   1198.910   1153.748     45.162    620.255    977.396    796.640    620.255    620.255
 34.670   1010.000    996.015     13.985    620.167    870.423    745.794    620.167    620.167
 34.770    836.000    865.661    -29.661    620.081    782.025    703.745    620.081    620.081
 34.870    780.899    775.644      5.254    619.997    721.005    674.656    619.997    619.997
 34.970    743.000    721.069     21.931    619.916    684.041    656.955    619.916    619.916
 35.070    708.000    690.539     17.461    619.838    663.398    646.985    619.838    619.838
 35.170    727.000    673.644     53.356    619.761    652.005    641.403    619.761    619.761
 35.270    705.051    663.651     41.400    619.688    645.292    638.049    619.688    619.688
 35.370    640.434    657.065    -16.631    619.616    640.883    635.800    619.616    619.616
 35.470    717.000    652.297     64.703    619.547    637.700    634.146    619.547    619.547
 35.570    625.211    648.641    -23.430    619.481    635.263    632.860    619.481    619.481
 35.670    668.000    645.748     22.252    619.416    633.334    631.831    619.416    619.416
 35.770    668.000    643.419     24.581    619.355    631.779    630.995    619.355    619.355
 35.870    684.502    641.522     42.980    619.295    630.506    630.312    619.295    619.295
 35.970    648.181    639.966      8.215    619.238    629.453    629.751    619.238    619.238
 36.070    655.000    638.683     16.317    619.183    628.573    629.294    619.183    619.183
 36.170    625.000    637.626    -12.626    619.130    627.832    628.925    619.130    619.130
 36.270    639.000    636.760      2.240    619.080    627.204    628.637    619.080    619.080
 36.370    651.000    636.061     14.939    619.032    626.671    628.422    619.032    619.032
 36.470    602.343    635.510    -33.167    618.986    626.217    628.279    618.986    618.986
 36.570    651.457    635.097     16.359    618.942    625.831    628.209    618.942    618.942
 36.670    637.000    634.819      2.181    618.900    625.506    628.214    618.900    618.900
 36.770    619.000    634.677    -15.677    618.861    625.236    628.303    618.861    618.861
 36.870    671.000    634.679     36.321    618.824    625.018    628.486    618.824    618.824
 36.970    647.000    634.842     12.158    618.789    624.852    628.780    618.789    618.789
 37.070    681.596    635.196     46.400    618.756    624.744    629.209    618.756    618.756
 37.170    659.000    635.793     23.207    618.726    624.709    629.810    618.726    618.726
 37.270    631.000    636.727     -5.727    618.697    624.783    630.642    618.697    618.697
 37.370    648.000    638.180      9.820    618.670    625.040    631.812    618.670    618.670
 37.470    614.822    640.502    -25.680    618.646    625.606    633.543    618.646    618.646
 37.570    660.000    644.348     15.652    618.624    626.661    636.313    618.624    618.624
 37.670    688.000    650.856     37.144    618.603    628.387    641.075    618.603    618.603
 37.770    671.000    661.767      9.233    618.585    630.868    649.486    618.585    618.585
 37.870    672.000    679.242     -7.242    618.569    633.934    663.881    618.569    618.569
 37.970    718.000    705.022     12.978    618.555    636.970    686.612    618.555    618.555
 38.070    793.645    738.932     54.714    618.542    638.906    718.576    618.542    618.542
 38.170    776.000    777.404     -1.404    618.532    638.864    757.084    618.532    618.532
 38.270    709.000    812.025   -103.025    618.524    636.995    793.571    618.524    618.524
 38.370    791.209    829.501    -38.292    618.518    634.181    813.861    618.518    618.518
 38.470    788.000    819.944    -31.944    618.513    631.228    807.257    618.513    618.513
 38.570    776.000    787.765    -11.765    618.511    628.637    777.666    618.511    618.511
 38.670    780.000    746.935     33.065    618.510    626.643    738.826    618.510    618.510
 38.770    731.000    709.301     21.699    618.511    625.258    702.572    618.511    618.511
 38.870    635.000    680.414    -45.414    618.514    624.365    674.576    618.514    618.514
 38.970    630.007    660.936    -30.929    618.519    623.813    655.650    618.519    618.519
 39.070    661.000    648.985     12.015    618.526    623.478    644.038    618.526    618.526
 39.170    597.000    642.022    -45.022    618.535    623.272    637.289    618.535    618.535
 39.270    623.000    637.945    -14.945    618.545    623.140    633.353    618.545    618.545
 39.370    613.000    635.405    -22.405    618.557    623.051    630.913    618.557    618.557
 39.470    663.045    633.680     29.365    618.571    622.999    629.254    618.571    618.571
 39.570    610.000    632.414    -22.414    618.587    622.970    628.033    618.587    618.587
 39.670    654.000    631.438     22.562    618.605    622.959    627.085    618.605    618.605
 39.770    602.227    630.666    -28.439    618.624    622.964    626.327    618.624    618.624
 39.870    624.000    630.047     -6.047    618.645    622.984    625.710    618.645    618.645
 39.970    638.000    629.548      8.452    618.668    623.016    625.201    618.668    618.668
 40.070    624.000    629.144     -5.144    618.692    623.060    624.777    618.692    618.692
 40.170    561.000    628.819    -67.819    618.718    623.115    624.422    618.718    618.718
 40.270    619.000    628.558     -9.558    618.746    623.182    624.122    618.746    618.746
 40.370    586.829    628.353    -41.524    618.775    623.261    623.868    618.775    618.775
 40.470    609.000    628.197    -19.197    618.806    623.352    623.651    618.806    618.806
 40.570    652.523    628.083     24.441    618.838    623.455    623.467    618.838    618.838
 40.670    645.000    628.008     16.992    618.873    623.572    623.309    618.873    618.873
 40.770    610.000    627.969    -17.969    618.908    623.704    623.175    618.908    618.908
 40.870    599.000    627.966    -28.966    618.946    623.852    623.060    618.946    618.946
 40.970    630.000    627.997      2.003    618.984    624.019    622.964    618.984    618.984
 41.070    630.000    628.064      1.936    619.025    624.207    622.883    619.025    619.025
 41.170    665.486    628.168     37.318    619.067    624.419    622.817    619.067    619.067
 41.270    648.833    628.312     20.521    619.110    624.660    622.763    619.110    619.110
 41.370    604.000    628.501    -24.501    619.155    624.936    622.721    619.155    619.155
 41.470    632.000    628.741      3.259    619.201    625.253    622.690    619.201    619.201
 41.570    621.000    629.041     -8.041    619.249    625.622    622.670    619.249    619.249
 41.670    612.000    629.414    -17.414    619.298    626.054    622.660    619.298    619.298
 41.770    618.000    629.878    -11.878    619.349    626.568    622.661    619.349    619.349
 41.870    659.000    630.461     28.539    619.401    627.192    622.672    619.401    619.401
 41.970    585.000    631.212    -46.212    619.455    627.973    622.696    619.455    619.455
 42.070    628.739    632.225     -3.486    619.509    629.002    622.736    619.509    619.509
 42.170    642.000    633.694      8.306    619.566    630.466    622.798    619.566    619.566
 42.270    608.000    635.996    -27.996    619.623    632.728    622.897    619.623    619.623
 42.370    684.956    639.804     45.152    619.682    636.434    623.058    619.682    619.682
 42.470    589.000    646.136    -57.136    619.743    642.567    623.320    619.743    619.743
 42.570    675.338    656.234     19.104    619.804    652.320    623.732    619.804    619.804
 42.670    647.000    671.125    -24.125    619.867    666.681    624.331    619.867    619.867
 42.770    659.052    690.869    -31.817    619.931    685.710    625.120    619.931    619.931
 42.870    690.000    713.603    -23.603    619.997    707.613    626.027    619.997    619.997
 42.970    737.000    734.605      2.395    620.063    727.849    626.872    620.063    620.063
 43.070    743.962    746.677     -2.714    620.131    739.492    627.377    620.131    620.131
 43.170    733.000    744.322    -11.322    620.200    737.253    627.331    620.200    620.200
 43.270    733.000    728.844      4.156    620.271    722.385    626.786    620.271    620.271
 43.370    714.000    706.888      7.112    620.342    701.281    625.994    620.342    620.342
 43.470    710.000    684.999     25.001    620.415    680.239    625.208    620.415    620.415
 43.570    703.762    666.920     36.842    620.489    662.860    624.572    620.489    620.489
 43.670    694.386    653.810     40.577    620.564    650.260    624.129    620.564    620.564
 43.770    694.913    645.218     49.696    620.640    642.006    623.862    620.640    620.640
 43.870    643.000    639.991      3.009    620.717    636.988    623.727    620.717    620.717
 43.970    668.000    636.936     31.064    620.796    634.058    623.679    620.796    620.796
 44.070    596.820    635.143    -38.323    620.875    632.340    623.682    620.875    620.875
 44.170    616.154    634.042    -17.888    620.956    631.287    623.714    620.956    620.956
 44.270    647.548    633.323     14.224    621.037    630.600    623.763    621.037    621.037
 44.370    589.000    632.832    -43.832    621.120    630.129    623.824    621.120    621.120
 44.470    643.000    632.489     10.511    621.204    629.800    623.894    621.204    621.204
 44.570    664.000    632.255     31.745    621.288    629.574    623.971    621.288    621.288
 44.670    621.000    632.104    -11.104    621.374    629.425    624.054    621.374    621.374
 44.770    588.000    632.020    -44.020    621.461    629.340    624.142    621.461    621.461
 44.870    617.985    631.992    -14.007    621.548    629.305    624.236    621.548    621.548
 44.970    654.000    632.010     21.990    621.637    629.313    624.334    621.637    621.637
 45.070    666.000    632.068     33.932    621.727    629.358    624.437    621.727    621.727
 45.170    667.000    632.162     34.838    621.817    629.435    624.545    621.817    621.817
 45.270    652.000    632.288     19.712    621.909    629.540    624.658    621.909    621.909
 45.370    616.665    632.444    -15.779    622.001    629.671    624.775    622.001    622.001
 45.470    594.585    632.627    -38.042    622.094    629.825    624.896    622.094    622.094
 45.570    685.000    632.837     52.163    622.188    630.002    625.023    622.188    622.188
 45.670    628.000    633.073     -5.073    622.283    630.201    625.155    622.283    622.283
 45.770    621.560    633.334    -11.775    622.379    630.422    625.291    622.379    622.379
 45.870    587.087    633.623    -46.536    622.476    630.665    625.434    622.476    622.476
 45.970    644.000    633.938     10.062    622.573    630.930    625.582    622.573    622.573
 46.070    599.126    634.283    -35.158    622.671    631.218    625.736    622.671    622.671
 46.170    648.000    634.659     13.341    622.770    631.531    625.898    622.770    622.770
 46.270    677.836    635.067     42.768    622.870    631.871    626.066    622.870    622.870
 46.370    659.000    635.513     23.487    622.971    632.241    626.243    622.971    622.971
 46.470    631.939    635.999     -4.061    623.072    632.643    626.428    623.072    623.072
 46.570    606.000    636.532    -30.532    623.174    633.083    626.623    623.174    623.174
 46.670    609.607    637.118    -27.510    623.277    633.566    626.828    623.277    623.277
 46.770    666.000    637.765     28.235    623.381    634.098    627.046    623.381    623.381
 46.870    663.000    638.484     24.516    623.485    634.690    627.278    623.485    623.485
 46.970    613.000    639.293    -26.293    623.590    635.354    627.527    623.590    623.590
 47.070    623.000    640.214    -17.214    623.695    636.113    627.795    623.695    623.695
 47.170    623.000    641.290    -18.290    623.801    637.000    628.089    623.801    623.801
 47.270    643.000    642.598      0.402    623.908    638.085    628.418    623.908    623.908
 47.370    627.030    644.282    -17.252    624.016    639.494    628.801    624.016    624.016
 47.470    648.000    646.606      1.394    624.124    641.457    629.268    624.124    624.124
 47.570    666.000    649.999     16.001    624.232    644.352    629.872    624.232    624.232
 47.670    663.000    655.072      7.928    624.342    648.718    630.686    624.342    624.342
 47.770    655.000    662.539     -7.539    624.451    655.181    631.795    624.451    624.451
 47.870    637.000    672.991    -35.991    624.562    664.262    633.270    624.562    624.562
 47.970    712.000    686.535     25.465    624.673    676.052    635.127    624.673    624.673
 48.070    710.000    702.348      7.652    624.784    689.824    637.271    624.784    624.784
 48.170    719.000    718.241      0.759    624.896    703.641    639.449    624.896    624.896
 48.270    701.685    730.531    -28.846    625.008    714.252    641.235    625.008    625.008
 48.370    763.344    735.237     28.107    625.121    718.139    642.167    625.121    625.121
 48.470    740.000    730.948      9.052    625.235    714.051    642.084    625.235    625.235
 48.570    687.045    720.265    -33.220    625.348    704.274    641.301    625.348    625.348
 48.670    719.557    707.471     12.086    625.463    692.577    640.327    625.463    625.463
 48.770    677.000    695.902    -18.902    625.577    681.891    639.566    625.577    625.577
 48.870    671.000    687.327    -16.327    625.693    673.764    639.241    625.693    625.693
 48.970    706.000    682.302     23.698    625.808    668.664    639.435    625.808    625.808
 49.070    645.000    680.633    -35.633    625.924    666.396    640.153    625.924    625.924
 49.170    675.000    681.819     -6.819    626.040    666.482    641.371    626.040    626.040
 49.270    700.900    685.409     15.490    626.157    668.472    643.090    626.157    626.157
 49.370    643.946    691.275    -47.329    626.274    672.160    645.384    626.274    626.274
 49.470    666.801    699.899    -33.098    626.392    677.788    648.498    626.392    626.392
 49.570    671.606    712.968    -41.362    626.509    686.426    653.045    626.509    626.509
 49.670    743.491    734.592      8.899    626.627    700.775    660.432    626.627    626.627
 49.770    793.000    773.423     19.577    626.746    726.559    673.588    626.746    626.746
 49.870    849.177    845.246      3.931    626.864    774.235    697.835    626.864    626.864
 49.970    899.000    974.267    -75.267    626.983    859.861    741.318    626.983    626.983
 50.070   1226.908   1189.742     37.166    627.102   1002.945    813.787    627.102    627.102
 50.170   1574.454   1515.813     58.641    627.221   1219.284    923.591    627.221    627.221
 50.270   1883.153   1952.597    -69.445    627.341   1509.017   1070.728    627.341    627.341
 50.370   2401.000   2457.693    -56.693    627.461   1844.087   1240.871    627.461    627.461
 50.470   2851.000   2936.438    -85.438    627.581   2161.755   1402.121    627.581    627.581
 50.570   3258.000   3255.546      2.454    627.701   2373.666   1509.550    627.701    627.701
 50.670   3225.000   3299.366    -74.366    627.822   2403.147   1524.148    627.822    627.822
 50.770   3128.000   3049.781     78.219    627.942   2238.201   1439.735    627.942    627.942
 50.870   2636.000   2602.785     33.215    628.063   1942.541   1288.561    628.063    628.063
 50.970   2148.000   2096.209     51.791    628.184   1607.678   1116.955    628.184    628.184
 51.070   1641.000   1639.065      1.935    628.305   1306.035    961.530    628.305    628.305
 51.170   1303.000   1288.076     14.924    628.426   1075.335    841.308    628.426    628.426
 51.270   1007.192   1052.975    -45.782    628.547    922.042    759.576    628.547    628.547
 51.370    938.000    913.869     24.131    628.668    832.792    709.812    628.668    628.668
 51.470    885.541    840.209     45.332    628.790    786.880    682.167    628.790    628.790
 51.570    844.756    803.849     40.907    628.911    764.877    667.924    628.911    628.911
 51.670    851.000    784.598     66.402    629.033    752.447    661.219    629.033    629.033
 51.770    774.910    771.123      3.786    629.154    741.457    658.852    629.154    629.154
 51.870    734.000    759.413    -25.413    629.276    729.384    659.329    629.276    629.276
 51.970    768.000    749.414     18.586    629.398    716.916    661.912    629.398    629.398
 52.070    777.000    741.877     35.123    629.519    705.464    665.940    629.519    629.519
 52.170    726.164    736.835    -10.670    629.641    696.034    670.443    629.641    629.641
 52.270    725.000    733.310     -8.310    629.762    689.047    674.023    629.762    629.762
 52.370    678.245    729.728    -51.483    629.884    684.469    675.137    629.884    629.884
 52.470    698.000    724.970    -26.970    630.006    682.012    672.959    630.006    630.006
 52.570    715.000    719.221     -4.221    630.127    681.322    668.023    630.127    630.127
 52.670    714.000    713.621      0.379    630.248    682.142    661.725    630.248    630.248
 52.770    723.000    709.480     13.520    630.370    684.425    655.424    630.370    630.370
 52.870    744.000    707.973     36.027    630.491    688.446    650.020    630.491    630.491
 52.970    697.000    710.272    -13.272    630.612    694.965    645.921    630.612    630.612
 53.070    705.234    717.885    -12.650    630.733    705.458    643.161    630.733    630.733
 53.170    754.555    733.074     21.481    630.854    722.361    641.568    630.854    630.854
 53.270    819.000    759.128     59.872    630.975    749.184    640.919    630.975    630.975
 53.370    854.423    800.134     54.289    631.095    790.198    641.029    631.095    631.095
 53.470    852.000    859.991     -7.991    631.215    849.504    641.702    631.215    631.215
 53.570    914.321    941.101    -26.780    631.336    929.397    643.040    631.336    631.336
 53.670    984.000   1041.681    -57.681    631.456   1028.218    644.922    631.456    631.456
 53.770   1125.905   1153.613    -27.708    631.576   1138.093    647.103    631.576    631.576
 53.870   1249.000   1260.490    -11.490    631.695   1242.981    649.222    631.695    631.695
 53.970   1325.000   1337.891    -12.891    631.814   1318.978    650.758    631.814    631.814
 54.070   1344.000   1361.187    -17.187    631.934   1341.973    651.190    631.934    631.934
 54.170   1363.250   1321.493     41.757    632.053   1303.264    650.329    632.053    632.053
 54.270   1213.000   1233.482    -20.482    632.171   1217.222    648.479    632.171    632.171
 54.370   1161.000   1123.466     37.534    632.290   1109.612    646.186    632.290    632.290
 54.470   1011.000   1014.147     -3.147    632.408   1002.666    643.924    632.408    632.408
 54.570    903.866    919.384    -15.519    632.525    909.957    641.980    632.525    632.525
 54.670    848.000    845.125      2.875    632.643    837.310    640.477    632.643    632.643
 54.770    814.773    791.642     23.131    632.760    784.996    639.420    632.760    632.760
 54.870    808.241    755.839     52.402    632.877    749.981    638.745    632.877    632.877
 54.970    718.720    733.315    -14.595    632.993    727.958    638.357    632.993    632.993
 55.070    699.000    719.853    -20.853    633.109    714.798    638.170    633.109    633.109
 55.170    739.000    712.177     26.823    633.225    707.291    638.115    633.225    633.225
 55.270    687.405    708.092    -20.687    633.341    703.290    638.147    633.341    633.341
 55.370    691.505    706.297    -14.792    633.456    701.519    638.238    633.456    633.456
 55.470    727.311    706.102     21.208    633.570    701.301    638.375    633.570    633.570
 55.570    702.000    707.185     -5.185    633.684    702.321    638.552    633.684    633.684
 55.670    699.000    709.439    -10.439    633.798    704.470    638.770    633.798    633.798
 55.770    746.000    712.894     33.106    633.911    707.777    639.031    633.911    633.911
 55.870    719.954    717.715      2.239    634.024    712.400    639.343    634.024    634.024
 55.970    690.000    724.259    -34.259    634.137    718.679    639.720    634.137    634.137
 56.070    714.000    733.239    -19.239    634.249    727.301    640.189    634.249    634.249
 56.170    702.000    746.041    -44.041    634.360    739.600    640.804    634.360    634.360
 56.270    724.991    765.252    -40.261    634.471    758.064    641.661    634.471    634.471
 56.370    833.534    795.384     38.150    634.582    787.035    642.930    634.582    634.582
 56.470    818.000    843.611    -25.611    634.692    833.418    644.882    634.692    634.692
 56.570    915.279    920.082     -4.803    634.801    906.979    647.895    634.801    634.801
 56.670   1007.000   1037.120    -30.120    634.910   1019.581    652.435    634.910    634.910
 56.770   1113.000   1206.676    -93.676    635.019   1182.727    658.947    635.019    635.019
 56.870   1337.000   1435.881    -98.881    635.126   1403.282    667.703    635.126    635.126
 56.970   1675.000   1721.407    -46.407    635.234   1678.047    678.576    635.234    635.234
 57.070   2042.000   2043.895     -1.895    635.341   1988.393    690.844    635.341    635.341
 57.170   2322.000   2363.728    -41.728    635.447   2296.190    703.022    635.447    635.447
 57.270   2717.000   2621.092     95.908    635.552   2543.867    712.872    635.552    635.552
 57.370   2825.000   2749.461     75.539    635.657   2667.384    717.900    635.657    635.657
 57.470   2729.437   2708.789     20.648    635.762   2628.176    716.608    635.762    635.762
 57.570   2490.054   2513.424    -23.370    635.865   2440.026    709.536    635.865    635.865
 57.670   2278.000   2220.775     57.225    635.968   2158.178    698.842    635.968    635.968
 57.770   1950.244   1896.487     53.757    636.071   1845.814    686.995    636.071    636.071
 57.870   1585.667   1591.131     -5.464    636.173   1551.606    675.907    636.173    636.173
 57.970   1304.893   1334.485    -29.592    636.274   1304.190    666.731    636.274    636.274
 58.070   1202.768   1138.015     64.753    636.374   1114.540    659.965    636.374    636.374
 58.170    995.000   1000.010     -5.010    636.474    980.888    655.675    636.474    636.474
 58.270    922.000    911.544     10.456    636.573    894.421    653.746    636.573    636.573
 58.370    875.000    861.837     13.163    636.671    844.418    654.119    636.671    636.671
 58.470    891.000    841.884     49.116    636.769    821.748    656.917    636.769    636.769
 58.570    858.520    845.945     12.575    636.866    820.367    662.441    636.866    636.866
 58.670    862.241    871.223     -8.982    636.962    837.157    671.013    636.962    636.962
 58.770    926.000    916.434      9.566    637.057    870.762    682.704    637.057    637.057
 58.870    971.672    979.974     -8.302    637.152    920.047    697.045    637.152    637.152
 58.970   1109.516   1058.212     51.303    637.246    982.624    712.795    637.246    637.246
 59.070   1081.106   1144.366    -63.260    637.339   1053.769    727.898    637.339    637.339
 59.170   1246.000   1228.786     17.214    637.431   1126.380    739.808    637.431    637.431
 59.270   1276.805   1301.542    -24.737    637.523   1192.650    746.401    637.523    637.523
 59.370   1357.902   1355.623      2.279    637.614   1246.289    746.952    637.614    637.614
 59.470   1285.000   1387.144   -102.144    637.704   1282.711    742.159    637.704    637.704
 59.570   1440.878   1393.679     47.199    637.793   1298.201    733.308    637.793    637.793
 59.670   1364.503   1375.755    -11.252    637.881   1291.928    721.754    637.881    637.881
 59.770   1357.439   1340.516     16.923    637.968   1269.566    708.961    637.968    637.968
 59.870   1299.000   1301.165     -2.165    638.055   1242.824    696.422    638.055    638.055
 59.970   1320.858   1271.615     49.243    638.141   1224.479    685.272    638.141    638.141
 60.070   1240.428   1261.812    -21.384    638.226   1223.934    676.060    638.226    638.226
 60.170   1350.000   1276.722     73.278    638.310   1246.110    668.833    638.310    638.310
 60.270   1376.000   1317.827     58.173    638.393   1292.712    663.372    638.393    638.393
 60.370   1445.160   1383.695     61.465    638.475   1362.594    659.393    638.475    638.475
 60.470   1443.821   1467.611    -23.790    638.556   1449.320    656.623    638.556    638.556
 60.570   1498.000   1554.901    -56.901    638.637   1538.480    654.807    638.637    638.637
 60.670   1640.000   1623.286     16.714    638.716   1608.019    653.725    638.716    638.716
 60.770   1679.000   1648.467     30.533    638.794   1633.813    653.208    638.794    638.794
 60.870   1598.000   1615.335    -17.335    638.872   1600.870    653.136    638.872    638.872
 60.970   1538.000   1527.088     10.912    638.949   1512.448    653.436    638.949    638.949
 61.070   1419.708   1402.432     17.275    639.024   1387.277    654.073    639.024    639.024
 61.170   1180.000   1264.785    -84.785    639.099   1248.760    655.056    639.099    639.099
 61.270   1163.331   1133.926     29.405    639.173   1116.608    656.449    639.173    639.173
 61.370   1084.000   1023.050     60.950    639.246   1003.853    658.416    639.246    639.246
 61.470    977.545    938.948     38.597    639.317    916.966    661.279    639.317    639.317
 61.570    831.975    883.612    -51.636    639.388    857.371    665.609    639.388    639.388
 61.670    906.621    856.515     50.106    639.458    823.615    672.331    639.458    639.458
 61.770    838.000    856.876    -18.876    639.526    813.557    682.807    639.526    639.526
 61.870    909.000    885.194     23.806    639.594    825.912    698.821    639.594    639.594
 61.970    982.000    943.547     38.453    639.661    860.744    722.385    639.661    639.661
 62.070   1045.905   1034.549     11.355    639.726    918.860    755.308    639.726    639.726
 62.170   1136.000   1159.207    -23.207    639.791   1000.331    798.527    639.791    639.791
 62.270   1374.082   1314.274     59.808    639.854   1102.636    851.321    639.854    639.854
 62.370   1437.658   1489.807    -52.150    639.917   1218.930    910.594    639.917    639.917
 62.470   1597.000   1667.534    -70.534    639.978   1336.891    970.406    639.978    639.978
 62.570   1908.000   1820.885     87.115    640.038   1438.692   1022.021    640.038    640.038
 62.670   1909.000   1918.935     -9.935    640.098   1503.613   1055.236    640.098    640.098
 62.770   1877.000   1936.911    -59.911    640.156   1515.054   1061.871    640.156    640.156
 62.870   1868.000   1869.446     -1.446    640.213   1469.403   1040.162    640.213    640.213
 62.970   1722.000   1734.187    -12.187    640.269   1378.443    995.960    640.269    640.269
 63.070   1604.000   1561.251     42.749    640.323   1262.309    939.243    640.323    640.323
 63.170   1428.000   1379.948     48.052    640.377   1140.598    879.724    640.377    640.377
 63.270   1183.000   1212.019    -29.019    640.429   1027.847    824.608    640.429    640.429
 63.370   1103.000   1070.425     32.575    640.481    932.722    778.193    640.481    640.481
 63.470    930.000    960.164    -30.164    640.531    858.562    742.142    640.531    640.531
 63.570    887.000    880.300      6.700    640.580    804.737    716.147    640.580    640.580
 63.670    826.000    826.321     -0.321    640.628    768.230    698.720    640.628    640.628
 63.770    798.000    792.419      5.581    640.674    745.158    687.933    640.674    640.674
 63.870    780.597    773.198      7.399    640.720    731.916    681.997    640.720    640.720
 63.970    789.778    764.677     25.101    640.764    725.840    679.592    640.764    640.764
 64.070    847.000    764.671     82.329    640.807    725.448    680.019    640.807    640.807
 64.170    735.253    772.804    -37.550    640.849    730.401    683.236    640.849    640.849
 64.270    769.700    790.321    -20.622    640.890    741.328    689.861    640.890    640.890
 64.370    794.000    819.779    -25.779    640.929    759.527    701.150    640.929    640.929
 64.470    828.000    864.551    -36.551    640.967    786.578    718.897    640.967    640.967
 64.570    911.458    928.083    -16.624    641.004    823.811    745.218    641.004    641.004
 64.670   1034.000   1012.831     21.169    641.040    871.684    782.109    641.040    641.040
 64.770   1125.401   1118.956      6.444    641.075    929.114    830.820    641.075    641.075
 64.870   1214.000   1242.941    -28.941    641.108    992.854    891.080    641.108    641.108
 64.970   1358.000   1376.392    -18.392    641.140   1057.049    960.355    641.140    641.140
 65.070   1529.000   1505.574     23.426    641.171   1113.338   1033.276    641.171    641.171
 65.170   1635.000   1612.686     22.314    641.200   1152.340   1101.425    641.200    641.200
 65.270   1698.000   1679.679     18.321    641.228   1166.861   1153.949    641.228    641.228
 65.370   1748.000   1693.815     54.185    641.255   1154.999   1180.010    641.255    641.255
 65.470   1717.000   1652.660     64.340    641.281   1120.686   1173.234    641.281    641.281
 65.570   1532.569   1565.581    -33.013    641.305   1071.644   1135.257    641.305    641.305
 65.670   1424.000   1449.891    -25.891    641.328   1016.514   1074.746    641.328    641.328
 65.770   1379.000   1324.108     54.892    641.350    962.519   1002.997    641.350    641.350
 65.870   1170.000   1202.924    -32.924    641.370    914.269    930.092    641.370    641.370
 65.970   1037.000   1095.436    -58.436    641.389    873.625    863.268    641.389    641.389
 66.070    987.313   1005.591    -18.278    641.407    840.342    806.720    641.407    641.407
 66.170    914.086    933.685    -19.599    641.423    813.169    761.997    641.423    641.423
 66.270    885.000    878.043      6.957    641.438    790.871    728.658    641.438    641.438
 66.370    864.839    836.195     28.644    641.452    772.644    705.041    641.452    641.452
 66.470    767.590    805.488    -37.898    641.464    758.002    688.979    641.464    641.464
 66.570    710.000    783.439    -73.439    641.475    746.587    678.349    641.475    641.475
 66.670    792.502    767.978     24.524    641.485    738.101    671.378    641.485    641.485
 66.770    776.342    757.552     18.790    641.493    732.305    666.752    641.493    641.493
 66.870    703.000    751.096    -48.096    641.500    729.022    663.583    641.500    641.500
 66.970    701.189    747.954    -46.765    641.505    728.147    661.319    641.505    641.505
 67.070    732.699    747.817    -15.118    641.510    729.695    659.638    641.510    641.510
 67.170    704.100    750.749    -46.649    641.512    733.902    658.365    641.512    641.512
 67.270    775.000    757.296     17.704    641.514    741.393    657.422    641.514    641.514
 67.370    740.000    768.687    -28.687    641.513    753.413    656.794    641.513    641.513
 67.470    793.000    787.097      5.903    641.512    772.100    656.514    641.512    641.512
 67.570    735.000    815.905    -80.905    641.509    800.750    656.669    641.509    641.509
 67.670    846.000    859.858    -13.858    641.505    843.975    657.391    641.505    641.505
 67.770    937.000    924.953     12.047    641.499    907.596    658.858    641.499    641.499
 67.870   1030.423   1017.873     12.549    641.492    998.096    661.271    641.492    641.492
 67.970   1110.000   1144.832    -34.832    641.483   1121.504    664.818    641.483    641.483
 68.070   1360.000   1309.856     50.144    641.473   1281.727    669.619    641.473    641.473
 68.170   1453.000   1512.721    -59.721    641.462   1478.558    675.660    641.462    641.462
 68.270   1686.000   1746.912    -60.912    641.449   1705.696    682.731    641.449    641.449
 68.370   1937.173   1997.967    -60.794    641.434   1949.144    690.368    641.434    641.434
 68.470   2183.000   2242.536    -59.536    641.418   2186.295    697.828    641.418    641.418
 68.570   2471.000   2449.021     21.979    641.401   2386.554    704.106    641.401    641.401
 68.670   2550.000   2582.173    -32.173    641.382   2515.782    708.083    641.382    641.382
 68.770   2666.000   2613.936     52.064    641.362   2546.803    708.865    641.362    641.362
 68.870   2555.000   2536.722     18.278    641.340   2472.255    706.212    641.340    641.340
 68.970   2384.000   2367.859     16.141    641.317   2308.916    700.669    641.317    641.317
 69.070   2114.340   2140.299    -25.959    641.293   2088.695    693.279    641.293    641.293
 69.170   1943.000   1888.915     54.085    641.266   1845.374    685.146    641.266    641.266
 69.270   1701.000   1642.147     58.853    641.239   1606.500    677.170    641.239    641.239
 69.370   1441.000   1419.515     21.485    641.210   1390.984    669.970    641.210    641.210
 69.470   1241.748   1231.914      9.834    641.179   1209.381    663.888    641.179    641.179
 69.570   1161.000   1082.923     78.077    641.147   1065.168    659.033    641.147    641.147
 69.670   1041.000    970.676     70.324    641.113    956.530    655.354    641.113    641.113
 69.770    941.000    889.933     51.067    641.078    878.394    652.684    641.078    641.078
 69.870    877.000    834.046     42.954    641.041    824.327    650.808    641.041    641.041
 69.970    786.258    796.454    -10.196    641.003    787.972    649.519    641.003    641.003
 70.070    752.765    771.573    -18.809    640.963    763.922    648.639    640.963    640.963
 70.170    799.000    755.139     43.861    640.922    748.046    648.034    640.922    640.922
 70.270    779.000    744.167     34.833    640.879    737.453    647.607    640.879    640.879
 70.370    732.000    736.718     -4.718    640.835    730.266    647.298    640.835    640.835
 70.470    776.219    731.610     44.609    640.789    725.339    647.069    640.789    640.789
 70.570    710.000    728.162    -18.162    640.742    722.012    646.899    640.742    640.742
 70.670    795.000    726.011     68.989    640.693    719.933    646.776    640.693    640.693
 70.770    757.942    724.996     32.945    640.642    718.945    646.698    640.642    640.642
 70.870    696.000    725.101    -29.101    640.590    719.031    646.663    640.590    640.590
 70.970    723.323    726.450     -3.127    640.537    720.309    646.678    640.537    640.537
 71.070    704.000    729.345    -25.345    640.482    723.067    646.757    640.482    640.482
 71.170    784.166    734.342     49.824    640.425    727.840    646.923    640.425    640.425
 71.270    803.000    742.372     60.628    640.367    735.517    647.215    640.367    640.367
 71.370    767.000    754.881     12.119    640.307    747.484    647.692    640.307    640.307
 71.470    769.000    773.972     -4.972    640.245    765.755    648.443    640.245    640.245
 71.570    780.090    802.487    -22.397    640.183    793.056    649.586    640.183    640.183
 71.670    797.000    843.964    -46.964    640.118    832.774    651.268    640.118    640.118
 71.770    925.000    902.363     22.637    640.052    888.707    653.652    640.052    640.052
 71.870   1038.491    981.527     56.964    639.984    964.536    656.899    639.984    639.984
 71.970   1083.000   1084.345     -1.345    639.915   1063.030    661.130    639.915    639.915
 72.070   1137.000   1211.718    -74.718    639.844   1185.054    666.383    639.844    639.844
 72.170   1354.000   1361.477     -7.477    639.772   1328.527    672.570    639.772    639.772
 72.270   1488.000   1527.425    -39.425    639.698   1487.510    679.438    639.698    639.698
 72.370   1761.000   1698.638     62.362    639.622   1651.531    686.538    639.622    639.622
 72.470   1914.920   1859.229     55.691    639.545   1805.360    693.216    639.545    639.545
 72.570   1981.170   1989.235     -8.065    639.466   1929.859    698.651    639.466    639.466
 72.670   2003.000   2067.962    -64.962    639.386   2005.187    701.993    639.386    639.386
 72.770   2069.000   2080.415    -11.415    639.304   2016.961    702.623    639.304    639.304
 72.870   1975.786   2023.922    -48.136    639.221   1962.610    700.434    639.221    639.221
 72.970   1886.000   1909.550    -23.550    639.136   1852.737    695.884    639.136    639.136
 73.070   1733.563   1756.861    -23.298    639.049   1706.095    689.778    639.049    639.049
 73.170   1655.590   1586.720     68.870    638.961   1542.694    682.971    638.961    638.961
 73.270   1389.000   1416.691    -27.691    638.871   1379.385    676.174    638.871    638.871
 73.370   1247.001   1259.449    -12.447    638.779   1228.344    669.888    638.779    638.779
 73.470   1118.000   1122.769     -4.769    638.686   1097.052    664.412    638.686    638.686
 73.570    972.000   1010.116    -38.116    638.591    988.852    659.864    638.591    638.591
 73.670    876.698    921.541    -44.843    638.495    903.806    656.237    638.495    638.495
 73.770    840.000    854.755    -14.755    638.397    839.707    653.450    638.397    638.397
 73.870    805.000    806.194     -1.194    638.298    793.111    651.385    638.298    638.298
 73.970    808.000    771.934     36.066    638.196    760.213    649.920    638.196    638.196
 74.070    801.506    748.324     53.182    638.094    737.472    648.948    638.094    638.094
 74.170    756.000    732.350     23.650    637.989    721.951    648.390    637.989    637.989
 74.270    719.000    721.742     -2.742    637.883    711.435    648.193    637.883    637.883
 74.370    750.575    714.927     35.648    637.776    704.373    648.335    637.776    637.776
 74.470    714.000    710.884      3.116    637.667    699.751    648.808    637.667    637.667
 74.570    724.000    708.976     15.024    637.556    696.931    649.612    637.556    637.556
 74.670    717.000    708.794      8.206    637.443    695.511    650.741    637.443    637.443
 74.770    747.000    710.028     36.972    637.329    695.205    652.172    637.329    637.329
 74.870    686.928    712.377    -25.450    637.214    695.763    653.854    637.214    637.214
 74.970    764.452    715.484     48.967    637.097    696.913    655.699    637.097    637.097
 75.070    732.000    718.897     13.103    636.978    698.330    657.583    636.978    636.978
 75.170    735.922    722.064     13.858    636.857    699.623    659.342    636.857    636.857
 75.270    715.000    724.376     -9.376    636.735    700.366    660.794    636.735    636.735
 75.370    693.849    725.311    -31.462    636.611    700.186    661.787    636.611    636.611
 75.470    750.640    724.629     26.011    636.486    698.899    662.266    636.486    636.486
 75.570    764.530    722.521     42.008    636.359    696.600    662.328    636.359    636.359
 75.670    745.000    719.578     25.422    636.231    693.638    662.214    636.231    636.231
 75.770    742.404    716.634     25.770    636.101    690.505    662.267    636.101    636.101
 75.870    701.000    714.631    -13.631    635.969    687.733    662.895    635.969    635.969
 75.970    660.019    714.554    -54.534    635.835    685.849    664.562    635.835    635.835
 76.070    733.000    717.431     15.569    635.700    685.363    667.782    635.700    635.700
 76.170    761.953    724.328     37.625    635.564    686.770    673.128    635.564    635.564
 76.270    751.000    736.314     14.686    635.426    690.539    681.198    635.426    635.426
 76.370    722.000    754.378    -32.378    635.286    697.086    692.567    635.286    635.286
 76.470    792.562    779.289     13.272    635.144    706.716    707.698    635.144    635.144
 76.570    839.429    811.413     28.016    635.001    719.557    726.828    635.001    635.001
 76.670    823.632    850.494    -26.863    634.857    735.472    749.842    634.857    634.857
 76.770    910.000    895.451     14.549    634.711    753.971    776.145    634.711    634.711
 76.870    945.000    944.209      0.791    634.563    774.155    804.564    634.563    634.563
 76.970   1051.000    993.577     57.423    634.413    794.652    833.281    634.413    634.413
 77.070   1095.057   1039.237     55.819    634.262    813.618    859.823    634.262    634.262
 77.170   1045.000   1076.009    -31.009    634.110    828.847    881.216    634.110    634.110
 77.270   1144.000   1098.654     45.346    633.956    838.110    894.449    633.956    633.956
 77.370   1095.451   1103.330     -7.879    633.800    839.774    897.314    633.800    633.800
 77.470   1132.728   1089.096     43.632    633.642    833.436    889.270    633.642    633.642
 77.570   1012.233   1058.346    -46.113    633.483    820.108    871.698    633.483    633.483
 77.670   1034.000   1015.773     18.227    633.323    801.777    847.303    633.323    633.323
 77.770    951.000    966.727    -15.727    633.161    780.710    819.169    633.161    633.161
 77.870    910.354    916.015     -5.661    632.997    758.942    790.066    632.997    632.997
 77.970    881.390    867.377     14.012    632.832    738.059    762.149    632.832    632.832
 78.070    810.000    823.393    -13.393    632.665    719.153    736.907    632.665    632.665
 78.170    780.000    785.553     -5.553    632.496    702.854    715.197    632.496    632.496
 78.270    802.000    754.413     47.587    632.326    689.398    697.344    632.326    632.326
 78.370    723.000    729.799     -6.799    632.155    678.710    683.246    632.155    632.155
 78.470    676.000    711.038    -35.038    631.981    670.505    672.517    631.981    631.981
 78.570    688.000    697.192     -9.192    631.807    664.382    664.618    631.807    631.807
 78.670    695.000    687.245      7.755    631.630    659.911    658.965    631.630    631.630
 78.770    703.000    680.251     22.749    631.453    656.691    655.013    631.453    631.453
 78.870    658.000    675.407    -17.407    631.273    654.378    652.302    631.273    631.273
 78.970    686.666    672.086     14.580    631.092    652.707    650.471    631.092    631.092
 79.070    640.000    669.830    -29.830    630.910    651.482    649.258    630.910    630.910
 79.170    653.581    668.327    -14.746    630.725    650.570    648.482    630.725    630.725
 79.270    702.995    667.376     35.619    630.540    649.885    648.031    630.540    630.540
 79.370    680.000    666.863     13.137    630.353    649.376    647.840    630.353    630.353
 79.470    614.666    666.735    -52.069    630.164    649.019    647.880    630.164    630.164
 79.570    667.000    666.988      0.012    629.974    648.807    648.154    629.974    629.974
 79.670    674.601    667.660      6.941    629.782    648.750    648.692    629.782    629.782
 79.770    621.000    668.834    -47.834    629.589    648.866    649.556    629.589    629.589
 79.870    655.000    670.650    -15.650    629.394    649.188    650.855    629.394    629.394
 79.970    644.000    673.322    -29.322    629.197    649.757    652.761    629.197    629.197
 80.070    642.622    677.171    -34.549    628.999    650.631    655.537    628.999    628.999
 80.170    628.000    682.657    -54.657    628.800    651.880    659.573    628.800    628.800
 80.270    691.000    690.426      0.574    628.599    653.600    665.419    628.599    628.599
 80.370    647.753    701.343    -53.589    628.397    655.909    673.823    628.397    628.397
 80.470    695.341    716.515    -21.174    628.193    658.956    685.742    628.193    628.193
 80.570    716.000    737.270    -21.270    627.987    662.921    702.324    627.987    627.987
 80.670    790.000    765.088     24.912    627.781    668.010    724.841    627.781    627.781
 80.770    834.963    801.453     33.510    627.572    674.446    754.558    627.572    627.572
 80.870    907.000    847.652     59.348    627.362    682.453    792.538    627.362    627.362
 80.970    929.731    904.527     25.204    627.151    692.243    839.410    627.151    627.151
 81.070    945.415    972.192    -26.777    626.938    703.999    895.105    626.938    626.938
 81.170    979.000   1049.746    -70.746    626.724    717.834    958.613    626.724    626.724
 81.270   1243.000   1135.003    107.997    626.508    733.727   1027.767    626.508    626.508
 81.370   1300.000   1224.302     75.698    626.291    751.446   1099.140    626.291    626.291
 81.470   1367.673   1312.512     55.161    626.072    770.498   1168.093    626.072    626.072
 81.570   1468.334   1393.343     74.990    625.852    790.129   1229.093    625.852    625.852
 81.670   1566.000   1460.131    105.869    625.631    809.382   1276.427    625.631    625.631
 81.770   1675.000   1507.028    167.972    625.408    827.233   1305.273    625.408    625.408
 81.870   1568.614   1530.206     38.408    625.183    842.728   1312.754    625.183    625.183
 81.970   1547.000   1528.440     18.560    624.957    855.082   1298.428    624.957    624.957
 82.070   1662.000   1503.048    158.952    624.730    863.774   1264.133    624.730    624.730
 82.170   1614.000   1457.449    156.551    624.501    868.585   1213.506    624.501    624.501
 82.270   1494.000   1396.421     97.579    624.271    869.481   1151.359    624.271    624.271
 82.370   1316.353   1325.423     -9.070    624.040    866.590   1083.024    624.040    624.040
 82.470   1283.000   1249.684     33.316    623.807    860.075   1013.565    623.807    623.807
 82.570   1206.000   1173.606     32.394    623.573    850.159    947.163    623.573    623.573
 82.670   1055.337   1100.593    -45.256    623.337    837.256    886.808    623.337    623.337
 82.770   1026.000   1033.089     -7.089    623.100    822.043    834.270    623.100    623.100
 82.870    932.000    972.612    -40.612    622.861    805.356    790.229    622.861    622.861
 82.970    891.000    919.779    -28.779    622.622    787.988    754.512    622.622    622.622
 83.070    784.000    874.458    -90.458    622.380    770.573    726.353    622.380    622.380
 83.170    878.596    836.054     42.542    622.138    753.595    704.673    622.138    622.138
 83.270    832.049    803.814     28.235    621.894    737.469    688.304    621.894    621.894
 83.370    757.000    777.041    -20.041    621.649    722.591    676.153    621.649    621.649
 83.470    719.895    755.175    -35.280    621.402    709.326    667.295    621.402    621.402
 83.570    701.000    737.781    -36.781    621.154    697.971    660.998    621.154    621.154
 83.670    773.339    724.514     48.825    620.905    688.727    656.716    620.905    620.905
 83.770    671.374    715.086    -43.711    620.655    681.693    654.061    620.655    620.655
 83.870    644.000    709.223    -65.223    620.403    676.869    652.761    620.403    620.403
 83.970    676.000    706.632    -30.632    620.150    674.162    652.615    620.150    620.150
 84.070    717.000    706.956     10.044    619.895    673.387    653.451    619.895    619.895
 84.170    706.000    709.746     -3.746    619.640    674.271    655.092    619.640    619.640
 84.270    700.000    714.439    -14.439    619.383    676.458    657.333    619.383    619.383
 84.370    672.000    720.351    -48.351    619.125    679.511    659.927    619.125    619.125
 84.470    657.000    726.686    -69.686    618.865    682.932    662.576    618.865    618.865
 84.570    752.508    732.561     19.947    618.604    686.171    664.947    618.604    618.604
 84.670    672.000    737.065    -65.065    618.342    688.672    666.685    618.342    618.342
 84.770    790.691    739.379     51.312    618.079    689.935    667.473    618.079    618.079
 84.870    730.000    738.937     -8.937    617.815    689.612    667.090    617.815    617.815
 84.970    697.359    735.573    -38.214    617.549    687.597    665.479    617.549    617.549
 85.070    707.176    729.549    -22.374    617.282    684.030    662.760    617.282    617.282
 85.170    672.000    721.457    -49.457    617.014    679.245    659.190    617.014    617.014
 85.270    667.000    712.043    -45.043    616.745    673.666    655.090    616.745    616.745
 85.370    734.895    702.061     32.834    616.474    667.722    650.787    616.474    616.474
 85.470    659.000    692.183    -33.183    616.203    661.785    646.578    616.203    616.203
 85.570    695.000    682.958     12.042    615.930    656.156    642.713    615.930    615.930
 85.670    636.648    674.805    -38.156    615.656    651.051    639.394    615.656    615.656
 85.770    679.000    668.008     10.992    615.381    646.602    636.773    615.381    615.381
 85.870    655.000    662.739     -7.739    615.104    642.872    634.960    615.104    615.104
 85.970    654.000    659.069     -5.069    614.827    639.860    634.026    614.827    614.827
 86.070    700.000    656.996     43.004    614.548    637.524    634.009    614.548    614.548
 86.170    611.456    656.463    -45.007    614.269    635.799    634.920    614.269    614.269
 86.270    658.000    657.376      0.624    613.988    634.611    636.740    613.988    613.988
 86.370    667.767    659.617      8.150    613.706    633.893    639.414    613.706    613.706
 86.470    641.000    663.044    -22.044    613.423    633.599    642.850    613.423    613.423
 86.570    663.000    667.495     -4.495    613.139    633.706    646.907    613.139    613.139
 86.670    707.000    672.785     34.215    612.854    634.223    651.392    612.854    612.854
 86.770    688.000    678.704      9.296    612.568    635.192    656.053    612.568    612.568
 86.870    691.000    685.018      5.982    612.281    636.688    660.580    612.281    612.281
 86.970    685.022    691.471     -6.449    611.993    638.814    664.614    611.993    611.993
 87.070    657.886    697.809    -39.924    611.703    641.697    667.777    611.703    611.703
 87.170    716.000    703.821     12.179    611.413    645.474    669.716    611.413    611.413
 87.270    698.320    709.393    -11.073    611.122    650.281    670.184    611.122    611.122
 87.370    685.000    714.561    -29.561    610.830    656.230    669.104    610.830    610.830
 87.470    715.000    719.503     -4.503    610.536    663.391    666.585    610.536    610.536
 87.570    668.512    724.471    -55.959    610.242    671.760    662.882    610.242    610.242
 87.670    696.711    729.694    -32.983    609.947    681.237    658.323    609.947    609.947
 87.770    799.000    735.283     63.717    609.651    691.604    653.239    609.651    609.651
 87.870    726.000    741.188    -15.188    609.354    702.511    647.929    609.354    609.354
 87.970    711.849    747.164    -35.315    609.056    713.463    642.646    609.056    609.056
 88.070    775.385    752.784     22.601    608.757    723.829    637.592    608.757    608.757
 88.170    709.336    757.458    -48.122    608.457    732.870    632.919    608.457    608.457
 88.270    790.000    760.520     29.480    608.156    739.822    628.725    608.156    608.156
 88.370    817.150    761.360     55.790    607.855    744.029    625.058    607.855    607.855
 88.470    734.949    759.609    -24.660    607.552    745.117    621.921    607.552    607.552
 88.570    757.000    755.257      1.743    607.249    743.104    619.287    607.249    607.249
 88.670    725.573    748.661    -23.088    606.945    738.395    617.107    606.945    606.945
 88.770    726.000    740.440    -14.440    606.640    731.665    615.325    606.640    606.640
 88.870    698.000    731.328    -33.328    606.334    723.707    613.879    606.334    606.334
 88.970    757.000    722.064     34.936    606.027    715.317    612.713    606.027    606.027
 89.070    672.000    713.332    -41.332    605.719    707.227    611.778    605.719    605.719
 89.170    700.000    705.715     -5.715    605.411    700.062    611.031    605.411    605.411
 89.270    727.000    699.667     27.333    605.102    694.311    610.438    605.102    605.102
 89.370    706.789    695.484     11.305    604.792    690.298    609.970    604.792    604.792
 89.470    766.000    693.290     72.710    604.482    688.172    609.602    604.482    604.482
 89.570    672.000    693.038    -21.038    604.170    687.906    609.315    604.170    604.170
 89.670    736.340    694.516     41.824    603.858    689.308    609.088    603.858    603.858
 89.770    716.000    697.365     18.635    603.546    692.040    608.902    603.546    603.546
 89.870    709.000    701.101      7.899    603.232    695.637    608.736    603.232    603.232
 89.970    718.916    705.142     13.774    602.918    699.539    608.569    602.918    602.918
 90.070    684.128    708.844    -24.716    602.603    703.123    608.379    602.603    602.603
 90.170    666.185    711.560    -45.375    602.288    705.765    608.143    602.288    602.288
 90.270    756.000    712.729     43.271    601.971    706.921    607.844    601.971    601.971
 90.370    725.000    711.972     13.028    601.655    706.224    607.470    601.655    601.655
 90.470    717.000    709.166      7.834    601.337    703.554    607.017    601.337    601.337
 90.570    743.000    704.464     38.536    601.019    699.056    606.494    601.019    601.019
 90.670    724.000    698.225     25.775    600.701    693.074    605.913    600.701    600.701
 90.770    697.375    690.915      6.460    600.381    686.060    605.294    600.381    600.381
 90.870    667.000    683.021    -16.021    600.062    678.480    604.654    600.062    600.062
 90.970    695.000    674.987     20.013    599.741    670.763    604.010    599.741    599.741
 91.070    673.396    667.186      6.210    599.421    663.269    603.377    599.421    599.421
 91.170    632.000    659.909    -27.909    599.099    656.277    602.765    599.099    599.099
 91.270    644.713    653.363     -8.650    598.777    649.986    602.181    598.777    598.777
 91.370    686.176    647.671     38.505    598.455    644.517    601.630    598.455    598.455
 91.470    693.798    642.890     50.908    598.132    639.923    601.115    598.132    598.132
 91.570    676.651    639.017     37.634    597.809    636.203    600.635    597.809    597.809
 91.670    607.000    636.009    -29.009    597.485    633.315    600.189    597.485    597.485
 91.770    601.000    633.800    -32.800    597.161    631.194    599.773    597.161    597.161
 91.870    622.000    632.316    -10.316    596.836    629.769    599.387    596.836    596.836
 91.970    632.000    631.492      0.508    596.511    628.978    599.027    596.511    596.511
 92.070    609.000    631.281    -22.281    596.186    628.775    598.691    596.186    596.186
 92.170    655.000    631.664     23.336    595.860    629.143    598.379    595.860    595.860
 92.270    657.000    632.656     24.344    595.534    630.094    598.093    595.534    595.534
 92.370    585.000    634.309    -49.309    595.207    631.678    597.833    595.207    595.207
 92.470    640.709    636.706      4.003    594.880    633.975    597.604    594.880    594.880
 92.570    674.995    639.964     35.031    594.553    637.099    597.409    594.553    594.553
 92.670    595.000    644.226    -49.226    594.226    641.186    597.254    594.226    594.226
 92.770    649.000    649.650     -0.650    593.898    646.389    597.144    593.898    593.898
 92.870    645.000    656.397    -11.397    593.570    652.863    597.084    593.570    593.570
 92.970    681.000    664.618     16.382    593.242    660.756    597.080    593.242    593.242
 93.070    710.000    674.439     35.561    592.913    670.189    597.135    592.913    592.913
 93.170    731.000    685.943     45.057    592.585    681.244    597.249    592.585    592.585
 93.270    719.057    699.156     19.902    592.256    693.948    597.423    592.256    592.256
 93.370    704.000    714.034    -10.034    591.927    708.259    597.654    591.927    591.927
 93.470    706.000    730.452    -24.452    591.597    724.057    597.938    591.597    591.597
 93.570    756.000    748.196      7.804    591.268    741.134    598.270    591.268    591.268
 93.670    714.791    766.961    -52.170    590.938    759.188    598.644    590.938    590.938
 93.770    782.000    786.355     -4.355    590.609    777.833    599.058    590.609    590.609
 93.870    783.000    805.924    -22.924    590.279    796.610    599.515    590.279    590.279
 93.970    881.000    825.206     55.794    589.949    815.048    600.025    589.949    589.949
 94.070    880.858    843.881     36.977    589.619    832.802    600.613    589.619    589.619
 94.170    910.506    861.760     48.747    589.289    849.640    601.322    589.289    589.289
 94.270    862.000    878.908    -16.908    588.959    865.565    602.216    588.959    588.959
 94.370    922.446    895.601     26.845    588.629    880.771    603.373    588.629    588.629
 94.470    921.000    912.212      8.788    588.299    895.544    604.881    588.299    588.299
 94.570    970.000    929.077     40.923    587.969    910.135    606.826    587.969    587.969
 94.670    946.000    946.385     -0.385    587.639    924.659    609.282    587.639    587.639
 94.770    910.000    964.139    -54.139    587.310    939.071    612.295    587.310    587.310
 94.870    998.951    982.182     16.769    586.980    953.203    615.878    586.980    586.980
 94.970   1039.000   1000.271     38.729    586.650    966.843    620.000    586.650    586.650
 95.070   1028.065   1018.139      9.926    586.320    979.803    624.582    586.320    586.320
 95.170   1034.000   1035.483     -1.483    585.991    991.914    629.490    585.991    585.991
 95.270   1095.746   1051.891     43.855    585.662   1002.950    634.538    585.662    585.662
 95.370   1032.828   1066.747    -33.919    585.333   1012.531    639.489    585.333    585.333
 95.470   1023.054   1079.170    -56.116    585.004   1020.055    644.066    585.004    585.004
 95.570   1153.994   1088.041     65.952    584.675   1024.707    647.965    584.675    584.675
 95.670   1051.045   1092.134    -41.089    584.346   1025.561    650.885    584.346    584.346
 95.770   1073.890   1090.335    -16.446    584.018   1021.766    652.562    584.018    584.018
 95.870   1056.000   1081.919    -25.919    583.690   1012.773    652.821    583.690    583.690
 95.970   1039.000   1066.797    -27.797    583.363    998.542    651.612    583.363    583.363
 96.070   1034.000   1045.603    -11.603    583.035    979.620    649.021    583.035    583.035
 96.170   1059.000   1019.598     39.402    582.708    957.064    645.251    582.708    582.708
 96.270   1015.000    990.462     24.538    582.381    932.278    640.579    582.381    582.381
 96.370   1010.736    960.070     50.666    582.055    906.829    635.312    582.055    582.055
 96.470   1013.000    930.313     82.687    581.729    882.306    629.753    581.729    581.729
 96.570    928.000    902.992     25.008    581.404    860.237    624.172    581.404    581.404
 96.670    906.553    879.757     26.796    581.078    842.045    618.801    581.078    581.078
 96.770    917.305    862.080     55.225    580.754    829.019    613.821    580.754    580.754
 96.870    818.067    851.229    -33.162    580.429    822.300    609.360    580.429    580.429
 96.970    876.801    848.265     28.535    580.106    822.869    605.496    580.106    580.106
 97.070    895.000    854.028     40.972    579.782    831.533    602.263    579.782    579.782
 97.170    825.491    869.123    -43.632    579.460    848.905    599.656    579.460    579.460
 97.270    947.327    893.878     53.450    579.138    875.342    597.642    579.138    579.138
 97.370    960.000    928.475     31.525    578.816    911.076    596.175    578.816    578.816
 97.470   1022.000    972.715     49.285    578.495    955.965    595.196    578.495    578.495
 97.570   1071.000   1026.046     44.954    578.175   1009.522    594.640    578.175    578.175
 97.670   1069.000   1087.548    -18.548    577.855   1070.895    594.442    577.855    577.855
 97.770   1192.739   1155.867     36.872    577.536   1138.796    594.535    577.536    577.536
 97.870   1295.222   1229.171     66.051    577.217   1211.462    594.850    577.217    577.217
 97.970   1308.000   1305.133      2.867    576.900   1286.638    595.317    576.900    576.900
 98.070   1318.208   1380.917    -62.709    576.583   1361.563    595.859    576.583    576.583
 98.170   1500.031   1453.201     46.829    576.266   1432.995    596.399    576.266    576.266
 98.270   1535.076   1518.303     16.773    575.951   1497.336    596.852    575.951    575.951
 98.370   1604.000   1572.411     31.589    575.636   1550.856    597.137    575.636    575.636
 98.470   1587.000   1611.982    -24.982    575.322   1590.086    597.180    575.322    575.322
 98.570   1680.329   1634.266     46.064    575.009   1612.333    596.922    575.009    575.009
 98.670   1649.633   1637.818     11.815    574.697   1616.181    596.334    574.697    574.697
 98.770   1642.000   1622.792     19.208    574.386   1601.780    595.417    574.386    574.386
 98.870   1654.000   1590.879     63.121    574.075   1570.787    594.205    574.075    574.075
 98.970   1622.914   1544.945     77.969    573.766   1526.011    592.752    573.766    573.766
 99.070   1529.000   1488.544     40.456    573.457   1470.936    591.128    573.457    573.457
 99.170   1414.000   1425.464    -11.464    573.150   1409.279    589.405    573.150    573.150
 99.270   1307.000   1359.410    -52.410    572.843   1344.674    587.651    572.843    572.843
 99.370   1341.637   1293.796     47.841    572.537   1280.475    585.931    572.537    572.537
 99.470   1208.000   1231.641    -23.641    572.233   1219.644    584.298    572.233    572.233
 99.570   1152.294   1175.520    -23.226    571.929   1164.714    582.798    571.929    571.929
 99.670   1092.000   1127.565    -35.565    571.627   1117.779    581.467    571.627    571.627
 99.770   1077.000   1089.488    -12.488    571.326   1080.526    580.333    571.326    571.326
 99.870   1042.968   1062.615    -19.647    571.026   1054.265    579.411    571.026    571.026
 99.970   1061.000   1047.923     13.077    570.727   1039.964    578.712    570.727    570.727
100.070   1021.000   1046.061    -25.061    570.429   1038.272    578.236    570.429    570.429
100.170   1092.000   1057.369     34.631    570.132   1049.535    577.978    570.132    570.132
100.270   1020.690   1081.887    -61.197    569.837   1073.806    577.924    569.837    569.837
100.370   1061.416   1119.366    -57.949    569.543   1110.853    578.057    569.543    569.543
100.470   1219.000   1169.260     49.740    569.250   1160.157    578.353    569.250    569.250
100.570   1212.000   1230.727    -18.727    568.958   1220.902    578.785    568.958    568.958
100.670   1307.196   1302.603      4.593    568.668   1291.957    579.319    568.668    568.668
100.770   1411.000   1383.377     27.623    568.379   1371.850    579.918    568.379    568.379
100.870   1516.000   1471.165     44.835    568.092   1458.737    580.542    568.092    568.092
100.970   1542.296   1563.693    -21.397    567.806   1550.386    581.148    567.806    567.806
101.070   1659.000   1658.303      0.697    567.521   1644.186    581.691    567.521    567.521
101.170   1805.000   1752.106     52.894    567.238   1737.289    582.127    567.238    567.238
101.270   1809.687   1842.085    -32.398    566.956   1826.719    582.418    566.956    566.956
101.370   1941.489   1925.374     16.115    566.676   1909.635    582.535    566.676    566.676
101.470   2090.000   1999.516     90.484    566.397   1983.594    582.465    566.397    566.397
101.570   2060.000   2062.609     -2.609    566.120   2046.688    582.212    566.120    566.120
101.670   2124.032   2113.277     10.755    565.845   2097.521    581.796    565.845    565.845
101.770   2199.610   2150.501     49.109    565.571   2135.038    581.251    565.571    565.571
101.870   2239.000   2173.414     65.586    565.298   2158.332    580.616    565.298    565.298
101.970   2133.794   2181.213    -47.419    565.028   2166.559    579.934    565.028    565.028
102.070   2127.000   2173.276    -46.276    564.759   2159.055    579.244    564.759    564.759
102.170   2128.000   2149.455    -21.455    564.492   2135.638    578.581    564.492    564.492
102.270   2083.000   2110.436    -27.436    564.226   2096.965    577.975    564.226    564.226
102.370   2069.000   2057.963     11.037    563.963   2044.757    577.446    563.963    563.963
102.470   2051.154   1994.788     56.366    563.701   1981.753    577.009    563.701    563.701
102.570   1862.000   1924.352    -62.352    563.441   1911.386    576.672    563.441    563.441
102.670   1881.000   1850.315     30.685    563.183   1837.322    576.429    563.183    563.183
102.770   1901.000   1776.111    124.889    562.926   1763.005    576.271    562.926    562.926
102.870   1695.000   1704.628     -9.628    562.672   1691.346    576.179    562.672    562.672
102.970   1665.812   1638.042     27.770    562.419   1624.545    576.127    562.419    562.419
103.070   1636.555   1577.759     58.796    562.169   1564.034    576.089    562.169    562.169
103.170   1428.000   1524.424    -96.424    561.920   1510.486    576.039    561.920    561.920
103.270   1486.000   1477.973      8.027    561.674   1463.864    575.952    561.674    561.674
103.370   1447.491   1437.706      9.785    561.429   1423.488    575.807    561.429    561.429
103.470   1372.000   1402.387    -30.387    561.187   1388.141    575.584    561.187    561.187
103.570   1427.010   1370.389     56.621    560.947   1356.216    575.265    560.947    560.947
103.670   1385.324   1339.897     45.427    560.709   1325.911    574.835    560.709    560.709
103.770   1209.000   1309.152   -100.152    560.473   1295.479    574.283    560.473    560.473
103.870   1286.368   1276.705      9.662    560.239   1263.475    573.604    560.239    560.239
103.970   1283.000   1241.612     41.388    560.007   1228.948    572.803    560.007    560.007
104.070   1186.000   1203.536    -17.536    559.778   1191.549    571.893    559.778    559.778
104.170   1139.327   1162.664    -23.337    559.551   1151.441    570.897    559.551    559.551
104.270   1145.675   1119.590     26.084    559.326   1109.196    569.839    559.326    559.326
104.370   1040.548   1075.144    -34.596    559.104   1065.613    568.746    559.104    559.104
104.470   1050.699   1030.243     20.456    558.884   1021.587    567.645    558.884    558.884
104.570   1034.463    985.793     48.669    558.666    977.998    566.557    558.666    558.666
104.670   1007.000    942.624     64.376    558.451    935.660    565.503    558.451    558.451
104.770    937.000    901.457     35.543    558.239    895.277    564.498    558.239    558.239
104.870    815.440    862.882    -47.442    558.028    857.429    563.552    558.028    558.028
104.970    875.000    827.348     47.652    557.821    822.557    562.674    557.821    557.821
105.070    761.900    795.155    -33.255    557.615    790.958    561.867    557.615    557.615
105.170    787.000    766.453     20.547    557.413    762.783    561.129    557.413    557.413
105.270    775.000    741.269     33.731    557.213    738.063    560.458    557.213    557.213
105.370    764.000    719.562     44.438    557.016    716.746    559.866    557.016    557.016
105.470    763.000    701.137     61.863    556.821    698.647    559.339    556.821    556.821
105.570    683.000    685.753     -2.753    556.629    683.535    558.871    556.629    556.629
105.670    743.000    673.135     69.865    556.440    671.138    558.456    556.440    556.440
105.770    730.000    662.991     67.009    556.253    661.170    558.089    556.253    556.253
105.870    635.011    655.031    -20.021    556.070    653.350    557.762    556.070    556.070
105.970    715.000    648.989     66.011    555.889    647.414    557.472    555.889    555.889
106.070    689.000    644.627     44.373    555.711    643.130    557.213    555.711    555.711
106.170    621.129    641.747    -20.618    555.536    640.304    556.982    555.536    555.536
106.270    603.000    640.192    -37.192    555.364    638.782    556.775    555.364    555.364
106.370    600.701    639.847    -39.146    555.194    638.451    556.589    555.194    555.194
106.470    632.954    640.633     -7.679    555.028    639.233    556.424    555.028    555.028
106.570    592.560    642.504    -49.943    554.865    641.085    556.277    554.865    554.865
106.670    622.409    645.440    -23.031    554.705    643.988    556.148    554.705    554.705
106.770    638.013    649.440    -11.427    554.548    647.939    556.037    554.548    554.548
106.870    668.000    654.512     13.488    554.394    652.948    555.944    554.394    554.394
106.970    660.000    660.671     -0.671    554.243    659.029    555.868    554.243    554.243
107.070    691.000    667.922     23.078    554.096    666.188    555.809    554.096    554.096
107.170    626.688    676.259    -49.572    553.951    674.419    555.767    553.951    553.951
107.270    686.555    685.653      0.902    553.810    683.694    555.743    553.810    553.810
107.370    689.000    696.043     -7.043    553.672    693.951    555.734    553.672    553.672
107.470    759.657    707.326     52.331    553.538    705.091    555.739    553.538    553.538
107.570    736.486    719.357     17.129    553.407    716.970    555.757    553.407    553.407
107.670    706.000    731.942    -25.942    553.279    729.397    555.784    553.279    553.279
107.770    744.000    744.839     -0.839    553.154    742.133    555.817    553.154    553.154
107.870    762.000    757.759      4.241    553.033    754.895    555.853    553.033    553.033
107.970    744.087    770.375    -26.288    552.916    767.360    555.885    552.916    552.916
108.070    799.000    782.329     16.671    552.802    779.174    555.910    552.802    552.802
108.170    769.000    793.251    -24.251    552.692    789.974    555.921    552.692    552.692
108.270    780.000    802.789    -22.789    552.585    799.414    555.914    552.585    552.585
108.370    803.000    810.644     -7.644    552.482    807.198    555.883    552.482    552.482
108.470    826.000    816.614      9.386    552.382    813.128    555.826    552.382    552.382
108.570    837.000    820.631     16.369    552.287    817.137    555.741    552.287    552.287
108.670    763.000    822.780    -59.780    552.195    819.311    555.628    552.195    552.195
108.770    781.929    823.294    -41.365    552.106    819.880    555.490    552.106    552.106
108.870    823.352    822.524      0.829    552.022    819.188    555.330    552.022    552.022
108.970    800.000    820.884    -20.884    551.941    817.647    555.156    551.941    551.941
109.070    811.000    818.808     -7.808    551.864    815.683    554.971    551.864    551.864
109.170    872.175    816.703     55.473    551.791    813.697    554.783    551.791    551.791
109.270    780.000    814.914    -34.914    551.723    812.032    554.596    551.723    551.723
109.370    768.000    813.708    -45.708    551.658    810.947    554.414    551.658    551.658
109.470    829.199    813.255     15.944    551.597    810.609    554.241    551.597    551.597
109.570    777.000    813.623    -36.623    551.540    811.085    554.080    551.540    551.540
109.670    774.552    814.777    -40.224    551.487    812.337    553.933    551.487    551.487
109.770    752.000    816.576    -64.576    551.438    814.224    553.800    551.438    551.438
109.870    788.000    818.785    -30.785    551.394    816.511    553.682    551.394    551.394
109.970    865.767    821.079     44.687    551.354    818.874    553.576    551.354    551.354
110.070    836.640    823.069     13.572    551.318    820.925    553.481    551.318    551.318
110.170    815.000    824.326     -9.326    551.286    822.240    553.395    551.286    551.286
110.270    782.000    824.428    -42.428    551.258    822.397    553.316    551.258    551.258
110.370    816.000    823.007     -7.007    551.235    821.031    553.240    551.235    551.235
110.470    831.000    819.783     11.217    551.216    817.876    553.155    551.216    551.216
110.570    802.000    814.651    -12.651    551.202    812.810    553.076    551.202    551.202
110.670    848.147    807.637     40.511    551.192    805.860    553.003    551.192    551.192
110.770    823.000    798.899     24.101    551.187    797.189    552.931    551.187    551.187
110.870    722.000    788.706    -66.706    551.186    787.065    552.860    551.186    551.186
110.970    798.000    777.391     20.609    551.190    775.822    552.791    551.190    551.190
111.070    754.000    765.315    -11.315    551.198    763.818    552.726    551.198    551.198
111.170    796.723    752.832     43.891    551.211    751.406    552.666    551.211    551.211
111.270    723.000    740.267    -17.267    551.229    738.910    552.613    551.229    551.229
111.370    778.000    727.929     50.071    551.252    726.637    552.567    551.252    551.252
111.470    718.000    716.073      1.927    551.279    714.842    552.531    551.279    551.279
111.570    749.000    704.909     44.091    551.311    703.734    552.505    551.311    551.311
111.670    668.933    694.603    -25.669    551.348    693.478    552.489    551.348    551.348
111.770    647.531    685.278    -37.747    551.390    684.197    552.484    551.390    551.390
111.870    644.736    677.014    -32.278    551.436    675.970    552.492    551.436    551.436
111.970    715.953    669.851     46.101    551.488    668.838    552.510    551.488    551.488
112.070    659.172    663.796     -4.624    551.545    662.806    552.541    551.545    551.545
112.170    654.000    658.822     -4.822    551.606    657.850    552.583    551.606    551.606
112.270    645.000    654.881     -9.881    551.673    653.921    552.636    551.673    551.673
112.370    642.000    651.905     -9.905    551.745    650.951    552.700    551.745    551.745
112.470    638.000    649.814    -11.814    551.822    648.862    552.774    551.822    551.822
112.570    673.434    648.521     24.913    551.905    647.566    552.857    551.905    551.905
112.670    620.000    647.936    -27.936    551.992    646.976    552.949    551.992    551.992
112.770    699.000    647.972     51.028    552.085    647.004    553.048    552.085    552.085
112.870    668.000    648.547     19.453    552.183    647.569    553.156    552.183    552.183
112.970    681.000    649.586     31.414    552.287    648.597    553.270    552.287    552.287
113.070    671.000    651.026     19.974    552.396    650.024    553.390    552.396    552.396
113.170    632.000    652.814    -20.814    552.510    651.801    553.516    552.510    552.510
113.270    611.965    654.914    -42.949    552.630    653.888    553.648    552.630    552.630
113.370    641.000    657.301    -16.301    552.756    656.263    553.785    552.756    552.756
113.470    623.463    659.970    -36.507    552.887    658.919    553.928    552.887    552.887
113.570    658.000    662.929     -4.929    553.023    661.866    554.077    553.023    553.023
113.670    643.000    666.206    -23.206    553.166    665.129    554.233    553.166    553.166
113.770    670.763    669.845      0.918    553.314    668.751    554.397    553.314    553.314
113.870    669.000    673.908     -4.908    553.468    672.795    554.570    553.468    553.468
113.970    636.000    678.484    -42.484    553.627    677.348    554.752    553.627    553.627
114.070    672.057    683.686    -11.630    553.793    682.522    554.945    553.793    553.793
114.170    677.161    689.661    -12.500    553.964    688.462    555.150    553.964    553.964
114.270    714.000    696.596     17.404    554.141    695.352    555.370    554.141    554.141
114.370    745.000    704.728     40.272    554.324    703.430    555.607    554.324    554.324
114.470    710.897    714.359     -3.461    554.513    712.993    555.861    554.513    554.513
114.570    757.000    725.864     31.136    554.709    724.416    556.136    554.709    554.709
114.670    660.000    739.711    -79.711    554.910    738.163    556.435    554.910    554.910
114.770    740.101    756.476    -16.375    555.118    754.806    556.760    555.118    555.118
114.870    797.000    776.858     20.142    555.331    775.042    557.114    555.331    555.331
114.970    849.000    801.699     47.301    555.551    799.708    557.501    555.551    555.551
115.070    803.000    831.996    -28.996    555.777    829.800    557.925    555.777    555.777
115.170    837.000    868.921    -31.921    556.010    866.483    558.388    556.010    556.010
115.270    888.000    913.818    -25.818    556.249    911.100    558.896    556.249    556.249
115.370   1029.995    968.217     61.778    556.494    965.173    559.452    556.494    556.494
115.470    979.000   1033.817    -54.817    556.745   1030.399    560.059    556.745    556.745
115.570   1107.000   1112.474     -5.474    557.004   1108.630    560.723    557.004    557.004
115.670   1209.368   1206.168      3.201    557.268   1201.843    561.445    557.268    557.268
115.770   1253.791   1316.957    -63.166    557.540   1312.091    562.230    557.540    557.540
115.870   1416.283   1446.919    -30.636    557.818   1441.451    563.080    557.818    557.818
115.970   1567.000   1598.071    -31.071    558.102   1591.937    563.996    558.102    558.102
116.070   1782.000   1772.278      9.722    558.393   1765.415    564.979    558.393    558.393
116.170   2032.000   1971.150     60.850    558.691   1963.495    566.030    558.691    558.691
116.270   2209.000   2195.923     13.077    558.996   2187.415    567.145    558.996    558.996
116.370   2499.000   2447.340     51.660    559.308   2437.922    568.323    559.308    559.308
116.470   2792.000   2725.527     66.473    559.627   2715.150    569.557    559.627    559.627
116.570   2936.435   3029.883    -93.448    559.952   3018.505    570.840    559.952    559.952
116.670   3350.000   3358.974     -8.974    560.285   3346.564    572.164    560.285    560.285
116.770   3676.000   3710.438    -34.438    560.625   3696.976    573.518    560.625    560.625
116.870   4069.000   4080.943    -11.943    560.971   4066.424    574.889    560.971    560.971
116.970   4368.000   4466.247    -98.247    561.325   4450.677    576.267    561.325    561.325
117.070   4804.037   4860.995    -56.958    561.686   4844.398    577.638    561.686    561.686
117.170   5314.400   5258.905     55.495    562.055   5241.317    578.988    562.055    562.055
117.270   5487.000   5652.805   -165.805    562.430   5634.279    580.305    562.430    562.430
117.370   5974.000   6034.737    -60.737    562.813   6015.338    581.575    562.813    562.813
117.470   6297.000   6396.114    -99.114    563.203   6375.923    582.787    563.203    563.203
117.570   6840.257   6727.944    112.314    563.601   6707.053    583.926    563.601    563.601
117.670   6978.000   7021.134    -43.134    564.006   6999.652    584.981    564.006    564.006
117.770   7311.476   7266.911     44.566    564.419   7244.955    585.938    564.419    564.419
117.870   7525.017   7457.329     67.688    564.839   7435.031    586.785    564.839    564.839
117.970   7665.000   7585.864     79.136    565.267   7563.360    587.511    565.267    565.267
118.070   7693.668   7647.976     45.691    565.702   7625.409    588.111    565.702    565.702
118.170   7511.768   7641.570   -129.802    566.146   7619.081    588.579    566.146    566.146
118.270   7595.543   7567.206     28.337    566.597   7544.933    588.916    566.597    566.597
118.370   7474.000   7428.040     45.960    567.055   7406.111    589.128    567.055    567.055
118.470   7123.000   7229.487   -106.487    567.522   7208.020    589.220    567.522    567.522
118.570   6934.000   6978.697    -44.697    567.997   6957.796    589.205    567.997    567.997
118.670   6540.637   6683.967   -143.329    568.479   6663.724    589.094    568.479    568.479
118.770   6177.000   6354.176   -177.176    568.970   6334.668    588.900    568.970    568.970
118.870   5891.906   5998.310   -106.405    569.468   5979.600    588.636    569.468    569.468
118.970   5599.000   5625.096    -26.096    569.975   5607.233    588.317    569.975    569.975
119.070   5375.392   5242.729    132.663    570.490   5225.752    587.956    570.490    570.490
119.170   4833.000   4858.686    -25.686    571.013   4842.618    587.567    571.013    571.013
119.270   4596.213   4479.588    116.625    571.544   4464.443    587.164    571.544    571.544
119.370   4326.000   4111.119    214.881    572.084   4096.896    586.761    572.084    572.084
119.470   3747.202   3757.975    -10.773    572.632   3744.662    586.371    572.632    572.632
119.570   3458.000   3423.856     34.144    573.188   3411.431    586.007    573.188    573.188
119.670   3173.923   3111.491     62.432    573.753   3099.922    585.679    573.753    573.753
119.770   2864.928   2822.694     42.234    574.327   2811.940    585.399    574.327    574.327
119.870   2620.317   2558.449     61.868    574.909   2548.463    585.174    574.909    574.909
119.970   2334.923   2319.012     15.910    575.499   2309.740    585.011    575.499    575.499
120.070   2122.000   2104.026     17.974    576.099   2095.410    584.918    576.099    576.099
120.170   1961.729   1912.635     49.094    576.707   1904.613    584.897    576.707    576.707
120.270   1661.140   1743.602    -82.462    577.323   1736.109    584.953    577.323    577.323
120.370   1623.000   1595.411     27.589    577.949   1588.380    585.089    577.949    577.949
120.470   1413.502   1466.365    -52.863    578.583   1459.727    585.306    578.583    578.583
120.570   1296.566   1354.670    -58.104    579.227   1348.355    585.605    579.227    579.227
120.670   1329.000   1258.506     70.494    579.879   1252.443    585.987    579.879    579.879
120.770   1178.461   1176.092      2.369    580.540   1170.210    586.453    580.540    580.540
120.870   1181.000   1105.729     75.271    581.211   1099.957    587.003    581.211    581.211
120.970   1112.000   1045.838     66.162    581.891   1040.103    587.637    581.891    581.891
121.070   1060.466    994.980     65.486    582.579    989.209    588.356    582.579    582.579
121.170   1010.000    951.871     58.129    583.278    945.990    589.159    583.278    583.278
121.270    933.000    915.383     17.617    583.985    909.317    590.049    583.985    583.985
121.370    843.980    884.540    -40.560    584.702    878.212    591.026    584.702    584.702
121.470    832.000    858.508    -26.508    585.428    851.839    592.092    585.428    585.428
121.570    855.000    836.583     18.417    586.163    829.494    593.248    586.163    586.163
121.670    813.000    818.176     -5.176    586.909    810.584    594.497    586.909    586.909
121.770    814.000    802.799     11.201    587.663    794.619    595.841    587.663    587.663
121.870    737.000    790.046    -53.046    588.428    781.191    597.282    588.428    588.428
121.970    755.414    779.584    -24.170    589.202    769.965    598.822    589.202    589.202
122.070    796.802    771.139     25.663    589.985    760.663    600.463    589.985    589.985
122.170    706.000    764.482    -58.482    590.779    753.057    602.208    590.779    590.779
122.270    705.000    759.422    -54.422    591.582    746.953    604.056    591.582    591.582
122.370    743.000    755.799    -12.799    592.395    742.191    606.011    592.395    592.395
122.470    698.000    753.474    -55.474    593.219    738.632    608.070    593.219    593.219
122.570    738.000    752.326    -14.326    594.052    736.154    610.234    594.052    594.052
122.670    743.000    752.245     -9.245    594.895    734.651    612.501    594.895    594.895
122.770    720.000    753.130    -33.130    595.749    734.025    614.868    595.749    595.749
122.870    699.000    754.884    -55.884    596.612    734.183    617.330    596.612    596.612
122.970    720.000    757.413    -37.413    597.486    735.037    619.881    597.486    597.486
123.070    729.000    760.621    -31.621    598.370    736.502    622.510    598.370    598.370
123.170    743.000    764.409    -21.409    599.265    738.491    625.207    599.265    599.265
123.270    717.000    768.676    -51.676    600.170    740.918    627.955    600.170    600.170
123.370    757.000    773.314    -16.314    601.085    743.692    630.736    601.085    601.085
123.470    741.000    778.209    -37.209    602.011    746.723    633.530    602.011    602.011
123.570    733.412    783.241    -49.829    602.948    749.914    636.310    602.948    602.948
123.670    739.000    788.284    -49.284    603.895    753.169    639.048    603.895    603.895
123.770    752.000    793.206    -41.206    604.853    756.386    641.715    604.853    604.853
123.870    794.101    797.874     -3.773    605.821    759.463    644.278    605.821    605.821
123.970    744.241    802.150    -57.909    606.801    762.297    646.702    606.801    606.801
124.070    785.199    805.899    -20.700    607.791    764.788    648.954    607.791    607.791
124.170    819.357    808.993     10.364    608.792    766.840    651.001    608.792    608.792
124.270    847.000    811.315     35.685    609.804    768.366    652.813    609.804    609.804
124.370    869.827    812.752     57.075    610.827    769.279    654.363    610.827    610.827
124.470    847.785    813.234     34.552    611.862    769.527    655.633    611.862    611.862
124.570    811.000    812.758     -1.758    612.907    769.117    656.615    612.907    612.907
124.670    838.000    811.290     26.710    613.964    768.016    657.305    613.964    613.964
124.770    874.000    808.847     65.153    615.032    766.236    657.711    615.032    615.032
124.870    842.995    805.484     37.511    616.111    763.813    657.850    616.111    616.111
124.970    948.000    801.278    146.722    617.202    760.803    657.745    617.202    617.202
