neutron_powder_diffraction_0032
R_wp: 3.845
Temperature (K): 553.383
Counts: 83917.00
Wavelength (Ã…): 2.52098
COMMENTS
Test file for demonstrating the .xyy file format in Reel1.0
END OF HEADER
   tth       Y_obs     Y_calc      Y_res    Background    Phase_1_Nuc    Phase_1_Mag    Phase_2_Nuc    Phase_2_Mag
  9.970    673.491    702.683    -29.191    701.057    702.125    701.614    701.057    701.057
 10.070    752.000    701.853     50.147    700.136    701.289    700.698    700.136    700.136
 10.170    705.470    701.039      4.431    699.218    700.469    699.786    699.218    699.218
 10.270    702.378    700.243      2.135    698.303    699.667    698.878    698.303    698.303
 10.370    708.000    699.468      8.532    697.393    698.886    697.974    697.393    697.393
 10.470    737.000    698.717     38.283    696.486    698.129    697.074    696.486    696.486
 10.570    690.000    697.996     -7.996    695.584    697.401    696.177    695.584    695.584
 10.670    687.644    697.310     -9.666    694.685    696.709    695.285    694.685    694.685
 10.770    695.000    696.668     -1.668    693.789    696.060    694.396    693.789    693.789
 10.870    671.633    696.079    -24.446    692.898    695.464    693.511    692.898    692.898
 10.970    747.967    695.559     52.409    692.010    694.937    692.631    692.010    692.010
 11.070    713.000    695.126     17.874    691.126    694.497    691.754    691.126    691.126
 11.170    713.000    694.810     18.190    690.246    694.174    690.881    690.246    690.246
 11.270    717.000    694.653     22.347    689.370    694.009    690.011    689.370    689.370
 11.370    717.000    694.722     22.278    688.497    694.071    689.146    688.497    688.497
 11.470    726.264    695.152     31.112    687.629    694.492    688.285    687.629    687.629
 11.570    649.839    696.217    -46.378    686.764    695.548    687.428    686.764    686.764
 11.670    761.000    698.537     62.463    685.902    697.859    686.574    685.902    685.902
 11.770    739.000    703.332     35.668    685.045    702.643    685.725    685.045    685.045
 11.870    735.691    712.542     23.150    684.191    711.839    684.879    684.191    684.191
 11.970    691.224    728.332    -37.109    683.341    727.612    684.037    683.341    683.341
 12.070    815.000    751.521     63.479    682.495    750.780    683.200    682.495    682.495
 12.170    818.251    778.780     39.471    681.653    778.014    682.366    681.653    681.653
 12.270    824.559    799.919     24.641    680.814    799.132    681.536    680.814    680.814
 12.370    819.305    801.976     17.329    679.980    801.180    680.709    679.980    679.980
 12.470    802.000    782.778     19.222    679.149    781.983    679.887    679.149    679.149
 12.570    771.156    753.965     17.192    678.321    753.176    679.069    678.321    678.321
 12.670    740.000    727.577     12.423    677.498    726.793    678.255    677.498    677.498
 12.770    720.000    708.382     11.618    676.678    707.599    677.444    676.678    676.678
 12.870    643.658    696.199    -52.540    675.862    695.412    676.638    675.862    675.862
 12.970    689.000    688.960      0.040    675.050    688.167    675.835    675.050    675.050
 13.070    692.338    684.579      7.759    674.241    683.778    675.037    674.241    674.241
 13.170    668.647    681.663    -13.016    673.436    680.853    674.242    673.436    673.436
 13.270    671.000    679.483     -8.483    672.635    678.664    673.451    672.635    672.635
 13.370    669.000    677.702     -8.702    671.838    676.873    672.665    671.838    671.838
 13.470    639.000    676.169    -37.169    671.044    675.329    671.882    671.044    671.044
 13.570    627.602    674.806    -47.204    670.255    673.956    671.103    670.255    670.255
 13.670    688.894    673.568     15.326    669.469    672.707    670.328    669.469    669.469
 13.770    714.000    672.423     41.577    668.686    671.551    669.557    668.686    668.686
 13.870    669.387    671.353     -1.966    667.908    670.469    668.790    667.908    667.908
 13.970    664.000    670.363     -6.363    667.133    669.467    668.027    667.133    667.133
 14.070    696.000    669.397     26.603    666.361    668.489    667.268    666.361    666.361
 14.170    667.000    668.464     -1.464    665.594    667.544    666.513    665.594    665.594
 14.270    707.123    667.562     39.561    664.830    666.629    665.762    664.830    664.830
 14.370    709.000    666.685     42.315    664.070    665.739    665.015    664.070    664.070
 14.470    687.000    665.830     21.170    663.314    664.871    664.272    663.314    663.314
 14.570    649.000    664.994    -15.994    662.561    664.022    663.532    662.561    662.561
 14.670    636.000    664.174    -28.174    661.812    663.188    662.797    661.812    661.812
 14.770    619.445    663.368    -43.923    661.067    662.369    662.066    661.067    661.067
 14.870    651.000    662.576    -11.576    660.326    661.562    661.339    660.326    660.326
 14.970    636.645    661.795    -25.150    659.588    660.767    660.615    659.588    659.588
 15.070    686.202    661.028     25.174    658.854    659.985    659.896    658.854    658.854
 15.170    632.000    660.270    -28.270    658.123    659.212    659.181    658.123    658.123
 15.270    659.000    659.518     -0.518    657.397    658.444    658.470    657.397    657.397
 15.370    626.000    658.775    -32.775    656.674    657.685    657.763    656.674    656.674
 15.470    645.000    658.039    -13.039    655.954    656.933    657.060    655.954    655.954
 15.570    600.000    657.310    -57.310    655.238    656.188    656.360    655.238    655.238
 15.670    702.365    656.589     45.776    654.526    655.450    655.665    654.526    654.526
 15.770    650.865    655.874     -5.009    653.818    654.718    654.974    653.818    653.818
 15.870    612.880    655.166    -42.286    653.113    653.992    654.287    653.113    653.113
 15.970    646.000    654.464     -8.464    652.412    653.271    653.605    652.412    652.412
 16.070    655.604    653.768      1.836    651.715    652.557    652.926    651.715    651.715
 16.170    644.000    653.078     -9.078    651.021    651.848    652.251    651.021    651.021
 16.270    623.827    652.400    -28.573    650.331    651.150    651.581    650.331    650.331
 16.370    700.254    651.722     48.532    649.644    650.452    650.914    649.644    649.644
 16.470    664.880    651.048     13.832    648.962    649.758    650.252    648.962    648.962
 16.570    686.255    650.380     35.875    648.282    649.069    649.594    648.282    648.282
 16.670    664.000    649.717     14.283    647.607    648.384    648.940    647.607    647.607
 16.770    664.544    649.059     15.485    646.935    647.704    648.290    646.935    646.935
 16.870    655.291    648.406      6.884    646.266    647.028    647.644    646.266    646.266
 16.970    585.000    647.759    -62.759    645.602    646.358    647.002    645.602    645.602
 17.070    654.425    647.124      7.301    644.941    645.699    646.365    644.941    644.941
 17.170    681.798    646.540     35.258    644.283    645.089    645.734    644.283    644.283
 17.270    630.008    645.944    -15.937    643.629    644.467    645.106    643.629    643.629
 17.370    661.000    645.321     15.679    642.979    643.818    644.481    642.979    642.979
 17.470    599.074    644.713    -45.639    642.332    643.184    643.861    642.332    642.332
 17.570    635.000    644.112     -9.112    641.689    642.556    643.245    641.689    641.689
 17.670    590.801    643.501    -52.700    641.049    641.917    642.633    641.049    641.049
 17.770    691.301    642.893     48.408    640.413    641.280    642.026    640.413    640.413
 17.870    620.017    642.290    -22.273    639.781    640.648    641.423    639.781    639.781
 17.970    620.000    641.692    -21.692    639.152    640.020    640.824    639.152    639.152
 18.070    671.421    641.099     30.322    638.527    639.396    640.230    638.527    638.527
 18.170    600.000    640.511    -40.511    637.905    638.776    639.640    637.905    637.905
 18.270    606.000    639.928    -33.928    637.287    638.160    639.055    637.287    637.287
 18.370    621.000    639.350    -18.350    636.672    637.547    638.474    636.672    636.672
 18.470    631.000    638.776     -7.776    636.061    636.939    637.898    636.061    636.061
 18.570    629.000    638.209     -9.209    635.453    636.336    637.326    635.453    635.453
 18.670    662.237    637.656     24.581    634.849    635.746    636.759    634.849    634.849
 18.770    649.000    637.103     11.897    634.249    635.155    636.197    634.249    634.249
 18.870    639.643    636.551      3.092    633.652    634.564    635.639    633.652    633.652
 18.970    569.000    636.003    -67.003    633.058    633.975    635.086    633.058    633.058
 19.070    656.329    635.460     20.868    632.468    633.391    634.537    632.468    632.468
 19.170    650.000    634.923     15.077    631.882    632.811    633.994    631.882    631.882
 19.270    624.977    634.391     -9.414    631.299    632.235    633.455    631.299    631.299
 19.370    612.176    633.875    -21.699    630.719    631.671    632.924    630.719    630.719
 19.470    588.000    633.421    -45.421    630.143    631.151    632.413    630.143    630.143
 19.570    610.000    632.925    -22.925    629.571    630.605    631.891    629.571    629.571
 19.670    593.000    632.430    -39.430    629.002    630.058    631.373    629.002    629.002
 19.770    624.680    631.927     -7.248    628.436    629.504    630.859    628.436    628.436
 19.870    617.886    631.430    -13.544    627.874    628.953    630.351    627.874    627.874
 19.970    572.000    630.944    -58.944    627.315    628.410    629.849    627.315    627.315
 20.070    607.000    630.478    -23.478    626.760    627.877    629.361    626.760    626.760
 20.170    602.656    630.036    -27.380    626.208    627.364    628.881    626.208    626.208
 20.270    595.679    629.593    -33.914    625.660    626.857    628.396    625.660    625.660
 20.370    606.098    629.186    -23.088    625.115    626.384    627.916    625.115    625.115
 20.470    587.848    628.734    -40.886    624.573    625.866    627.442    624.573    624.573
 20.570    607.000    628.299    -21.299    624.035    625.362    626.973    624.035    624.035
 20.670    606.411    627.888    -21.477    623.501    624.878    626.510    623.501    623.501
 20.770    598.000    627.477    -29.477    622.969    624.392    626.054    622.969    622.969
 20.870    646.000    627.048     18.952    622.442    623.886    625.603    622.442    622.442
 20.970    597.000    626.625    -29.625    621.917    623.383    625.159    621.917    621.917
 21.070    609.000    626.218    -17.218    621.396    622.890    624.724    621.396    621.396
 21.170    674.212    625.817     48.395    620.878    622.400    624.296    620.878    620.878
 21.270    582.000    625.423    -43.423    620.364    621.915    623.872    620.364    620.364
 21.370    627.000    625.039      1.961    619.853    621.437    623.455    619.853    619.853
 21.470    636.000    624.664     11.336    619.345    620.965    623.045    619.345    619.345
 21.570    618.000    624.292     -6.292    618.841    620.491    622.642    618.841    618.841
 21.670    645.000    623.928     21.072    618.340    620.021    622.247    618.340    618.340
 21.770    627.000    623.574      3.426    617.843    619.557    621.860    617.843    617.843
 21.870    600.000    623.231    -23.231    617.348    619.099    621.481    617.348    617.348
 21.970    596.000    622.901    -26.901    616.857    618.648    621.111    616.857    616.857
 22.070    615.000    622.582     -7.582    616.370    618.203    620.749    616.370    616.370
 22.170    601.805    622.274    -20.469    615.885    617.764    620.396    615.885    615.885
 22.270    595.000    621.980    -26.980    615.404    617.332    620.053    615.404    615.404
 22.370    639.000    621.703     17.297    614.927    616.910    619.720    614.927    614.927
 22.470    648.067    621.439     26.627    614.452    616.495    619.397    614.452    614.452
 22.570    590.000    621.192    -31.192    613.981    616.089    619.084    613.981    613.981
 22.670    603.000    620.965    -17.965    613.513    615.694    618.784    613.513    613.513
 22.770    599.000    620.760    -21.760    613.049    615.313    618.496    613.049    613.049
 22.870    623.000    620.572      2.428    612.588    614.941    618.219    612.588    612.588
 22.970    637.000    620.407     16.593    612.130    614.582    617.955    612.130    612.130
 23.070    656.080    620.269     35.811    611.675    614.240    617.704    611.675    611.675
 23.170    591.523    620.161    -28.638    611.223    613.917    617.468    611.223    611.223
 23.270    621.000    620.089      0.911    610.775    613.616    617.248    610.775    610.775
 23.370    657.000    620.055     36.945    610.330    613.342    617.043    610.330    610.330
 23.470    611.380    620.068     -8.688    609.888    613.101    616.855    609.888    609.888
 23.570    605.402    620.136    -14.733    609.449    612.900    616.686    609.449    609.449
 23.670    609.000    620.270    -11.270    609.014    612.750    616.535    609.014    609.014
 23.770    641.000    620.488     20.512    608.581    612.665    616.406    608.581    608.581
 23.870    621.000    620.809      0.191    608.152    612.665    616.298    608.152    608.152
 23.970    590.264    621.268    -31.005    607.726    612.782    616.214    607.726    607.726
 24.070    668.000    621.918     46.082    607.304    613.068    616.156    607.304    607.304
 24.170    617.000    622.865     -5.865    606.884    613.626    616.126    606.884    606.884
 24.270    651.000    624.329     26.671    606.468    614.675    616.126    606.468    606.468
 24.370    653.000    626.778     26.222    606.054    616.681    616.157    606.054    606.054
 24.470    630.000    631.082     -1.082    605.644    620.511    616.224    605.644    605.644
 24.570    690.106    638.522     51.583    605.237    627.444    616.329    605.237    605.237
 24.670    685.715    650.385     35.330    604.833    638.765    616.476    604.833    604.833
 24.770    672.000    666.912      5.088    604.433    654.710    616.669    604.433    604.433
 24.870    671.400    685.557    -14.158    604.035    672.728    616.912    604.035    604.035
 24.970    746.000    699.519     46.481    603.640    686.005    617.211    603.640    603.640
 25.070    706.000    700.883      5.117    603.249    686.618    617.572    603.249    603.249
 25.170    676.631    688.946    -12.315    602.860    673.855    618.001    602.860    602.860
 25.270    644.000    671.246    -27.246    602.475    655.250    618.506    602.475    602.475
 25.370    667.732    655.142     12.590    602.093    638.161    619.097    602.093    602.093
 25.470    665.000    643.662     21.338    601.714    625.606    619.784    601.714    601.714
 25.570    663.000    636.799     26.201    601.338    617.566    620.579    601.338    601.338
 25.670    630.000    633.334     -3.334    600.965    612.807    621.497    600.965    600.965
 25.770    659.000    631.968     27.032    600.594    610.011    622.555    600.594    600.594
 25.870    609.000    631.802    -22.802    600.227    608.259    623.773    600.227    600.227
 25.970    597.000    632.356    -35.356    599.863    607.045    625.175    599.863    599.863
 26.070    590.093    633.421    -43.328    599.502    606.132    626.792    599.502    599.502
 26.170    677.000    634.928     42.072    599.144    605.413    628.660    599.144    599.144
 26.270    630.000    636.861     -6.861    598.789    604.834    630.816    598.789    598.789
 26.370    663.787    639.242     24.546    598.437    604.362    633.316    598.437    598.437
 26.470    646.000    642.118      3.882    598.088    603.981    636.225    598.088    598.088
 26.570    692.000    645.566     46.434    597.742    603.681    639.625    597.742    597.742
 26.670    618.000    649.685    -31.685    597.399    603.461    643.621    597.399    597.399
 26.770    667.000    654.610     12.390    597.059    603.319    648.347    597.059    597.059
 26.870    696.000    660.520     35.480    596.722    603.262    653.977    596.722    596.722
 26.970    663.000    667.655     -4.655    596.388    603.298    660.740    596.388    596.388
 27.070    652.000    676.339    -24.339    596.056    603.445    668.946    596.056    596.056
 27.170    689.099    687.020      2.079    595.728    603.724    679.017    595.728    595.728
 27.270    679.000    700.325    -21.325    595.402    604.171    691.548    595.402    595.402
 27.370    698.359    717.160    -18.801    595.080    604.838    707.391    595.080    595.080
 27.470    759.584    738.886     20.697    594.760    605.800    727.833    594.760    594.760
 27.570    801.000    767.859     33.141    594.443    607.190    755.095    594.443    594.443
 27.670    823.000    809.390     13.610    594.129    609.310    794.185    594.129    594.129
 27.770    920.000    878.827     41.173    593.818    613.021    859.582    593.818    593.818
 27.870   1056.038   1021.379     34.658    593.509    620.859    993.944    593.509    593.509
 27.970   1305.000   1347.377    -42.377    593.204    639.001   1301.393    593.204    593.204
 28.070   1847.000   2049.763   -202.763    592.901    678.253   1964.045    592.901    592.901
 28.170   3407.774   3315.128     92.646    592.602    749.076   3158.060    592.602    592.602
 28.270   5186.324   5072.409    113.915    592.305    847.542   4816.424    592.305    592.305
 28.370   6631.000   6730.259    -99.259    592.010    940.683   6380.930    592.010    592.010
 28.470   7404.000   7322.614     81.386    591.719    974.714   6939.284    591.719    591.719
 28.570   6706.000   6433.399    272.601    591.430    926.974   6097.803    591.430    591.430
 28.670   4866.000   4847.935     18.065    591.145    842.648   4596.476    591.145    591.145
 28.770   3553.000   3594.943    -41.943    590.862    781.121   3404.692    590.862    590.862
 28.870   3139.000   3152.359    -13.359    590.581    770.529   2972.359    590.581    590.581
 28.970   3315.601   3420.678   -105.077    590.304    804.150   3206.787    590.304    590.304
 29.070   3944.000   3932.863     11.137    590.029    849.998   3672.969    590.029    590.029
 29.170   4193.685   4102.864     90.822    589.757    865.644   3827.221    589.757    589.757
 29.270   3555.127   3637.896    -82.769    589.488    829.855   3397.849    589.488    589.488
 29.370   2824.017   2802.536     21.481    589.221    764.299   2627.739    589.221    589.221
 29.470   1931.609   1995.815    -64.206    588.957    700.808   1884.158    588.957    588.957
 29.570   1398.000   1416.521    -18.521    588.696    655.211   1350.117    588.696    588.696
 29.670   1051.000   1076.307    -25.307    588.437    628.479   1036.323    588.437    588.437
 29.770    965.000    901.044     63.956    588.182    614.770    874.483    588.182    588.182
 29.870    837.000    813.411     23.589    587.928    607.986    793.367    587.928    587.928
 29.970    824.000    765.371     58.629    587.678    604.344    748.713    587.678    587.678
 30.070    817.000    734.755     82.245    587.430    602.110    720.080    587.430    587.430
 30.170    669.311    712.928    -43.617    587.185    600.626    699.490    587.185    587.185
 30.270    705.537    696.564      8.974    586.942    599.673    683.834    586.942    586.942
 30.370    694.522    684.240     10.283    586.702    599.227    671.714    586.702    586.702
 30.470    621.695    675.471    -53.776    586.465    599.459    662.474    586.465    586.465
 30.570    623.618    670.665    -47.047    586.230    600.858    656.031    586.230    586.230
 30.670    692.576    671.285     21.291    585.998    604.373    652.898    585.998    585.998
 30.770    702.000    679.577     22.423    585.768    611.301    654.023    585.768    585.768
 30.870    710.000    697.222     12.778    585.541    622.610    660.118    585.541    585.541
 30.970    684.941    722.777    -37.836    585.316    637.642    670.399    585.316    585.316
 31.070    708.692    748.658    -39.966    585.094    652.573    681.112    585.094    585.094
 31.170    773.000    760.691     12.309    584.875    660.186    685.307    584.875    584.875
 31.270    729.079    748.628    -19.549    584.658    655.266    677.958    584.658    584.658
 31.370    695.399    718.886    -23.486    584.444    641.130    662.154    584.444    584.444
 31.470    718.000    685.604     32.396    584.232    625.053    644.754    584.232    584.232
 31.570    668.533    658.188     10.346    584.022    611.875    630.319    584.022    584.022
 31.670    689.000    639.411     49.589    583.816    603.037    620.180    583.816    583.816
 31.770    715.000    628.000     87.000    583.611    597.901    613.704    583.611    583.611
 31.870    639.000    621.396     17.604    583.409    595.168    609.633    583.409    583.409
 31.970    642.000    617.439     24.561    583.210    593.741    606.904    583.210    583.210
 32.070    694.000    614.836     79.164    583.013    592.968    604.878    583.013    583.013
 32.170    653.000    612.968     40.032    582.818    592.539    603.244    582.818    582.818
 32.270    649.000    611.570     37.430    582.626    592.329    601.865    582.626    582.626
 32.370    621.110    610.534     10.576    582.436    592.290    600.678    582.436    582.436
 32.470    645.000    609.810     35.190    582.249    592.406    599.651    582.249    582.249
 32.570    576.690    609.381    -32.690    582.064    592.677    598.766    582.064    582.064
 32.670    651.000    609.247     41.753    581.882    593.116    598.011    581.882    581.882
 32.770    666.000    609.427     56.573    581.701    593.744    597.382    581.701    581.701
 32.870    643.000    609.957     33.043    581.524    594.598    596.881    581.524    581.524
 32.970    662.000    610.897     51.103    581.348    595.728    596.516    581.348    581.348
 33.070    655.000    612.339     42.661    581.175    597.210    596.302    581.175    581.175
 33.170    663.000    614.423     48.577    581.004    599.156    596.269    581.004    581.004
 33.270    620.875    617.387      3.488    580.836    601.753    596.467    580.836    580.836
 33.370    650.000    621.684     28.316    580.670    605.354    596.996    580.670    580.670
 33.470    586.937    628.296    -41.359    580.506    610.718    598.079    580.506    580.506
 33.570    667.519    639.380     28.139    580.344    619.513    600.205    580.344    580.344
 33.670    606.222    659.260    -53.038    580.185    635.077    604.359    580.185    580.185
 33.770    691.000    695.208     -4.208    580.028    663.022    612.198    580.028    580.028
 33.870    739.000    756.613    -17.613    579.873    710.597    625.864    579.873    579.873
 33.970    905.994    850.891     55.104    579.721    783.526    647.047    579.721    579.721
 34.070    931.991    975.687    -43.696    579.571    879.997    675.210    579.571    579.571
 34.170   1073.312   1108.802    -35.490    579.423    982.881    705.288    579.423    579.423
 34.270   1227.008   1203.141     23.867    579.277   1055.837    726.535    579.277    579.277
 34.370   1156.518   1209.198    -52.680    579.134   1060.654    727.652    579.134    579.134
 34.470   1070.000   1122.734    -52.734    578.992    994.052    707.668    578.992    578.992
 34.570   1012.000    990.320     21.680    578.853    891.968    677.209    578.853    578.853
 34.670    849.294    861.873    -12.578    578.716    792.931    647.664    578.716    578.716
 34.770    732.000    762.647    -30.647    578.581    716.435    624.799    578.581    578.581
 34.870    724.353    696.799     27.553    578.449    665.691    609.560    578.449    578.449
 34.970    612.938    657.564    -44.626    578.318    635.479    600.405    578.318    578.318
 35.070    669.434    635.454     33.980    578.190    618.476    595.167    578.190    578.190
 35.170    653.000    622.818     30.182    578.063    608.778    592.103    578.063    578.063
 35.270    649.134    614.999     34.134    577.939    602.790    590.148    577.939    577.939
 35.370    624.000    609.638     14.362    577.817    598.690    588.764    577.817    577.817
 35.470    612.978    605.654      7.324    577.697    595.646    587.705    577.697    577.697
 35.570    613.000    602.550     10.450    577.579    593.271    586.858    577.579    577.579
 35.670    646.000    600.067     45.933    577.464    591.366    586.163    577.464    577.464
 35.770    611.166    598.048     13.118    577.350    589.811    585.587    577.350    577.350
 35.870    630.945    596.389     34.556    577.238    588.522    585.105    577.238    577.238
 35.970    595.472    595.015      0.457    577.129    587.441    584.702    577.129    577.129
 36.070    646.000    593.873     52.127    577.021    586.527    584.366    577.021    577.021
 36.170    571.000    592.923    -21.923    576.915    585.746    584.091    576.915    576.915
 36.270    628.000    592.137     35.863    576.812    585.076    583.872    576.812    576.812
 36.370    624.000    591.495     32.505    576.710    584.497    583.707    576.710    576.710
 36.470    547.248    590.983    -43.735    576.611    583.997    583.597    576.611    576.611
 36.570    574.149    590.595    -16.445    576.513    583.564    583.543    576.513    576.513
 36.670    590.000    590.327     -0.327    576.417    583.192    583.552    576.417    576.417
 36.770    599.000    590.183      8.817    576.324    582.876    583.630    576.324    576.324
 36.870    607.000    590.174     16.826    576.232    582.615    583.791    576.232    576.232
 36.970    590.489    590.319      0.169    576.142    582.411    584.050    576.142    576.142
 37.070    626.000    590.653     35.347    576.054    582.272    584.434    576.054    576.054
 37.170    592.000    591.240      0.760    575.968    582.226    584.982    575.968    575.968
 37.270    601.000    592.200      8.800    575.884    582.324    585.760    575.884    575.884
 37.370    612.812    593.764     19.048    575.802    582.665    586.900    575.802    575.802
 37.470    614.000    596.360     17.640    575.721    583.403    588.677    575.721    575.721
 37.570    613.000    600.733     12.267    575.643    584.723    591.652    575.643    575.643
 37.670    576.000    608.050    -32.050    575.566    586.767    596.847    575.566    575.566
 37.770    623.000    619.847      3.153    575.491    589.505    605.831    575.491    575.491
 37.870    658.000    637.604     20.396    575.418    592.556    620.463    575.418    575.418
 37.970    698.191    661.785     36.406    575.347    595.057    642.070    575.347    575.347
 38.070    691.000    690.709      0.291    575.278    595.933    670.048    575.278    575.278
 38.170    736.349    719.688     16.660    575.210    594.777    700.116    575.210    575.210
 38.270    691.813    740.337    -48.524    575.145    592.251    723.227    575.145    575.145
 38.370    708.000    742.856    -34.856    575.081    589.278    728.659    575.081    575.081
 38.470    755.841    724.535     31.305    575.018    586.461    713.096    575.018    575.018
 38.570    703.484    693.848      9.636    574.958    584.136    684.674    574.958    574.958
 38.670    644.000    661.943    -17.943    574.899    582.419    654.428    574.899    574.899
 38.770    624.000    635.484    -11.484    574.842    581.246    629.083    574.842    574.842
 38.870    592.000    616.511    -24.511    574.787    580.481    610.819    574.787    574.787
 38.970    596.515    604.287     -7.772    574.733    579.986    599.036    574.733    574.733
 39.070    621.000    596.948     24.052    574.682    579.658    591.972    574.682    574.682
 39.170    586.000    592.633     -6.633    574.631    579.430    587.835    574.631    574.631
 39.270    560.000    589.998    -29.998    574.583    579.263    585.319    574.583    574.583
 39.370    572.000    588.254    -16.254    574.536    579.134    583.656    574.536    574.536
 39.470    599.000    586.997     12.003    574.491    579.033    582.455    574.491    574.491
 39.570    612.769    586.034     26.735    574.447    578.952    581.529    574.447    574.447
 39.670    614.000    585.270     28.730    574.405    578.889    580.786    574.405    574.405
 39.770    566.678    584.652    -17.974    574.365    578.842    580.175    574.365    574.365
 39.870    636.000    584.146     51.854    574.326    578.808    579.665    574.326    574.326
 39.970    581.043    583.727     -2.684    574.289    578.784    579.233    574.289    574.289
 40.070    575.000    583.380     -8.380    574.254    578.771    578.863    574.254    574.254
 40.170    571.824    583.097    -11.273    574.220    578.774    578.543    574.220    574.220
 40.270    622.812    582.866     39.946    574.187    578.789    578.265    574.187    574.187
 40.370    534.615    582.680    -48.065    574.156    578.816    578.020    574.156    574.156
 40.470    569.154    582.533    -13.379    574.127    578.857    577.804    574.127    574.127
 40.570    612.832    582.423     30.409    574.099    578.911    577.612    574.099    574.099
 40.670    563.000    582.348    -19.348    574.073    578.980    577.441    574.073    574.073
 40.770    582.000    582.305     -0.305    574.048    579.066    577.288    574.048    574.048
 40.870    583.165    582.295      0.870    574.025    579.170    577.151    574.025    574.025
 40.970    575.000    582.319     -7.319    574.003    579.295    577.027    574.003    574.003
 41.070    606.000    582.378     23.622    573.983    579.445    576.916    573.983    573.983
 41.170    589.000    582.476      6.524    573.964    579.624    576.817    573.964    573.964
 41.270    588.436    582.616      5.820    573.947    579.836    576.728    573.947    573.947
 41.370    594.000    582.806     11.194    573.931    580.089    576.649    573.931    573.931
 41.470    542.000    583.054    -41.054    573.916    580.392    576.579    573.916    573.916
 41.570    566.000    583.372    -17.372    573.903    580.757    576.519    573.903    573.903
 41.670    554.069    583.776    -29.707    573.892    581.201    576.468    573.892    573.892
 41.770    554.000    584.292    -30.292    573.881    581.749    576.427    573.881    573.881
 41.870    584.000    584.962     -0.962    573.872    582.440    576.397    573.872    573.872
 41.970    581.000    585.863     -4.863    573.865    583.350    576.380    573.865    573.865
 42.070    554.736    587.150    -32.414    573.859    584.628    576.383    573.859    573.859
 42.170    543.000    589.125    -46.125    573.854    586.567    576.416    573.854    573.854
 42.270    582.000    592.344    -10.344    573.850    589.699    576.500    573.850    573.850
 42.370    603.000    597.692      5.308    573.848    594.878    576.669    573.848    573.848
 42.470    590.000    606.344    -16.344    573.847    603.234    576.968    573.847    573.847
 42.570    575.223    619.454    -44.231    573.848    615.879    577.440    573.848    573.848
 42.670    663.000    637.543     25.457    573.849    633.312    578.104    573.849    573.849
 42.770    619.000    659.608    -40.608    573.852    654.573    578.923    573.852    573.852
 42.870    637.000    682.151    -45.151    573.857    676.291    579.763    573.857    573.857
 42.970    685.000    698.777    -13.777    573.862    692.315    580.381    573.862    573.862
 43.070    714.754    702.528     12.226    573.869    695.947    580.512    573.869    573.869
 43.170    695.876    691.442      4.433    573.877    685.296    580.081    573.877    573.877
 43.270    685.230    670.746     14.484    573.886    665.393    579.287    573.886    573.886
 43.370    640.850    647.823     -6.974    573.896    643.346    578.411    573.896    573.896
 43.470    623.000    627.648     -4.648    573.908    623.940    577.642    573.908    573.908
 43.570    655.754    612.266     43.488    573.921    609.147    577.057    573.921    573.921
 43.670    606.000    601.739      4.261    573.935    599.025    576.661    573.935    573.935
 43.770    617.669    595.104     22.565    573.950    592.647    576.414    573.950    573.950
 43.870    549.000    591.127    -42.127    573.966    588.827    576.272    573.966    573.966
 43.970    540.597    588.763    -48.166    573.984    586.557    576.193    573.984    573.984
 44.070    557.000    587.304    -30.304    574.002    585.158    576.151    574.002    574.002
 44.170    544.035    586.344    -42.309    574.022    584.237    576.131    574.022    574.022
 44.270    586.000    585.671      0.329    574.043    583.592    576.124    574.043    574.043
 44.370    547.915    585.180    -37.265    574.065    583.120    576.126    574.065    574.065
 44.470    611.000    584.817     26.183    574.088    582.771    576.136    574.088    574.088
 44.570    643.000    584.551     58.449    574.112    582.512    576.151    574.112    574.112
 44.670    597.000    584.360     12.640    574.137    582.326    576.173    574.137    574.137
 44.770    579.000    584.232     -5.232    574.163    582.198    576.199    574.163    574.163
 44.870    557.000    584.156    -27.156    574.190    582.118    576.229    574.190    574.190
 44.970    554.276    584.125    -29.848    574.219    582.079    576.264    574.219    574.219
 45.070    581.182    584.131     -2.949    574.248    582.076    576.304    574.248    574.248
 45.170    604.000    584.172     19.828    574.278    582.104    576.347    574.278    574.278
 45.270    552.000    584.245    -32.245    574.310    582.160    576.394    574.310    574.310
 45.370    606.000    584.346     21.654    574.342    582.242    576.446    574.342    574.342
 45.470    585.222    584.474      0.748    574.375    582.348    576.502    574.375    574.375
 45.570    559.000    584.630    -25.630    574.409    582.477    576.561    574.409    574.409
 45.670    635.359    584.811     50.548    574.444    582.629    576.626    574.444    574.444
 45.770    570.000    585.019    -15.019    574.481    582.804    576.695    574.481    574.481
 45.870    604.873    585.254     19.620    574.518    583.003    576.769    574.518    574.518
 45.970    600.000    585.517     14.483    574.555    583.225    576.847    574.555    574.555
 46.070    576.000    585.810     -9.810    574.594    583.472    576.932    574.594    574.594
 46.170    640.000    586.136     53.864    574.634    583.747    577.022    574.634    574.634
 46.270    542.000    586.497    -44.497    574.675    584.052    577.119    574.675    574.675
 46.370    543.000    586.897    -43.897    574.716    584.390    577.223    574.716    574.716
 46.470    606.428    587.342     19.086    574.759    584.765    577.334    574.759    574.759
 46.570    568.131    587.837    -19.706    574.802    585.183    577.455    574.802    574.802
 46.670    585.000    588.390     -3.390    574.846    585.650    577.585    574.846    574.846
 46.770    570.000    589.012    -19.012    574.891    586.175    577.726    574.891    574.891
 46.870    582.033    589.717     -7.685    574.936    586.772    577.880    574.936    574.936
 46.970    567.000    590.527    -23.527    574.983    587.458    578.050    574.983    574.983
 47.070    573.000    591.477    -18.477    575.030    588.265    578.240    575.030    575.030
 47.170    613.359    592.631     20.728    575.078    589.249    578.457    575.078    575.078
 47.270    621.000    594.109     26.891    575.127    590.519    578.714    575.127    575.127
 47.370    608.000    596.133     11.867    575.177    592.271    579.034    575.177    575.177
 47.470    607.071    599.078      7.993    575.227    594.841    579.458    575.227    575.227
 47.570    581.000    603.497    -22.497    575.278    598.723    580.042    575.278    575.278
 47.670    587.000    610.079    -23.079    575.330    604.535    580.861    575.330    575.330
 47.770    602.000    619.473    -17.473    575.382    612.854    581.981    575.382    575.382
 47.870    640.585    631.966      8.619    575.436    623.939    583.435    575.436    575.436
 47.970    677.697    647.076     30.621    575.489    637.354    585.174    575.489    575.489
 48.070    667.000    663.084      3.916    575.544    651.557    587.023    575.544    575.544
 48.170    673.000    676.694     -3.694    575.599    663.593    588.645    575.599    575.599
 48.270    678.000    683.687     -5.687    575.655    669.678    589.607    575.655    575.655
 48.370    638.504    681.642    -43.138    575.712    667.637    589.662    575.712    575.712
 48.470    678.000    672.223      5.777    575.769    658.958    588.989    575.769    575.769
 48.570    670.000    659.540     10.460    575.827    647.315    588.016    575.827    575.827
 48.670    602.000    647.259    -45.259    575.885    635.985    587.133    575.885    575.885
 48.770    588.582    637.532    -48.950    575.944    626.888    586.569    575.944    575.944
 48.870    644.538    631.195     13.343    576.004    620.760    586.426    576.004    576.004
 48.970    624.000    628.219     -4.219    576.064    617.558    586.716    576.064    576.064
 49.070    568.000    628.157    -60.157    576.125    616.859    587.415    576.125    576.125
 49.170    619.000    630.506    -11.506    576.186    618.181    588.504    576.186    576.186
 49.270    667.951    634.975     32.976    576.248    621.214    590.003    576.248    576.248
 49.370    614.000    641.713    -27.713    576.311    625.993    592.024    576.311    576.311
 49.470    635.000    651.680    -16.680    576.374    633.174    594.871    576.374    576.374
 49.570    675.000    667.513      7.487    576.437    644.644    599.293    576.437    576.437
 49.670    679.000    695.202    -16.202    576.501    664.734    606.947    576.501    576.501
 49.770    796.000    746.627     49.373    576.566    702.050    621.103    576.566    576.566
 49.870    808.000    841.835    -33.835    576.631    771.125    647.269    576.631    576.631
 49.970    984.000   1008.315    -24.315    576.696    891.924    692.974    576.696    576.696
 50.070   1176.000   1273.649    -97.649    576.762   1084.498    765.751    576.762    576.762
 50.170   1578.000   1650.301    -72.301    576.828   1357.714    869.212    576.828    576.828
 50.270   2062.000   2115.112    -53.112    576.895   1694.890    996.902    576.895    576.895
 50.370   2572.000   2595.186    -23.186    576.962   2043.197   1128.777    576.962    576.962
 50.470   2855.000   2969.411   -114.411    577.030   2314.827   1231.538    577.030    577.030
 50.570   3059.000   3105.506    -46.506    577.098   2413.856   1268.801    577.098    577.098
 50.670   2928.000   2944.993    -16.993    577.166   2297.878   1224.437    577.166    577.166
 50.770   2602.000   2556.823     45.177    577.235   2016.933   1117.326    577.235    577.235
 50.870   2047.223   2076.465    -29.242    577.305   1669.353    984.613    577.305    577.305
 50.970   1693.393   1622.180     71.213    577.374   1341.013    858.703    577.374    577.374
 51.070   1265.000   1262.211      2.789    577.444   1081.505    758.268    577.444    577.444
 51.170   1064.000   1015.502     48.498    577.514    904.601    688.495    577.514    577.514
 51.270    897.398    867.141     30.256    577.585    799.386    645.396    577.585    577.585
 51.370    767.124    787.892    -20.768    577.656    744.348    621.241    577.656    577.656
 51.470    795.000    748.974     46.026    577.727    718.049    608.688    577.727    577.727
 51.570    737.000    728.988      8.012    577.799    704.222    602.598    577.799    577.799
 51.670    724.000    715.364      8.636    577.870    693.176    600.088    577.870    577.870
 51.770    663.872    703.112    -39.240    577.942    681.278    599.800    577.942    577.942
 51.870    692.000    691.812      0.188    578.015    668.727    601.117    578.015    578.015
 51.970    720.000    682.413     37.587    578.087    656.918    603.592    578.087    578.087
 52.070    692.000    675.444     16.556    578.160    646.986    606.621    578.160    578.160
 52.170    670.000    670.540     -0.540    578.233    639.466    609.306    578.233    578.233
 52.270    636.576    666.669    -30.093    578.307    634.400    610.571    578.307    578.307
 52.370    650.000    662.821    -12.821    578.380    631.535    609.661    578.380    578.380
 52.470    712.000    658.737     53.263    578.454    630.516    606.670    578.454    578.454
 52.570    713.000    654.962     58.038    578.528    631.054    602.433    578.528    578.528
 52.670    626.996    652.388    -25.393    578.602    633.046    597.942    578.602    578.602
 52.770    702.806    651.943     50.863    578.676    636.686    593.932    578.676    578.676
 52.870    690.000    654.646     35.354    578.751    642.607    590.789    578.751    578.751
 52.970    665.000    661.886      3.114    578.826    652.096    588.615    578.826    578.826
 53.070    683.000    675.787      7.213    578.900    667.352    587.335    578.900    578.900
 53.170    728.000    699.472     28.528    578.975    691.629    586.816    578.975    578.975
 53.270    686.336    736.963    -50.627    579.050    729.060    586.951    579.050    579.050
 53.370    796.000    792.422      3.578    579.125    783.868    587.675    579.125    579.125
 53.470    808.329    868.618    -60.289    579.201    858.883    588.929    579.201    579.201
 53.570   1000.000    964.848     35.152    579.276    953.523    590.592    579.276    579.276
 53.670   1091.000   1074.908     16.092    579.351   1061.578    592.673    579.351    579.351
 53.770   1221.000   1184.298     36.702    579.427   1168.936    594.783    579.427    579.427
 53.870   1271.000   1269.669      1.331    579.502   1252.741    596.430    579.502    579.502
 53.970   1279.823   1304.596    -24.773    579.578   1287.109    597.074    579.578    579.578
 54.070   1251.455   1275.880    -24.425    579.653   1259.110    596.442    579.653    579.653
 54.170   1184.000   1194.917    -10.917    579.729   1179.907    594.764    579.729    579.729
 54.270   1096.702   1087.615      9.088    579.805   1074.883    592.564    579.805    579.805
 54.370    931.000    977.853    -46.853    579.880    967.434    590.324    579.880    579.880
 54.470    825.411    880.824    -55.413    579.956    872.448    588.353    579.956    579.956
 54.570    847.023    803.541     43.482    580.032    796.797    586.791    580.032    580.032
 54.670    702.000    747.037    -45.037    580.107    741.497    585.659    580.107    580.107
 54.770    657.286    708.665    -51.379    580.183    703.954    584.902    580.183    580.183
 54.870    728.909    684.188     44.721    580.259    680.018    584.434    580.259    580.259
 54.970    687.000    669.355     17.645    580.334    665.526    584.167    580.334    580.334
 55.070    723.000    660.755     62.245    580.410    657.135    584.032    580.410    580.410
 55.170    669.000    656.047     12.953    580.485    652.552    583.981    580.485    580.485
 55.270    658.000    653.812      4.188    580.560    650.388    583.985    580.560    580.560
 55.370    705.000    653.278     51.722    580.635    649.886    584.029    580.635    580.635
 55.470    697.000    654.075     42.925    580.711    650.682    584.104    580.711    580.711
 55.570    687.000    656.063     30.937    580.786    652.641    584.207    580.786    580.786
 55.670    673.000    659.252     13.748    580.860    655.772    584.340    580.860    580.860
 55.770    670.000    663.780      6.220    580.935    660.211    584.504    580.935    580.935
 55.870    710.000    669.962     40.038    581.010    666.265    584.706    581.010    581.010
 55.970    650.000    678.428    -28.428    581.084    674.551    584.960    581.084    581.084
 56.070    670.000    690.404    -20.404    581.159    686.269    585.292    581.159    581.159
 56.170    684.000    708.177    -24.177    581.233    703.658    585.748    581.233    581.233
 56.270    753.769    735.766     18.002    581.307    730.652    586.414    581.307    581.307
 56.370    752.000    779.637    -27.637    581.380    773.579    587.425    581.380    581.380
 56.470    895.317    849.094     46.223    581.454    841.550    588.977    581.454    581.454
 56.570    942.000    955.737    -13.737    581.527    945.919    591.312    581.527    581.527
 56.670   1057.000   1111.339    -54.339    581.601   1098.216    594.677    581.601    581.601
 56.770   1286.590   1323.913    -37.323    581.673   1306.285    599.241    581.673    581.673
 56.870   1526.000   1592.443    -66.443    581.746   1569.138    604.984    581.746    581.746
 56.970   1898.573   1901.402     -2.829    581.819   1871.576    611.581    581.819    581.819
 57.070   2193.000   2216.226    -23.226    581.891   2179.765    618.310    581.891    581.891
 57.170   2551.000   2482.210     68.790    581.963   2440.147    624.028    581.963    581.963
 57.270   2696.000   2634.552     61.448    582.034   2589.274    627.380    582.034    582.034
 57.370   2550.000   2627.167    -77.167    582.106   2582.006    627.404    582.106    582.106
 57.470   2541.000   2462.988     78.012    582.177   2421.188    624.163    582.177    582.177
 57.570   2127.899   2191.650    -63.752    582.247   2155.400    618.702    582.247    582.247
 57.670   1858.000   1877.797    -19.797    582.318   1847.927    612.381    582.318    582.318
 57.770   1522.000   1574.319    -52.319    582.388   1550.548    606.324    582.388    582.388
 57.870   1292.000   1313.917    -21.917    582.458   1295.258    601.247    582.458    582.458
 57.970   1059.000   1110.774    -51.774    582.527   1095.886    597.510    582.527    582.527
 58.070    940.000    965.337    -25.337    582.596    952.752    595.245    582.596    582.596
 58.170    894.906    870.014     24.891    582.665    858.206    594.512    582.665    582.665
 58.270    768.000    814.546    -46.546    582.734    801.853    595.446    582.734    582.734
 58.370    827.042    789.870     37.171    582.802    774.337    598.339    582.802    582.802
 58.470    784.000    789.971     -5.971    582.869    769.215    603.617    582.869    582.869
 58.570    831.000    811.857     19.143    582.936    783.092    611.681    582.936    582.936
 58.670    898.776    854.276     44.501    583.003    814.610    622.637    583.003    583.003
 58.770    949.463    915.876     33.588    583.070    862.919    635.984    583.070    583.070
 58.870    963.000    993.411    -30.411    583.136    926.111    650.389    583.136    583.136
 58.970   1018.000   1080.449    -62.449    583.201    999.957    663.648    583.201    583.201
 59.070   1196.000   1167.329     28.671    583.266   1077.519    673.041    583.266    583.266
 59.170   1209.000   1243.453    -34.453    583.331   1150.475    676.289    583.331    583.331
 59.270   1317.000   1300.956     16.044    583.395   1211.563    672.790    583.395    583.395
 59.370   1299.310   1335.794    -36.484    583.459   1255.352    663.924    583.459    583.459
 59.470   1326.000   1345.696    -19.696    583.522   1277.211    652.049    583.522    583.522
 59.570   1232.000   1330.549    -98.549    583.585   1274.790    639.397    583.585    583.585
 59.670   1357.000   1296.271     60.729    583.647   1252.336    627.631    583.647    583.647
 59.770   1286.000   1255.537     30.463    583.709   1221.509    617.768    583.709    583.709
 59.870   1297.000   1222.738     74.262    583.771   1196.330    610.177    583.771    583.771
 59.970   1275.000   1208.650     66.350    583.831   1187.739    604.699    583.831    583.831
 60.070   1234.000   1219.004     14.996    583.892   1201.923    600.882    583.892    583.892
 60.170   1291.000   1256.004     34.996    583.951   1241.578    598.238    583.951    583.951
 60.270   1363.000   1319.083     43.917    584.011   1306.513    596.394    584.011    584.011
 60.370   1361.523   1402.543    -41.020    584.069   1391.268    595.115    584.069    584.069
 60.470   1503.000   1492.613     10.387    584.127   1482.222    594.259    584.127    584.127
 60.570   1606.000   1567.355     38.645    584.185   1557.538    593.732    584.185    584.185
 60.670   1583.000   1601.572    -18.572    584.242   1592.086    593.475    584.242    584.242
 60.770   1565.000   1577.585    -12.585    584.298   1568.222    593.447    584.298    584.298
 60.870   1530.000   1495.543     34.457    584.354   1486.107    593.623    584.354    584.354
 60.970   1350.000   1372.741    -22.741    584.409   1363.038    593.992    584.409    584.409
 61.070   1279.290   1233.134     46.157    584.464   1222.952    594.565    584.464    584.464
 61.170   1107.000   1097.801      9.199    584.518   1086.889    595.377    584.518    584.518
 61.270    932.626    981.138    -48.512    584.571    969.156    596.518    584.571    584.571
 61.370    860.000    890.744    -30.744    584.624    877.176    598.164    584.624    584.624
 61.470    869.000    828.919     40.081    584.676    812.935    600.634    584.676    584.676
 61.570    846.793    794.912     51.881    584.727    775.161    604.447    584.727    584.727
 61.670    804.000    787.250     16.750    584.778    761.601    610.384    584.778    584.778
 61.770    855.960    805.445     50.516    584.828    770.728    619.486    584.828    584.828
 61.870    868.403    850.565     17.838    584.877    802.404    632.958    584.877    584.877
 61.970    869.000    924.520    -55.520    584.926    857.404    651.931    584.926    584.926
 62.070   1054.893   1028.270     26.623    584.974    936.025    677.075    584.974    584.974
 62.170   1158.000   1159.488     -1.488    585.021   1036.206    708.122    585.021    585.021
 62.270   1270.000   1310.309    -40.309    585.068   1151.736    743.427    585.068    585.068
 62.370   1400.000   1465.715    -65.715    585.114   1270.952    779.640    585.114    585.114
 62.470   1581.000   1603.207    -22.207    585.159   1376.453    811.670    585.159    585.159
 62.570   1661.946   1695.539    -33.593    585.204   1447.191    833.324    585.204    585.204
 62.670   1776.668   1719.331     57.337    585.247   1465.106    839.280    585.247    585.247
 62.770   1648.000   1667.427    -19.427    585.291   1424.654    827.914    585.291    585.291
 62.870   1530.000   1553.759    -23.759    585.333   1336.570    802.415    585.333    585.333
 62.970   1453.000   1404.601     48.399    585.374   1221.116    768.788    585.374    585.374
 63.070   1196.469   1246.207    -49.738    585.415   1098.543    733.034    585.415    585.415
 63.170   1049.000   1098.307    -49.307    585.455    984.071    699.663    585.455    585.455
 63.270    943.000    972.795    -29.795    585.494    886.873    671.400    585.494    585.494
 63.370    918.690    874.540     44.151    585.533    810.700    649.360    585.533    585.533
 63.470    802.000    803.040     -1.040    585.570    755.165    633.435    585.570    585.570
 63.570    757.000    754.513      2.487    585.607    717.343    622.766    585.607    585.607
 63.670    691.685    723.902    -32.217    585.643    693.331    616.202    585.643    585.643
 63.770    711.920    706.462      5.458    585.678    679.460    612.666    585.678    585.678
 63.870    757.000    698.661     58.339    585.712    672.993    611.364    585.712    585.712
 63.970    647.711    698.508    -50.797    585.746    672.350    611.885    585.746    585.746
 64.070    706.376    705.606      0.770    585.779    677.124    614.236    585.779    585.779
 64.170    734.000    720.957     13.043    585.811    687.882    618.854    585.811    585.811
 64.270    731.804    746.665    -14.861    585.842    705.869    626.595    585.842    585.842
 64.370    796.000    785.480     10.520    585.872    732.618    638.676    585.872    585.872
 64.470    850.749    840.139     10.610    585.901    769.427    656.536    585.901    585.901
 64.570    972.697    912.464     60.233    585.929    816.747    681.545    585.929    585.929
 64.670   1039.000   1002.283     36.717    585.957    873.523    714.588    585.957    585.957
 64.770   1094.000   1106.287    -12.287    585.984    936.577    755.536    585.984    585.984
 64.870   1242.000   1217.056     24.944    586.009   1000.141    802.742    586.009    586.009
 64.970   1337.000   1322.729     14.271    586.034   1055.933    852.631    586.034    586.034
 65.070   1343.511   1408.284    -64.774    586.058   1094.605    899.534    586.058    586.058
 65.170   1414.791   1459.144    -44.352    586.081   1108.955    936.078    586.081    586.081
 65.270   1498.225   1465.932     32.293    586.103   1097.077    954.792    586.103    586.103
 65.370   1562.000   1428.033    133.967    586.124   1062.916    951.111    586.124    586.124
 65.470   1390.000   1354.018     35.982    586.145   1014.175    925.896    586.145    586.145
 65.570   1255.000   1258.260     -3.260    586.164    959.425    884.943    586.164    586.164
 65.670   1177.000   1155.655     21.345    586.182    905.810    836.000    586.182    586.182
 65.770   1064.000   1057.720      6.280    586.200    857.863    786.052    586.200    586.200
 65.870    918.000    971.297    -53.297    586.216    817.395    740.128    586.216    586.216
 65.970    916.677    899.057     17.619    586.232    784.149    701.159    586.232    586.232
 66.070    797.786    840.908    -43.122    586.246    756.920    670.255    586.246    586.246
 66.170    809.341    795.442     13.899    586.260    734.568    647.154    586.260    586.260
 66.270    760.000    760.820     -0.820    586.273    716.367    630.743    586.273    586.273
 66.370    690.383    735.108    -44.725    586.284    701.855    619.550    586.284    586.284
 66.470    738.916    716.475     22.441    586.295    690.656    612.122    586.295    586.295
 66.570    745.019    703.366     41.653    586.304    682.435    607.240    586.304    586.304
 66.670    655.000    694.596    -39.596    586.313    676.916    603.994    586.313    586.313
 66.770    677.000    689.343    -12.343    586.321    673.894    601.769    586.321    586.321
 66.870    612.000    687.100    -75.100    586.327    673.247    600.179    586.327    586.327
 66.970    611.000    687.649    -76.649    586.333    674.981    598.999    586.333    586.333
 67.070    649.000    691.100    -42.100    586.337    679.327    598.108    586.337    586.337
 67.170    680.774    698.020    -17.246    586.341    686.910    597.448    586.341    586.341
 67.270    750.428    709.632     40.796    586.343    698.964    597.009    586.343    586.343
 67.370    701.469    728.067    -26.599    586.345    717.595    596.813    586.345    586.345
 67.470    775.055    756.619     18.436    586.345    746.039    596.918    586.345    586.345
 67.570    844.000    799.889     44.111    586.344    788.807    597.415    586.344    586.344
 67.670    840.000    863.675    -23.675    586.343    851.577    598.425    586.343    586.343
 67.770    904.000    954.413    -50.413    586.340    940.649    600.083    586.340    586.340
 67.870   1040.000   1078.066    -38.066    586.336   1061.860    602.518    586.336    586.336
 67.970   1179.000   1238.471    -59.471    586.331   1218.969    605.808    586.331    586.331
 68.070   1426.000   1435.356     -9.356    586.325   1411.718    609.945    586.325    586.325
 68.170   1664.000   1662.377      1.623    586.318   1633.911    614.781    586.318    586.318
 68.270   1955.663   1905.499     50.164    586.310   1871.831    620.001    586.310    586.310
 68.370   2123.739   2142.031    -18.292    586.300   2103.303    625.093    586.300    586.300
 68.470   2412.308   2341.227     71.082    586.290   2298.268    629.367    586.290    586.290
 68.570   2516.000   2468.811     47.189    586.278   2423.215    632.054    586.278    586.278
 68.670   2559.000   2497.704     61.296    586.266   2451.660    632.546    586.266    586.266
 68.770   2385.000   2420.964    -35.964    586.252   2376.805    630.686    586.252    586.252
 68.870   2377.000   2255.892    121.108    586.237   2215.558    626.860    586.237    586.237
 68.970   2000.530   2034.735    -34.204    586.221   1999.446    621.787    586.221    586.221
 69.070   1863.000   1791.305     71.695    586.204   1761.535    616.224    586.204    586.204
 69.170   1546.790   1552.958     -6.169    586.186   1528.574    610.783    586.186    586.186
 69.270   1339.000   1338.319      0.681    586.166   1318.778    605.880    586.166    586.166
 69.370   1155.000   1157.676     -2.676    586.146   1142.211    601.744    586.146    586.146
 69.470   1059.000   1014.309     44.691    586.124   1002.085    598.448    586.124    586.124
 69.570    842.866    906.308    -63.442    586.101    896.531    595.950    586.101    586.101
 69.670    880.991    828.579     52.412    586.077    820.572    594.134    586.077    586.077
 69.770    799.000    774.717     24.283    586.052    767.946    592.857    586.052    586.052
 69.870    800.000    738.422     61.578    586.026    732.492    591.979    586.026    586.026
 69.970    709.532    714.338     -4.806    585.998    708.976    591.376    585.998    585.998
 70.070    738.092    698.382     39.710    585.969    693.405    590.957    585.969    585.969
 70.170    712.000    687.704     24.296    585.939    682.986    590.664    585.939    585.939
 70.270    640.345    680.442    -40.097    585.908    675.902    590.453    585.908    585.908
 70.370    745.000    675.464     69.536    585.876    671.046    590.297    585.876    585.876
 70.470    698.000    672.118     25.882    585.843    667.779    590.183    585.843    585.843
 70.570    659.000    670.057    -11.057    585.808    665.763    590.102    585.808    585.808
 70.670    625.131    669.129    -43.997    585.772    664.847    590.051    585.772    585.772
 70.770    683.728    669.325     14.403    585.735    665.024    590.033    585.735    585.735
 70.870    690.000    670.780     19.220    585.697    666.421    590.051    585.697    585.697
 70.970    711.000    673.804     37.196    585.657    669.339    590.115    585.657    585.657
 71.070    674.000    678.967     -4.967    585.617    674.331    590.243    585.617    585.617
 71.170    641.006    687.212    -46.206    585.575    682.310    590.463    585.575    585.575
 71.270    703.000    699.990      3.010    585.532    694.683    590.819    585.532    585.532
 71.370    710.000    719.394     -9.394    585.487    713.480    591.374    585.487    585.487
 71.470    746.000    748.228     -2.228    585.442    741.419    592.213    585.442    585.442
 71.570    837.000    789.936     47.064    585.395    781.841    593.438    585.395    585.395
 71.670    842.000    848.328     -6.328    585.347    838.439    595.164    585.347    585.347
 71.770    901.685    927.018    -25.334    585.298    914.719    597.501    585.298    585.298
 71.870   1013.000   1028.618    -15.618    585.247   1013.213    600.526    585.247    585.247
 71.970   1145.000   1153.728     -8.728    585.195   1134.505    604.260    585.195    585.195
 72.070   1262.117   1299.918    -37.800    585.142   1276.237    608.631    585.142    585.142
 72.170   1387.949   1460.812    -72.863    585.088   1432.226    613.449    585.088    585.088
 72.270   1698.444   1625.432     73.013    585.033   1591.822    618.390    585.033    585.033
 72.370   1734.000   1777.989    -43.989    584.976   1739.714    622.983    584.976    584.976
 72.470   1902.000   1898.904      3.096    584.918   1856.908    626.646    584.918    584.918
 72.570   1953.000   1968.405    -15.405    584.859   1924.222    628.791    584.859    584.859
 72.670   1979.875   1973.039      6.836    584.798   1928.602    629.017    584.798    584.798
 72.770   1898.000   1911.763    -13.763    584.736   1869.025    627.296    584.736    584.736
 72.870   1875.109   1796.501     78.608    584.673   1757.053    623.985    584.673    584.673
 72.970   1729.186   1646.589     82.597    584.609   1611.440    619.657    584.609    584.609
 73.070   1424.875   1481.960    -57.084    584.543   1451.529    614.904    584.543    584.543
 73.170   1335.000   1319.044     15.956    584.476   1293.270    610.203    584.476    584.476
 73.270   1198.000   1169.482     28.518    584.408   1147.972    605.887    584.408    584.408
 73.370   1022.000   1040.229    -18.229    584.338   1022.403    602.144    584.338    584.338
 73.470    963.829    934.193     29.636    584.268    919.402    599.046    584.268    584.268
 73.570    866.000    851.132     14.868    584.196    838.737    596.580    584.196    584.196
 73.670    847.000    788.679     58.321    584.122    778.104    594.689    584.122    584.122
 73.770    769.000    743.356     25.644    584.048    734.103    593.294    584.048    584.048
 73.870    722.000    711.412     10.588    583.972    703.061    592.317    583.972    583.972
 73.970    699.000    689.403      9.597    583.894    681.604    591.689    583.894    583.894
 74.070    695.000    674.510     20.490    583.816    666.963    591.360    583.816    583.816
 74.170    678.000    664.629     13.371    583.736    657.062    591.301    583.736    583.736
 74.270    680.274    658.308     21.966    583.655    650.461    591.502    583.655    583.655
 74.370    632.000    654.607    -22.607    583.572    646.219    591.963    583.572    583.572
 74.470    647.000    652.937     -5.937    583.489    643.746    592.687    583.489    583.489
 74.570    646.000    652.915     -6.915    583.404    642.662    593.667    583.404    583.404
 74.670    595.000    654.238    -59.238    583.317    642.687    594.884    583.317    583.317
 74.770    663.000    656.602      6.398    583.230    643.564    596.290    583.230    583.230
 74.870    644.000    659.642    -15.642    583.141    645.001    597.809    583.141    583.141
 74.970    700.000    662.893     37.107    583.050    646.645    599.331    583.050    583.050
 75.070    664.000    665.791     -1.791    582.959    648.073    600.715    582.959    582.959
 75.170    688.000    667.723     20.277    582.866    648.827    601.804    582.866    582.866
 75.270    635.000    668.188    -33.188    582.772    648.529    602.474    582.772    582.772
 75.370    679.943    667.004     12.939    582.676    647.028    602.695    582.676    582.676
 75.470    746.000    664.429     81.571    582.579    644.486    602.562    582.579    582.579
 75.570    732.000    661.090     70.910    582.481    641.322    602.284    582.481    582.481
 75.670    668.000    657.805     10.195    582.381    638.077    602.138    582.381    582.381
 75.770    686.000    655.448     30.552    582.281    635.313    602.437    582.281    582.281
 75.870    735.000    654.901     80.099    582.178    633.571    603.522    582.178    582.178
 75.970    660.000    657.053      2.947    582.075    633.369    605.764    582.075    582.075
 76.070    640.000    662.798    -22.798    581.970    635.205    609.559    581.970    581.970
 76.170    659.863    673.005    -13.142    581.864    639.542    615.312    581.864    581.864
 76.270    622.000    688.440    -66.440    581.757    646.776    623.396    581.757    581.757
 76.370    726.000    709.656     16.344    581.648    657.177    634.090    581.648    581.648
 76.470    734.979    736.835     -1.856    581.538    670.819    647.504    581.538    581.538
 76.570    798.009    769.621     28.388    581.426    687.492    663.492    581.426    581.426
 76.670    803.000    806.960     -3.960    581.314    706.622    681.574    581.314    581.314
 76.770    828.220    846.962    -18.741    581.200    727.201    700.870    581.200    581.200
 76.870    894.000    886.814      7.186    581.084    747.743    720.053    581.084    581.084
 76.970    977.944    922.799     55.145    580.967    766.289    737.367    580.967    580.967
 77.070    965.000    950.586     14.414    580.849    780.565    750.757    580.849    580.849
 77.170    979.000    966.020     12.980    580.730    788.388    758.251    580.730    580.730
 77.270    982.000    966.397     15.603    580.609    788.337    758.565    580.609    580.609
 77.370    947.107    951.567     -4.460    580.487    780.334    751.627    580.487    580.487
 77.470    945.000    923.982     21.018    580.364    765.658    738.607    580.364    580.364
 77.570    890.000    887.689      2.311    580.239    746.428    721.433    580.239    580.239
 77.670    864.000    847.019     16.981    580.113    724.912    702.168    580.113    580.113
 77.770    801.000    805.729     -4.729    579.986    703.074    682.599    579.986    579.986
 77.870    776.224    766.661      9.563    579.857    682.404    664.082    579.857    579.857
 77.970    697.379    731.713    -34.334    579.727    663.896    647.521    579.727    579.727
 78.070    693.000    701.919     -8.919    579.596    648.088    633.408    579.596    579.596
 78.170    666.310    677.586    -11.276    579.463    635.144    621.892    579.463    579.463
 78.270    638.840    658.471    -19.631    579.330    624.933    612.857    579.330    579.330
 78.370    605.000    643.972    -38.972    579.194    617.141    606.017    579.194    579.194
 78.470    636.000    633.304      2.696    579.058    611.354    601.001    579.058    579.058
 78.570    659.586    625.649     33.937    578.920    607.144    597.419    578.920    578.920
 78.670    601.000    620.262    -19.262    578.781    604.120    594.917    578.781    578.781
 78.770    579.000    616.518    -37.518    578.640    601.953    593.201    578.640    578.640
 78.870    633.278    613.939     19.340    578.498    600.391    592.042    578.498    578.498
 78.970    645.000    612.176     32.824    578.355    599.251    591.276    578.355    578.355
 79.070    561.167    610.995    -49.828    578.211    598.410    590.792    578.211    578.211
 79.170    621.485    610.250     11.236    578.065    597.788    590.523    578.065    578.065
 79.270    622.000    609.856     12.144    577.918    597.340    590.431    577.918    577.918
 79.370    563.916    609.780    -45.864    577.770    597.045    590.501    577.770    577.770
 79.470    603.000    610.023     -7.023    577.620    596.899    590.740    577.620    577.620
 79.570    649.905    610.621     39.284    577.469    596.912    591.174    577.469    577.469
 79.670    593.000    611.647    -18.647    577.317    597.106    591.853    577.317    577.317
 79.770    612.000    613.219     -1.219    577.163    597.513    592.864    577.163    577.163
 79.870    618.000    615.516      2.484    577.008    598.179    594.340    577.008    577.008
 79.970    648.000    618.806     29.194    576.852    599.163    596.487    576.852    576.852
 80.070    627.000    623.470      3.530    576.695    600.546    599.610    576.695    576.695
 80.170    608.000    630.043    -22.043    576.536    602.432    604.136    576.536    576.536
 80.270    623.000    639.241    -16.241    576.376    604.955    610.647    576.376    576.376
 80.370    605.000    651.973    -46.973    576.214    608.288    619.880    576.214    576.214
 80.470    675.000    669.328      5.672    576.052    612.640    632.717    576.052    576.052
 80.570    698.838    692.509      6.329    575.888    618.250    650.118    575.888    575.888
 80.670    770.209    722.713     47.495    575.723    625.379    673.020    575.723    575.723
 80.770    768.000    760.967      7.033    575.556    634.294    702.186    575.556    575.556
 80.870    815.000    807.922      7.078    575.389    645.245    738.014    575.389    575.389
 80.970    889.828    863.618     26.211    575.220    658.434    780.344    575.220    575.220
 81.070    952.000    927.239     24.761    575.049    673.961    828.264    575.049    575.049
 81.170   1000.353    996.888      3.465    574.878    691.737    879.960    574.878    574.878
 81.270   1164.000   1069.440     94.560    574.705    711.418    932.660    574.705    574.705
 81.370   1115.544   1140.586    -25.041    574.531    732.355    982.699    574.531    574.531
 81.470   1289.000   1205.149     83.851    574.356    753.616   1025.836    574.356    574.356
 81.570   1309.929   1257.805     52.124    574.179    774.077   1057.868    574.179    574.179
 81.670   1343.000   1294.079     48.921    574.001    792.576   1075.483    574.001    574.001
 81.770   1322.300   1311.193     11.107    573.822    808.055   1076.959    573.822    573.822
 81.870   1296.079   1308.590    -12.511    573.642    819.800   1062.451    573.642    573.642
 81.970   1331.088   1287.449     43.638    573.460    827.273   1033.674    573.460    573.460
 82.070   1202.724   1250.569    -47.845    573.278    830.305    993.596    573.278    573.278
 82.170   1206.019   1201.857      4.162    573.094    829.028    945.989    573.094    573.094
 82.270   1194.000   1145.626     48.374    572.908    823.741    894.868    572.908    572.908
 82.370   1075.524   1085.895    -10.370    572.722    814.795    843.902    572.722    572.722
 82.470   1015.000   1025.992    -10.992    572.534    802.618    795.990    572.534    572.534
 82.570    961.509    968.494     -6.985    572.345    787.822    753.098    572.345    572.345
 82.670    891.632    915.249    -23.617    572.155    771.200    716.281    572.155    572.155
 82.770    883.000    867.372     15.628    571.964    753.592    685.817    571.964    571.964
 82.870    772.000    825.265    -53.265    571.772    735.709    661.395    571.772    571.772
 82.970    787.237    788.767     -1.530    571.578    718.078    642.328    571.578    571.578
 83.070    745.122    757.418    -12.295    571.383    701.101    627.754    571.383    571.383
 83.170    733.000    730.712      2.288    571.187    685.150    616.796    571.187    571.187
 83.270    760.557    708.238     52.319    570.990    670.599    608.668    570.990    570.990
 83.370    650.000    689.701    -39.701    570.791    657.799    602.725    570.791    570.791
 83.470    659.753    674.887    -15.134    570.592    647.030    598.471    570.592    570.592
 83.570    565.000    663.622    -98.622    570.391    638.484    595.544    570.391    570.391
 83.670    585.000    655.742    -70.742    570.189    632.247    593.690    570.189    570.189
 83.770    634.000    651.058    -17.058    569.986    628.308    592.734    569.986    569.986
 83.870    625.000    649.326    -24.326    569.781    626.554    592.542    569.781    569.781
 83.970    629.000    650.213    -21.213    569.576    626.772    592.997    569.576    569.576
 84.070    687.966    653.282     34.684    569.369    628.647    593.975    569.369    569.369
 84.170    652.000    657.975     -5.975    569.162    631.771    595.329    569.162    569.162
 84.270    594.000    663.619    -69.619    568.953    635.645    596.883    568.953    568.953
 84.370    662.000    669.435     -7.435    568.743    639.698    598.430    568.743    568.743
 84.470    663.000    674.576    -11.576    568.532    643.310    599.743    568.532    568.532
 84.570    606.000    678.198    -72.198    568.319    645.871    600.591    568.319    568.319
 84.670    722.203    679.594     42.609    568.106    646.866    600.778    568.106    568.106
 84.770    609.000    678.346    -69.346    567.892    645.990    600.193    567.892    567.892
 84.870    712.929    674.432     38.497    567.676    643.220    598.838    567.676    567.676
 84.970    589.000    668.216    -79.216    567.460    638.806    596.823    567.460    567.460
 85.070    644.000    660.310    -16.310    567.242    633.174    594.338    567.242    567.242
 85.170    577.000    651.422    -74.422    567.023    626.814    591.596    567.023    567.023
 85.270    610.055    642.233    -32.178    566.803    620.197    588.809    566.803    566.803
 85.370    587.929    633.326    -45.397    566.582    613.718    586.166    566.582    566.582
 85.470    633.000    625.165      7.835    566.360    607.680    583.824    566.360    566.360
 85.570    583.553    618.086    -34.533    566.137    602.294    581.911    566.137    566.137
 85.670    629.000    612.307     16.693    565.913    597.678    580.526    565.913    565.913
 85.770    568.000    607.944    -39.944    565.688    593.873    579.744    565.688    565.688
 85.870    660.000    605.026     54.974    565.461    590.859    579.615    565.461    565.461
 85.970    629.000    603.525     25.475    565.234    588.574    580.172    565.234    565.234
 86.070    574.000    603.369    -29.369    565.006    586.936    581.423    565.006    565.006
 86.170    623.855    604.458     19.397    564.777    585.862    583.356    564.777    564.777
 86.270    613.630    606.676      6.955    564.546    585.278    585.925    564.546    564.546
 86.370    607.000    609.891     -2.891    564.315    585.134    589.050    564.315    564.315
 86.470    623.000    613.958      9.042    564.083    585.408    592.606    564.083    564.083
 86.570    604.000    618.716    -14.716    563.849    586.113    596.421    563.849    563.849
 86.670    636.000    623.984     12.016    563.615    587.293    600.272    563.615    563.615
 86.770    663.000    629.568     33.432    563.380    589.023    603.886    563.380    563.380
 86.870    594.407    635.263    -40.856    563.144    591.406    606.956    563.144    563.144
 86.970    626.732    640.877    -14.145    562.907    594.564    609.170    562.907    562.907
 87.070    595.316    646.277    -50.960    562.668    598.624    610.265    562.668    562.668
 87.170    702.000    651.430     50.570    562.429    603.709    610.089    562.429    562.429
 87.270    680.194    656.434     23.759    562.189    609.910    608.645    562.189    562.189
 87.370    680.000    661.480     18.520    561.948    617.270    606.083    561.948    561.948
 87.470    676.779    666.780      9.999    561.707    625.750    602.652    561.707    561.707
 87.570    678.745    672.482      6.263    561.464    635.216    598.636    561.464    561.464
 87.670    760.000    678.600     81.400    561.220    645.408    594.309    561.220    561.220
 87.770    722.000    684.982     37.018    560.976    655.937    589.908    560.976    560.976
 87.870    717.366    691.290     26.076    560.730    666.271    585.628    560.730    560.730
 87.970    688.509    697.017     -8.508    560.484    675.754    581.618    560.484    560.484
 88.070    734.000    701.525     32.475    560.237    683.647    577.981    560.237    560.237
 88.170    754.000    704.157     49.843    559.989    689.234    574.776    559.989    559.989
 88.270    676.694    704.398    -27.703    559.740    691.985    572.021    559.740    559.740
 88.370    733.761    702.042     31.719    559.490    691.707    569.700    559.490    559.490
 88.470    657.000    697.266    -40.266    559.239    688.611    567.781    559.239    559.239
 88.570    702.000    690.571     11.429    558.988    683.244    566.214    558.988    558.988
 88.670    715.000    682.639     32.361    558.736    676.339    564.949    558.736    558.736
 88.770    650.000    674.206    -24.206    558.483    668.681    563.936    558.483    558.483
 88.870    660.000    665.979     -5.979    558.229    661.020    563.131    558.229    558.229
 88.970    668.000    658.588      9.412    557.974    654.024    562.496    557.974    557.974
 89.070    690.001    652.551     37.449    557.719    648.243    561.999    557.719    557.719
 89.170    610.836    648.248    -37.412    557.463    644.079    561.615    557.463    557.463
 89.270    691.000    645.891     45.109    557.206    641.769    561.324    557.206    557.206
 89.370    617.000    645.521    -28.521    556.948    641.368    561.108    556.948    556.948
 89.470    653.000    647.005      5.995    556.690    642.762    560.949    556.690    556.690
 89.570    666.036    650.050     15.986    556.431    645.673    560.833    556.431    556.431
 89.670    699.091    654.220     44.871    556.171    649.684    560.741    556.171    556.171
 89.770    688.751    658.958     29.794    555.910    654.257    560.654    555.910    555.910
 89.870    659.000    663.617     -4.617    555.649    658.764    560.552    555.649    555.649
 89.970    636.000    667.505    -31.505    555.387    662.535    560.414    555.387    555.387
 90.070    636.087    669.967    -33.880    555.124    664.932    560.221    555.124    555.124
 90.170    635.000    670.482    -35.482    554.861    665.453    559.956    554.861    554.861
 90.270    660.894    668.779     -7.885    554.597    663.831    559.613    554.597    554.597
 90.370    632.000    664.886    -32.886    554.332    660.091    559.194    554.332    554.332
 90.470    647.000    659.100    -12.100    554.067    654.521    558.710    554.067    554.067
 90.570    621.000    651.891    -30.891    553.801    647.575    558.178    553.801    553.801
 90.670    662.500    643.790     18.710    553.535    639.763    557.617    553.535    553.535
 90.770    606.000    635.307    -29.307    553.268    631.581    557.043    553.268    553.268
 90.870    672.688    626.886     45.801    553.000    623.457    556.472    553.000    553.000
 90.970    638.544    618.884     19.660    552.732    615.736    555.916    552.732    552.732
 91.070    574.513    611.567    -37.053    552.463    608.676    555.383    552.463    552.463
 91.170    561.740    605.108    -43.368    552.194    602.444    554.881    552.194    552.194
 91.270    556.000    599.602    -43.602    551.924    597.132    554.412    551.924    551.924
 91.370    628.316    595.071     33.245    551.653    592.762    553.976    551.653    551.653
 91.470    624.438    591.487     32.951    551.382    589.306    553.573    551.382    551.382
 91.570    625.000    588.786     36.214    551.111    586.702    553.201    551.111    551.111
 91.670    592.000    586.889      5.111    550.839    584.875    552.856    550.839    550.839
 91.770    548.566    585.718    -37.152    550.566    583.748    552.538    550.566    550.566
 91.870    591.659    585.210      6.449    550.294    583.261    552.242    550.294    550.294
 91.970    592.000    585.327      6.673    550.020    583.375    551.969    550.020    550.020
 92.070    565.000    586.064    -21.064    549.746    584.087    551.719    549.746    549.746
 92.170    612.000    587.452     24.548    549.472    585.426    551.492    549.472    549.472
 92.270    574.505    589.559    -15.055    549.197    587.458    551.291    549.197    549.197
 92.370    563.396    592.491    -29.095    548.922    590.283    551.119    548.922    548.922
 92.470    642.000    596.378     45.622    548.647    594.030    550.981    548.647    548.647
 92.570    633.842    601.377     32.465    548.371    598.849    550.883    548.371    548.371
 92.670    618.746    607.652     11.094    548.094    604.899    550.827    548.094    548.094
 92.770    653.000    615.363     37.637    547.818    612.336    550.820    547.818    547.818
 92.870    640.000    624.653     15.347    547.541    621.299    550.865    547.541    547.541
 92.970    703.000    635.624     67.376    547.263    631.890    550.962    547.263    547.263
 93.070    652.000    648.328      3.672    546.986    644.161    551.111    546.986    546.986
 93.170    674.000    662.749     11.251    546.708    658.098    551.309    546.708    546.708
 93.270    671.000    678.789     -7.789    546.430    673.611    551.551    546.430    546.430
 93.370    695.000    696.259     -1.259    546.151    690.516    551.830    546.151    546.151
 93.470    686.519    714.873    -28.355    545.872    708.537    552.137    545.872    545.872
 93.570    725.000    734.247     -9.247    545.593    727.298    552.464    545.593    545.593
 93.670    728.000    753.915    -25.915    545.314    746.341    552.805    545.314    545.314
 93.770    724.897    773.378    -48.481    545.034    765.166    553.159    545.034    545.034
 93.870    837.079    792.184     44.895    544.755    783.313    553.534    544.755    544.755
 93.970    824.000    810.031     13.969    544.475    800.459    553.954    544.475    544.475
 94.070    842.000    826.841     15.159    544.195    816.482    554.459    544.195    544.195
 94.170    878.234    842.846     35.388    543.914    831.558    555.107    543.914    543.914
 94.270    806.983    858.382    -51.398    543.634    845.950    555.971    543.634    543.634
 94.370    879.311    873.822      5.489    543.353    859.958    557.122    543.353    543.353
 94.470    884.000    889.438     -5.438    543.073    873.785    558.632    543.073    543.073
 94.570    910.000    905.324      4.676    542.792    887.471    560.552    542.792    542.792
 94.670    942.000    921.406     20.594    542.511    900.913    562.911    542.511    542.511
 94.770    905.615    937.509    -31.893    542.230    913.939    565.708    542.230    542.230
 94.870    891.000    953.437    -62.437    541.949    926.395    568.902    541.949    541.949
 94.970    947.000    968.992    -21.992    541.668    938.162    572.411    541.668    541.668
 95.070   1034.000    983.905     50.095    541.387    949.097    576.111    541.387    541.387
 95.170   1038.107    997.730     40.377    541.106    958.920    579.836    541.106    541.106
 95.270    977.000   1009.758    -32.758    540.824    967.123    583.383    540.824    540.824
 95.370   1006.000   1019.005    -13.005    540.543    972.953    586.525    540.543    540.543
 95.470   1020.000   1024.302     -4.302    540.262    975.479    589.023    540.262    540.262
 95.570    996.000   1024.484    -28.484    539.981    973.754    590.658    539.981    539.981
 95.670   1057.679   1018.659     39.020    539.700    967.053    591.261    539.700    539.700
 95.770   1037.000   1006.469     30.531    539.419    955.099    590.755    539.419    539.419
 95.870    978.374    988.237     -9.862    539.138    938.187    589.164    539.138    539.138
 95.970   1003.000    964.954     38.046    538.858    917.186    586.610    538.858    538.858
 96.070    911.000    938.109    -27.109    538.577    893.389    583.288    538.577    538.577
 96.170    876.000    909.460    -33.460    538.296    868.323    579.429    538.296    538.296
 96.270    861.000    880.843    -19.843    538.016    843.588    575.270    538.016    538.016
 96.370    954.000    854.040     99.960    537.736    820.745    571.030    537.736    537.736
 96.470    843.160    830.708     12.453    537.456    801.261    566.900    537.456    537.456
 96.570    851.000    812.334     38.666    537.176    786.470    563.035    537.176    537.176
 96.670    826.000    800.217     25.783    536.897    777.554    559.549    536.897    536.897
 96.770    818.000    795.450     22.550    536.618    775.533    556.518    536.618    536.618
 96.870    752.561    798.916    -46.355    536.339    781.252    553.978    536.339    536.339
 96.970    839.000    811.276     27.724    536.060    795.364    551.938    536.060    536.060
 97.070    794.013    832.962    -38.949    535.781    818.318    550.381    535.781    535.781
 97.170    891.000    864.153     26.847    535.503    850.328    549.273    535.503    535.503
 97.270    927.736    904.757     22.979    535.226    891.344    548.571    535.226    535.226
 97.370    996.000    954.359     41.641    534.948    941.001    548.227    534.948    534.948
 97.470   1094.000   1012.156     81.844    534.671    998.549    548.188    534.671    534.671
 97.570   1060.651   1077.014    -16.363    534.394   1062.906    548.401    534.394    534.394
 97.670   1123.915   1147.322    -23.408    534.118   1132.521    548.810    534.118    534.118
 97.770   1313.000   1220.933     92.067    533.842   1205.304    549.353    533.842    533.842
 97.870   1362.511   1295.226     67.285    533.567   1278.704    549.967    533.567    533.567
 97.970   1376.000   1367.083      8.917    533.292   1349.671    550.581    533.292    533.292
 98.070   1445.000   1432.984     12.016    533.017   1414.761    551.122    533.017    533.017
 98.170   1506.310   1489.199     17.111    532.743   1470.317    551.514    532.743    532.743
 98.270   1559.284   1532.131     27.153    532.470   1512.814    551.688    532.470    532.470
 98.370   1561.820   1558.814      3.006    532.197   1539.343    551.585    532.197    532.197
 98.470   1662.000   1567.436     94.564    531.924   1548.125    551.171    531.924    531.924
 98.570   1556.000   1557.710     -1.710    531.652   1538.876    550.442    531.652    531.652
 98.670   1490.000   1530.910    -40.910    531.381   1512.845    549.421    531.381    531.381
 98.770   1472.000   1489.584    -17.584    531.111   1472.531    548.156    531.111    531.111
 98.870   1384.000   1437.084    -53.084    530.841   1421.222    546.709    530.841    530.841
 98.970   1302.471   1377.092    -74.621    530.571   1362.535    545.146    530.571    530.571
 99.070   1322.588   1313.274      9.314    530.302   1300.071    543.530    530.302    530.302
 99.170   1280.000   1249.044     30.956    530.034   1237.186    541.921    530.034    530.034
 99.270   1138.593   1187.447    -48.854    529.767   1176.876    540.367    529.767    529.767
 99.370   1133.000   1131.103      1.897    529.500   1121.720    538.911    529.500    529.500
 99.470   1079.337   1082.199     -2.862    529.235   1073.875    537.582    529.235    529.235
 99.570   1101.457   1042.516     58.941    528.969   1035.098    536.406    528.969    528.969
 99.670    959.000   1013.460    -54.460    528.705   1006.782    535.395    528.705    528.705
 99.770   1003.000    996.093      6.907    528.442    989.982    534.556    528.442    528.442
 99.870    960.000    991.157    -31.157    528.179    985.443    533.890    528.179    528.179
 99.970   1058.393    999.091     59.301    527.917    993.608    533.390    527.917    527.917
100.070    999.000   1020.034    -21.034    527.656   1014.628    533.046    527.656    527.656
100.170   1092.000   1053.834     38.166    527.396   1048.366    532.843    527.396    527.396
100.270   1043.606   1100.048    -56.442    527.137   1094.396    532.763    527.137    527.137
100.370   1200.000   1157.932     42.068    526.879   1151.997    532.787    526.879    526.879
100.470   1258.000   1226.425     31.575    526.621   1220.128    532.892    526.621    526.621
100.570   1335.000   1304.120     30.880    526.365   1297.406    533.055    526.365    526.365
100.670   1311.931   1389.233    -77.302    526.110   1382.075    533.250    526.110    526.110
100.770   1452.000   1479.585    -27.585    525.855   1471.981    533.451    525.855    525.855
100.870   1520.389   1572.599    -52.210    525.602   1564.573    533.631    525.602    525.602
100.970   1606.638   1665.419    -58.780    525.350   1657.022    533.765    525.350    525.350
101.070   1781.000   1755.027     25.973    525.099   1746.332    533.830    525.099    525.099
101.170   1838.000   1838.479     -0.479    524.849   1829.576    533.809    524.849    524.849
101.270   1858.851   1913.195    -54.344    524.600   1904.181    533.692    524.600    524.600
101.370   2057.000   1977.135     79.865    524.352   1968.106    533.480    524.352    524.352
101.470   2015.092   2028.812    -13.720    524.106   2019.852    533.184    524.106    524.106
101.570   2129.000   2067.145     61.855    523.860   2058.321    532.822    523.860    523.860
101.670   2234.000   2091.258    142.742    523.616   2082.610    532.418    523.616    523.616
101.770   2104.000   2100.361      3.639    523.373   2091.907    531.995    523.373    523.373
101.870   2169.670   2093.836     75.835    523.131   2085.569    531.578    523.131    523.131
101.970   2094.233   2071.516     22.718    522.891   2063.409    531.186    522.891    522.891
102.070   2080.604   2034.042     46.562    522.652   2026.052    530.835    522.652    522.652
102.170   1963.000   1983.106    -20.106    522.414   1975.178    530.538    522.414    522.414
102.270   1908.000   1921.423    -13.423    522.178   1913.493    530.301    522.178    522.178
102.370   1820.835   1852.418    -31.583    521.943   1844.424    530.124    521.943    521.943
102.470   1628.000   1779.762   -151.762    521.709   1771.647    530.004    521.709    521.709
102.570   1788.462   1706.916     81.547    521.477   1698.632    529.930    521.477    521.477
102.670   1543.000   1636.796    -93.796    521.246   1628.313    529.888    521.246    521.246
102.770   1645.426   1571.607     73.819    521.017   1562.911    529.860    521.017    521.017
102.870   1435.000   1512.772    -77.772    520.789   1503.868    529.828    520.789    520.789
102.970   1418.256   1460.952    -42.696    520.563   1451.865    529.774    520.563    520.563
103.070   1312.000   1416.090   -104.090    520.338   1406.860    529.684    520.338    520.338
103.170   1414.865   1377.487     37.378    520.115   1368.165    529.545    520.115    520.115
103.270   1274.000   1343.898    -69.898    519.893   1334.547    529.347    519.893    519.893
103.370   1332.000   1313.677     18.323    519.673   1304.370    529.080    519.673    519.673
103.470   1236.000   1284.976    -48.976    519.455   1275.792    528.735    519.455    519.455
103.570   1204.667   1255.988    -51.320    519.238   1247.013    528.309    519.238    519.238
103.670   1175.000   1225.212    -50.212    519.023   1216.532    527.798    519.023    519.023
103.770   1166.341   1191.660    -25.319    518.810   1183.357    527.208    518.810    518.810
103.870   1220.444   1154.949     65.495    518.598   1147.094    526.546    518.598    518.598
103.970   1100.000   1115.252    -15.252    518.389   1107.902    525.829    518.389    518.389
104.070   1006.000   1073.182    -67.182    518.181   1066.377    525.073    518.181    518.181
104.170   1039.000   1029.579      9.421    517.974   1023.342    524.296    517.974    517.974
104.270    972.000    985.383    -13.383    517.770    979.717    523.515    517.770    517.770
104.370    961.000    941.520     19.480    517.568    936.416    522.745    517.568    517.568
104.470    921.000    898.839     22.161    517.367    894.276    521.998    517.367    517.367
104.570    844.000    858.078    -14.078    517.169    854.024    521.284    517.169    517.169
104.670    801.000    819.839    -18.839    516.972    816.256    520.610    516.972    516.972
104.770    811.000    784.582     26.418    516.777    781.426    519.981    516.777    516.777
104.870    766.000    752.619     13.381    516.584    749.846    519.400    516.584    516.584
104.970    743.067    724.119     18.948    516.394    721.681    518.867    516.394    516.394
105.070    750.000    699.117     50.883    516.205    696.971    518.382    516.205    516.205
105.170    693.000    677.530     15.470    516.018    675.634    517.940    516.018    516.018
105.270    705.000    659.179     45.821    515.834    657.498    517.536    515.834    515.834
105.370    671.955    643.877     28.078    515.652    642.368    517.177    515.652    515.652
105.470    647.000    631.328     15.672    515.472    629.958    516.854    515.472    515.472
105.570    691.000    621.239     69.761    515.294    619.980    516.562    515.294    515.294
105.670    619.000    613.327      5.673    515.118    612.153    516.298    515.118    515.118
105.770    641.000    607.324     33.676    514.944    606.214    516.058    514.944    514.944
105.870    596.000    602.998     -6.998    514.773    601.932    515.840    514.773    514.773
105.970    556.858    600.152    -43.294    514.604    599.114    515.641    514.604    514.604
106.070    623.000    598.633     24.367    514.437    597.607    515.460    514.437    514.437
106.170    597.000    598.329     -1.329    514.273    597.301    515.295    514.273    514.273
106.270    618.000    599.164     18.836    514.111    598.122    515.146    514.111    514.111
106.370    632.837    601.098     31.739    513.952    600.028    515.011    513.952    513.952
106.470    561.385    604.115    -42.730    513.795    603.005    514.892    513.795    513.795
106.570    612.000    608.218      3.782    513.640    607.055    514.788    513.640    513.640
106.670    628.050    613.422     14.628    513.488    612.193    514.699    513.488    513.488
106.770    664.382    619.745     44.637    513.338    618.436    514.625    513.338    513.338
106.870    646.523    627.197     19.326    513.191    625.796    514.567    513.191    513.191
106.970    650.000    635.776     14.224    513.047    634.270    514.525    513.047    513.047
107.070    636.000    645.454     -9.454    512.905    643.830    514.498    512.905    512.905
107.170    666.000    656.169      9.831    512.766    654.414    514.485    512.766    512.766
107.270    723.770    667.815     55.955    512.629    665.920    514.486    512.629    512.629
107.370    700.000    680.242     19.758    512.495    678.197    514.497    512.495    512.495
107.470    729.000    693.246     35.754    512.364    691.048    514.517    512.364    512.364
107.570    752.000    706.574     45.426    512.236    704.220    514.541    512.236    512.236
107.670    714.631    719.925     -5.294    512.110    717.417    514.566    512.110    512.110
107.770    690.471    732.952    -42.481    511.987    730.298    514.588    511.987    511.987
107.870    764.000    745.279     18.721    511.868    742.491    514.601    511.868    511.868
107.970    702.949    756.517    -53.568    511.751    753.613    514.599    511.751    511.751
108.070    706.000    766.293    -60.293    511.636    763.297    514.578    511.636    511.636
108.170    751.000    774.293    -23.293    511.525    771.232    514.533    511.525    511.525
108.270    760.000    780.304    -20.304    511.417    777.209    514.461    511.417    511.417
108.370    753.203    784.256    -31.053    511.312    781.161    514.359    511.312    511.312
108.470    685.000    786.244   -101.244    511.210    783.180    514.230    511.210    511.210
108.570    750.000    786.515    -36.515    511.110    783.511    514.074    511.110    511.110
108.670    807.000    785.435     21.565    511.014    782.517    513.897    511.014    511.014
108.770    821.422    783.440     37.982    510.921    780.628    513.703    510.921    510.921
108.870    773.199    780.980     -7.780    510.832    778.288    513.497    510.832    510.832
108.970    771.000    778.473     -7.473    510.745    775.910    513.286    510.745    510.745
109.070    753.000    776.276    -23.276    510.662    773.845    513.074    510.662    510.662
109.170    761.000    774.655    -13.655    510.582    772.357    512.866    510.582    510.582
109.270    774.000    773.781      0.219    510.505    771.611    512.665    510.505    510.505
109.370    735.000    773.718    -38.718    510.431    771.669    512.474    510.431    510.431
109.470    746.687    774.423    -27.736    510.361    772.486    512.295    510.361    510.361
109.570    827.321    775.744     51.577    510.294    773.910    512.129    510.294    510.294
109.670    691.000    777.434    -86.434    510.231    775.692    511.976    510.231    510.231
109.770    823.708    779.156     44.552    510.171    777.497    511.837    510.171    510.171
109.870    814.408    780.511     33.897    510.114    778.927    511.709    510.114    510.114
109.970    777.000    781.071     -4.071    510.062    779.554    511.591    510.062    510.062
110.070    815.214    780.421     34.793    510.012    778.966    511.482    510.012    510.012
110.170    795.856    778.211     17.645    509.966    776.815    511.380    509.966    509.966
110.270    793.399    774.207     19.192    509.924    772.868    511.284    509.924    509.924
110.370    722.000    768.321    -46.321    509.885    767.036    511.192    509.885    509.885
110.470    770.776    760.612     10.164    509.851    759.383    511.102    509.851    509.851
110.570    768.000    751.268     16.732    509.819    750.101    511.010    509.819    509.819
110.670    696.772    740.591    -43.819    509.792    739.482    510.924    509.792    509.792
110.770    673.708    728.928    -55.219    509.768    727.872    510.846    509.768    509.768
110.870    699.000    716.631    -17.631    509.748    715.626    510.775    509.748    509.748
110.970    719.000    704.049     14.951    509.732    703.093    510.708    509.732    509.732
111.070    684.909    691.501     -6.592    509.720    690.592    510.648    509.720    509.720
111.170    682.000    679.271      2.729    509.712    678.404    510.595    509.712    509.712
111.270    671.000    667.597      3.403    509.708    666.771    510.549    509.708    509.708
111.370    615.557    656.677    -41.120    509.707    655.886    510.511    509.707    509.707
111.470    649.658    646.658      3.000    509.711    645.898    510.481    509.711    509.711
111.570    628.804    637.641     -8.837    509.719    636.909    510.459    509.719    509.719
111.670    623.000    629.701     -6.701    509.730    628.992    510.446    509.730    509.730
111.770    609.134    622.866    -13.732    509.746    622.175    510.442    509.746    509.746
111.870    596.000    617.125    -21.125    509.767    616.449    510.446    509.767    509.767
111.970    658.729    612.443     46.286    509.791    611.777    510.458    509.791    509.791
112.070    640.000    608.763     31.237    509.819    608.103    510.478    509.819    509.819
112.170    624.000    606.011     17.989    509.852    605.355    510.506    509.852    509.852
112.270    617.051    604.105     12.946    509.889    603.449    510.541    509.889    509.889
112.370    564.462    602.957    -38.495    509.931    602.299    510.583    509.931    509.931
112.470    620.000    602.477     17.523    509.977    601.815    510.632    509.977    509.977
112.570    565.873    602.580    -36.708    510.027    601.913    510.686    510.027    510.027
112.670    574.000    603.187    -29.187    510.082    602.514    510.746    510.082    510.082
112.770    557.000    604.228    -47.228    510.141    603.547    510.812    510.141    510.141
112.870    623.000    605.641     17.359    510.204    604.953    510.882    510.204    510.204
112.970    612.145    607.380      4.765    510.273    606.684    510.958    510.273    510.273
113.070    571.000    609.411    -38.411    510.345    608.707    511.038    510.345    510.345
113.170    592.000    611.715    -19.715    510.423    611.003    511.123    510.423    510.423
113.270    622.792    614.287      8.504    510.505    613.567    511.213    510.505    510.505
113.370    579.452    617.140    -37.687    510.592    616.411    511.308    510.592    510.592
113.470    628.000    620.302      7.698    510.683    619.564    511.409    510.683    510.683
113.570    666.000    623.819     42.181    510.780    623.070    511.516    510.780    510.780
113.670    612.000    627.754    -15.754    510.881    626.992    511.630    510.881    510.881
113.770    652.000    632.194     19.806    510.987    631.415    511.751    510.987    510.987
113.870    639.000    637.250      1.750    511.098    636.451    511.882    511.098    511.098
113.970    648.000    643.068      4.932    511.214    642.243    512.022    511.214    511.214
114.070    592.000    649.834    -57.834    511.335    648.978    512.172    511.335    511.335
114.170    679.549    657.787     21.763    511.460    656.892    512.335    511.460    511.460
114.270    658.000    667.227     -9.227    511.591    666.285    512.511    511.591    511.591
114.370    696.000    678.533     17.467    511.727    677.533    512.701    511.727    511.727
114.470    694.732    692.178      2.553    511.868    691.108    512.908    511.868    511.868
114.570    696.000    708.744    -12.744    512.015    707.591    513.134    512.015    512.015
114.670    723.000    728.943     -5.943    512.166    727.689    513.379    512.166    512.166
114.770    749.000    753.632     -4.632    512.323    752.259    513.646    512.323    512.323
114.870    785.000    783.830      1.170    512.485    782.317    513.937    512.485    512.485
114.970    781.742    820.732    -38.990    512.652    819.057    514.255    512.652    512.652
115.070    906.710    865.719     40.991    512.825    863.857    514.600    512.825    512.825
115.170    868.000    920.355    -52.355    513.003    918.278    514.975    513.003    513.003
115.270    999.000    986.383     12.617    513.187    984.062    515.383    513.187    513.187
115.370   1046.000   1065.704    -19.704    513.376   1063.106    515.823    513.376    513.376
115.470   1160.000   1160.343     -0.343    513.570   1157.436    516.299    513.570    513.570
115.570   1269.000   1272.401     -3.401    513.770   1269.150    516.811    513.770    513.770
115.670   1447.231   1403.989     43.242    513.976   1400.360    517.359    513.976    513.976
115.770   1529.000   1557.146    -28.146    514.187   1553.105    517.945    514.187    514.187
115.870   1689.000   1733.742    -44.742    514.404   1729.255    518.566    514.404    514.404
115.970   1974.000   1935.364     38.636    514.627   1930.397    519.223    514.627    514.627
116.070   2153.000   2163.193    -10.193    514.856   2157.719    519.913    514.856    514.856
116.170   2390.000   2417.884    -27.884    515.090   2411.875    520.634    515.090    515.090
116.270   2768.000   2699.432     68.568    515.330   2692.869    521.380    515.330    515.330
116.370   3014.000   3007.061      6.939    515.577   2999.928    522.149    515.577    515.577
116.470   3421.714   3339.117     82.597    515.829   3331.408    522.934    515.829    515.829
116.570   3580.000   3692.994   -112.994    516.087   3684.708    523.729    516.087    516.087
116.670   3900.000   4065.071   -165.071    516.351   4056.217    524.529    516.351    516.351
116.770   4449.288   4450.701     -1.413    516.621   4441.295    525.325    516.621    516.621
116.870   4929.000   4844.210     84.790    516.897   4834.276    526.113    516.897    516.897
116.970   5206.770   5238.938    -32.168    517.179   5228.508    526.887    517.179    517.179
117.070   5500.000   5627.337   -127.337    517.468   5616.449    527.641    517.468    517.468
117.170   6109.127   6001.176    107.952    517.763   5989.873    528.372    517.763    517.763
117.270   6254.000   6351.530    -97.530    518.064   6339.861    529.075    518.064    518.064
117.370   6575.296   6669.182    -93.886    518.371   6657.202    529.745    518.371    518.371
117.470   6959.000   6944.949     14.051    518.685   6932.716    530.377    518.685    518.685
117.570   7150.278   7170.141    -19.863    519.005   7157.718    530.965    519.005    519.005
117.670   7461.000   7337.131    123.869    519.332   7324.584    531.506    519.332    519.332
117.770   7538.703   7439.970     98.733    519.665   7427.365    531.995    519.665    519.665
117.870   7490.000   7474.951     15.049    520.005   7462.355    532.428    520.005    520.005
117.970   7559.000   7440.999    118.001    520.351   7428.474    532.805    520.351    520.351
118.070   7390.926   7339.786     51.140    520.704   7327.393    533.124    520.704    520.704
118.170   7021.000   7175.544   -154.544    521.063   7163.337    533.387    521.063    521.063
118.270   6918.000   6954.615    -36.615    521.429   6942.643    533.598    521.429    521.429
118.370   6588.000   6684.862    -96.862    521.802   6673.169    533.758    521.802    521.802
118.470   6338.000   6375.054    -37.054    522.182   6363.682    533.871    522.182    522.182
118.570   5954.000   6034.317    -80.317    522.569   6023.300    533.942    522.569    522.569
118.670   5733.000   5671.690     61.310    522.963   5661.060    533.976    522.963    522.963
118.770   5391.000   5295.799     95.201    523.363   5285.584    533.976    523.363    523.363
118.870   4951.000   4914.619     36.381    523.771   4904.840    533.951    523.771    523.771
118.970   4588.000   4535.306     52.694    524.185   4525.981    533.905    524.185    524.185
119.070   4318.000   4164.091    153.909    524.607   4155.230    533.846    524.607    524.607
119.170   3862.715   3806.206     56.509    525.035   3797.815    533.782    525.035    525.035
119.270   3487.000   3465.860     21.140    525.471   3457.938    533.721    525.471    525.471
119.370   3277.000   3146.249    130.751    525.914   3138.789    533.671    525.914    525.914
119.470   2855.000   2849.601      5.399    526.365   2842.590    533.638    526.365    526.365
119.570   2641.000   2577.252     63.748    526.822   2570.672    533.630    526.822    526.822
119.670   2366.000   2329.747     36.253    527.287   2323.575    533.652    527.287    527.287
119.770   2014.245   2106.956    -92.711    527.760   2101.167    533.710    527.760    527.760
119.870   1918.085   1908.195      9.890    528.240   1902.757    533.807    528.240    528.240
119.970   1770.000   1732.341     37.659    528.727   1727.220    533.949    528.727    528.727
120.070   1521.397   1577.949    -56.553    529.222   1573.110    534.138    529.222    529.222
120.170   1480.422   1443.355     37.067    529.725   1438.759    534.376    529.725    529.725
120.270   1372.901   1326.764     46.137    530.235   1322.371    534.665    530.235    530.235
120.370   1261.000   1226.333     34.667    530.753   1222.100    535.008    530.753    530.753
120.470   1185.000   1140.237     44.763    531.278   1136.121    535.405    531.278    531.278
120.570   1122.435   1066.724     55.712    531.811   1062.680    535.857    531.811    531.811
120.670    947.070   1004.153    -57.084    532.353   1000.135    536.366    532.353    532.353
120.770    974.949    951.024     23.925    532.902    946.985    536.932    532.902    532.902
120.870    856.000    905.992    -49.992    533.459    901.883    537.555    533.459    533.459
120.970    880.000    867.870     12.130    534.024    863.643    538.237    534.024    534.024
121.070    881.000    835.633     45.367    534.597    831.237    538.978    534.597    534.597
121.170    853.761    808.401     45.361    535.178    803.784    539.780    535.178    535.178
121.270    846.000    785.432     60.568    535.767    780.541    540.644    535.767    535.767
121.370    773.000    766.105      6.895    536.364    760.886    541.571    536.364    536.364
121.470    781.000    749.906     31.094    536.970    744.301    542.564    536.970    536.970
121.570    709.000    736.408    -27.408    537.584    730.359    543.624    537.584    537.584
121.670    739.102    725.263     13.839    538.206    718.710    544.752    538.206    538.206
121.770    701.000    716.184    -15.184    538.836    709.063    545.952    538.836    538.836
121.870    681.514    708.933    -27.419    539.475    701.180    547.225    539.475    539.475
121.970    697.000    703.315     -6.315    540.123    694.863    548.572    540.123    540.123
122.070    653.000    699.165    -46.165    540.779    689.947    549.997    540.779    540.779
122.170    717.000    696.346     20.654    541.443    686.290    551.499    541.443    541.443
122.270    663.000    694.736    -31.736    542.116    683.772    553.082    542.116    542.116
122.370    715.273    694.229     21.044    542.798    682.285    554.745    542.798    542.798
122.470    675.000    694.728    -19.728    543.488    681.732    556.490    543.488    543.488
122.570    645.624    696.144    -50.519    544.188    682.023    558.315    544.188    544.188
122.670    660.918    698.387    -37.468    544.896    683.071    560.220    544.896    544.896
122.770    654.000    701.370    -47.370    545.613    684.792    562.201    545.613    545.613
122.870    667.000    705.002    -38.002    546.339    687.102    564.252    546.339    546.339
122.970    675.000    709.192    -34.192    547.074    689.914    566.367    547.074    547.074
123.070    733.000    713.838     19.162    547.818    693.138    568.535    547.818    547.818
123.170    662.000    718.837    -56.837    548.571    696.682    570.745    548.571    548.571
123.270    711.712    724.075    -12.363    549.333    700.449    572.981    549.333    549.333
123.370    704.537    729.433    -24.896    550.104    704.337    575.226    550.104    550.104
123.470    719.000    734.787    -15.787    550.885    708.240    577.460    550.885    550.885
123.570    732.000    740.004     -8.004    551.675    712.048    579.662    551.675    551.675
123.670    792.000    744.948     47.052    552.474    715.649    581.807    552.474    552.474
123.770    749.000    749.484     -0.484    553.282    718.933    583.871    553.282    553.282
123.870    811.000    753.478     57.522    554.101    721.790    585.828    554.101    554.101
123.970    757.000    756.804      0.196    554.928    724.119    587.655    554.928    554.928
124.070    774.373    759.353     15.020    555.765    725.833    589.330    555.765    555.765
124.170    754.000    761.032     -7.032    556.612    726.859    590.832    556.612    556.612
124.270    784.340    761.777     22.563    557.468    727.147    592.147    557.468    557.468
124.370    777.000    761.553     15.447    558.335    726.671    593.266    558.335    558.335
124.470    823.000    760.353     62.647    559.210    725.429    594.185    559.210    559.210
124.570    736.000    758.184    -22.184    560.096    723.428    594.904    560.096    560.096
124.670    794.000    755.111     38.889    560.992    720.724    595.429    560.992    560.992
124.770    776.000    751.233     24.767    561.897    717.409    595.772    561.897    561.897
124.870    749.803    746.615      3.187    562.813    713.534    595.944    562.813    562.813
124.970    791.000    741.350     49.650    563.739    709.176    595.960    563.739    563.739
