neutron_powder_diffraction_0016
R_wp: 3.679
Temperature (K): 477.854
Counts: 83393.00
Wavelength (Ã…): 2.52098
COMMENTS
Test file for demonstrating the .xyy file format in Reel1.0
END OF HEADER
   tth       Y_obs     Y_calc      Y_res    Background    Phase_1_Nuc    Phase_1_Mag    Phase_2_Nuc    Phase_2_Mag
  9.970    763.903    731.324     32.579    729.662    730.645    730.340    729.662    729.662
 10.070    785.000    730.149     54.851    728.401    729.463    729.087    728.401    728.401
 10.170    725.363    728.992     -3.629    727.148    728.299    727.841    727.148    727.148
 10.270    746.000    727.856     18.144    725.903    727.156    726.603    725.903    725.903
 10.370    757.000    726.744     30.256    724.665    726.036    725.373    724.665    724.665
 10.470    730.000    725.658      4.342    723.435    724.942    724.150    723.435    723.435
 10.570    750.000    724.603     25.397    722.212    723.879    722.935    722.212    722.212
 10.670    713.152    723.584    -10.432    720.998    722.852    721.729    720.998    720.998
 10.770    743.000    722.608     20.392    719.790    721.868    720.529    719.790    719.790
 10.870    785.000    721.685     63.315    718.591    720.936    719.338    718.591    718.591
 10.970    709.000    720.828    -11.828    717.399    720.071    718.154    717.399    717.399
 11.070    751.000    720.054     30.946    716.214    719.288    716.978    716.214    716.214
 11.170    736.000    719.388     16.612    715.037    718.614    715.810    715.037    715.037
 11.270    778.000    718.868     59.132    713.867    718.085    714.649    713.867    713.867
 11.370    697.605    718.552    -20.947    712.705    717.759    713.495    712.705    712.705
 11.470    744.000    718.553     25.447    711.551    717.750    712.350    711.551    711.551
 11.570    717.130    719.158     -2.028    710.403    718.345    711.212    710.403    710.403
 11.670    725.000    720.834      4.166    709.263    720.010    710.081    709.263    709.263
 11.770    751.000    724.617     26.383    708.131    723.781    708.958    708.131    708.131
 11.870    783.613    732.516     51.097    707.005    731.665    707.843    707.005    707.005
 11.970    818.000    746.994     71.006    705.888    746.124    706.735    705.888    705.888
 12.070    794.000    769.512     24.488    704.777    768.618    705.634    704.777    704.777
 12.170    810.000    797.601     12.399    703.673    796.680    704.541    703.673    703.673
 12.270    809.000    821.577    -12.577    702.577    820.632    703.456    702.577    702.577
 12.370    877.443    826.875     50.568    701.488    825.916    702.377    701.488    701.488
 12.470    821.000    808.377     12.623    700.407    807.416    701.306    700.407    700.407
 12.570    783.821    778.124      5.697    699.332    777.170    700.243    699.332    699.332
 12.670    771.617    749.852     21.765    698.264    748.901    699.186    698.264    698.264
 12.770    700.000    729.280    -29.280    697.204    728.329    698.137    697.204    697.204
 12.870    676.000    716.352    -40.352    696.151    715.396    697.096    696.151    696.151
 12.970    695.215    708.766    -13.551    695.104    707.802    696.061    695.104    695.104
 13.070    637.000    704.189    -67.189    694.065    703.215    695.034    694.065    694.065
 13.170    723.034    701.106     21.928    693.033    700.121    694.014    693.033    693.033
 13.270    673.460    698.751    -25.291    692.008    697.754    693.001    692.008    692.008
 13.370    693.000    696.787     -3.787    690.990    695.778    691.996    690.990    690.990
 13.470    613.000    695.068    -82.068    689.978    694.046    690.998    689.978    689.978
 13.570    670.751    693.517    -22.766    688.974    692.483    690.007    688.974    688.974
 13.670    638.000    692.091    -54.091    687.976    691.043    689.023    687.976    687.976
 13.770    665.000    690.762    -25.762    686.986    689.701    688.046    686.986    686.986
 13.870    648.367    689.502    -41.136    686.002    688.427    687.076    686.002    686.002
 13.970    692.000    688.300      3.700    685.025    687.210    686.114    685.025    685.025
 14.070    744.000    687.144     56.856    684.055    686.040    685.158    684.055    684.055
 14.170    631.907    686.027    -54.120    683.091    684.908    684.210    683.091    683.091
 14.270    702.755    684.942     17.813    682.135    683.808    683.268    682.135    682.135
 14.370    637.000    683.885    -46.885    681.185    682.735    682.334    681.185    681.185
 14.470    665.000    682.852    -17.852    680.242    681.686    681.407    680.242    680.242
 14.570    676.944    681.840     -4.895    679.305    680.658    680.486    679.305    679.305
 14.670    695.000    680.848     14.152    678.375    679.649    679.573    678.375    678.375
 14.770    683.000    679.884      3.116    677.452    678.668    678.667    677.452    677.452
 14.870    627.055    678.942    -51.887    676.535    677.709    677.768    676.535    676.535
 14.970    668.617    677.997     -9.380    675.625    676.746    676.876    675.625    675.625
 15.070    660.468    677.065    -16.597    674.721    675.796    675.990    674.721    674.721
 15.170    647.505    676.148    -28.643    673.824    674.861    675.112    673.824    673.824
 15.270    639.342    675.239    -35.897    672.934    673.932    674.240    672.934    672.934
 15.370    669.000    674.340     -5.340    672.050    673.014    673.375    672.050    672.050
 15.470    684.000    673.451     10.549    671.172    672.106    672.517    671.172    671.172
 15.570    664.000    672.573     -8.573    670.301    671.208    671.666    670.301    670.301
 15.670    633.000    671.704    -38.704    669.436    670.318    670.822    669.436    669.436
 15.770    703.000    670.845     32.155    668.578    669.438    669.985    668.578    668.578
 15.870    663.000    669.995     -6.995    667.726    668.566    669.155    667.726    667.726
 15.970    682.667    669.153     13.513    666.881    667.702    668.331    666.881    666.881
 16.070    626.000    668.320    -42.320    666.041    666.847    667.515    666.041    666.041
 16.170    665.000    667.496     -2.496    665.208    665.999    666.705    665.208    665.208
 16.270    626.000    666.680    -40.680    664.381    665.159    665.902    664.381    664.381
 16.370    689.000    665.872     23.128    663.561    664.327    665.106    663.561    663.561
 16.470    642.000    665.072    -23.072    662.747    663.502    664.316    662.747    662.747
 16.570    674.461    664.280     10.182    661.939    662.684    663.534    661.939    661.939
 16.670    636.833    663.495    -26.663    661.137    661.874    662.758    661.137    661.137
 16.770    690.620    662.719     27.901    660.341    661.071    661.989    660.341    660.341
 16.870    628.000    661.950    -33.950    659.551    660.274    661.227    659.551    659.551
 16.970    645.000    661.189    -16.189    658.768    659.485    660.471    658.768    658.768
 17.070    608.000    660.435    -52.435    657.990    658.703    659.723    657.990    657.990
 17.170    666.270    659.689      6.581    657.219    657.927    658.981    657.219    657.219
 17.270    636.332    658.954    -22.621    656.454    657.161    658.246    656.454    656.454
 17.370    659.000    658.229      0.771    655.694    656.404    657.519    655.694    655.694
 17.470    601.000    657.525    -56.525    654.941    655.667    656.799    654.941    654.941
 17.570    611.000    656.882    -45.882    654.194    654.989    656.086    654.194    654.194
 17.670    649.000    656.181     -7.181    653.452    654.254    655.379    653.452    653.452
 17.770    639.000    655.480    -16.480    652.717    653.518    654.678    652.717    652.717
 17.870    613.167    654.786    -41.620    651.987    652.789    653.984    651.987    651.987
 17.970    659.000    654.100      4.900    651.263    652.066    653.297    651.263    651.263
 18.070    710.000    653.421     56.579    650.545    651.349    652.617    650.545    650.545
 18.170    643.000    652.749     -9.749    649.833    650.639    651.944    649.833    649.833
 18.270    668.833    652.085     16.748    649.127    649.934    651.277    649.127    649.127
 18.370    666.682    651.428     15.254    648.426    649.236    650.618    648.426    648.426
 18.470    674.451    650.784     23.667    647.732    648.550    649.965    647.732    647.732
 18.570    643.695    650.167     -6.471    647.043    647.890    649.320    647.043    647.043
 18.670    673.000    649.535     23.465    646.359    647.213    648.681    646.359    646.359
 18.770    641.000    648.907     -7.907    645.682    646.539    648.050    645.682    645.682
 18.870    700.000    648.287     51.713    645.010    645.872    647.425    645.010    645.010
 18.970    641.000    647.675     -6.675    644.343    645.210    646.808    644.343    644.343
 19.070    627.444    647.070    -19.626    643.683    644.555    646.197    643.683    643.683
 19.170    657.642    646.474     11.168    643.028    643.907    645.594    643.028    643.028
 19.270    582.000    645.900    -63.900    642.378    643.278    645.000    642.378    642.378
 19.370    651.000    645.364      5.636    641.734    642.672    644.426    641.734    641.734
 19.470    663.163    644.825     18.338    641.096    642.065    643.855    641.096    641.096
 19.570    675.140    644.262     30.878    640.463    641.442    643.283    640.463    640.463
 19.670    644.000    643.704      0.296    639.835    640.823    642.716    639.835    639.835
 19.770    660.000    643.155     16.845    639.213    640.211    642.158    639.213    639.213
 19.870    603.000    642.622    -39.622    638.597    639.612    641.606    638.597    638.597
 19.970    588.000    642.108    -54.108    637.985    639.030    641.063    637.985    637.985
 20.070    604.000    641.589    -37.589    637.380    638.441    640.527    637.380    637.380
 20.170    669.430    641.090     28.340    636.779    637.868    640.000    636.779    636.779
 20.270    647.000    640.608      6.392    636.184    637.303    639.488    636.184    636.184
 20.370    616.000    640.145    -24.145    635.594    636.744    638.996    635.594    635.594
 20.470    601.000    639.659    -38.659    635.010    636.175    638.494    635.010    635.010
 20.570    654.000    639.184     14.816    634.431    635.616    637.999    634.431    634.431
 20.670    601.000    638.775    -37.775    633.857    635.119    637.512    633.857    633.857
 20.770    594.000    638.348    -44.348    633.288    634.601    637.034    633.288    633.288
 20.870    580.000    637.902    -57.902    632.724    634.062    636.564    632.724    632.724
 20.970    642.000    637.460      4.540    632.166    633.523    636.103    632.166    632.166
 21.070    689.352    637.030     52.322    631.613    632.993    635.650    631.613    631.613
 21.170    690.714    636.638     54.076    631.065    632.495    635.208    631.065    631.065
 21.270    603.689    636.246    -32.558    630.522    631.993    634.775    630.522    630.522
 21.370    605.378    635.858    -30.479    629.984    631.491    634.351    629.984    629.984
 21.470    601.000    635.476    -34.476    629.451    630.990    633.937    629.451    629.451
 21.570    622.870    635.107    -12.237    628.924    630.494    633.537    628.924    628.924
 21.670    653.000    634.748     18.252    628.401    630.003    633.146    628.401    628.401
 21.770    661.000    634.398     26.602    627.883    629.520    632.762    627.883    627.883
 21.870    655.000    634.061     20.939    627.371    629.043    632.389    627.371    627.371
 21.970    650.000    633.738     16.262    626.863    628.574    632.027    626.863    626.863
 22.070    590.895    633.426    -42.531    626.360    628.109    631.676    626.360    626.360
 22.170    636.547    633.128      3.418    625.862    627.653    631.338    625.862    625.862
 22.270    593.000    632.847    -39.847    625.369    627.205    631.011    625.369    625.369
 22.370    680.520    632.582     47.938    624.881    626.766    630.698    624.881    624.881
 22.470    657.816    632.338     25.478    624.398    626.339    630.397    624.398    624.398
 22.570    683.094    632.111     50.982    623.920    625.920    630.111    623.920    623.920
 22.670    636.000    631.910      4.090    623.446    625.516    629.840    623.446    623.446
 22.770    594.808    631.727    -36.918    622.977    625.121    629.583    622.977    622.977
 22.870    589.715    631.565    -41.850    622.513    624.737    629.342    622.513    622.513
 22.970    602.000    631.429    -29.429    622.054    624.367    629.116    622.054    622.054
 23.070    600.000    631.322    -31.322    621.599    624.014    628.908    621.599    621.599
 23.170    607.000    631.247    -24.247    621.149    623.678    628.718    621.149    621.149
 23.270    620.000    631.207    -11.207    620.704    623.365    628.547    620.704    620.704
 23.370    597.000    631.209    -34.209    620.263    623.076    628.396    620.263    620.263
 23.470    622.000    631.257     -9.257    619.827    622.818    628.267    619.827    619.827
 23.570    624.000    631.360     -7.360    619.396    622.597    628.160    619.396    619.396
 23.670    577.304    631.527    -54.223    618.969    622.421    628.076    618.969    618.969
 23.770    654.000    631.773     22.227    618.547    622.302    628.019    618.547    618.547
 23.870    644.000    632.116     11.884    618.129    622.259    627.988    618.129    618.129
 23.970    638.000    632.584      5.416    617.716    622.315    627.987    617.716    617.716
 24.070    607.000    633.219    -26.219    617.308    622.512    628.017    617.308    617.308
 24.170    651.000    634.098     16.902    616.903    622.923    628.081    616.903    616.903
 24.270    630.000    635.379     -5.379    616.504    623.705    628.181    616.504    616.504
 24.370    660.000    637.421     22.579    616.108    625.213    628.320    616.108    616.108
 24.470    644.000    640.969      3.031    615.717    628.190    628.502    615.717    615.717
 24.570    675.000    647.297     27.703    615.331    633.909    628.730    615.331    615.331
 24.670    637.052    657.995    -20.943    614.949    643.953    629.009    614.949    614.949
 24.770    694.370    674.020     20.350    614.571    659.277    629.343    614.571    614.571
 24.870    681.000    693.902    -12.902    614.198    678.405    629.738    614.198    614.198
 24.970    761.043    711.659     49.384    613.828    695.343    630.200    613.828    613.828
 25.070    726.000    717.710      8.290    613.464    700.497    630.736    613.464    613.464
 25.170    713.892    707.823      6.069    613.103    689.624    631.354    613.103    613.103
 25.270    653.680    689.364    -35.684    612.747    670.086    632.062    612.747    612.747
 25.370    686.000    671.622     14.378    612.394    651.167    632.873    612.394    612.394
 25.470    684.000    658.842     25.158    612.046    637.105    633.798    612.046    612.046
 25.570    603.922    651.349    -47.426    611.703    628.207    634.852    611.703    611.703
 25.670    630.000    647.780    -17.780    611.363    623.096    636.052    611.363    611.363
 25.770    680.000    646.599     33.401    611.027    620.211    637.418    611.027    611.027
 25.870    695.000    646.747     48.253    610.696    618.471    638.974    610.696    610.696
 25.970    679.657    647.673     31.983    610.369    617.294    640.749    610.369    610.369
 26.070    619.793    649.153    -29.360    610.046    616.421    642.777    610.046    610.046
 26.170    669.000    651.107     17.893    609.726    615.739    645.094    609.726    609.726
 26.270    686.000    653.536     32.464    609.411    615.194    647.752    609.411    609.411
 26.370    631.992    656.472    -24.481    609.100    614.757    650.814    609.100    609.100
 26.470    626.717    659.974    -33.257    608.793    614.411    654.354    608.793    608.793
 26.570    616.000    664.125    -48.125    608.490    614.145    658.467    608.490    608.490
 26.670    660.000    669.041     -9.041    608.190    613.955    663.273    608.190    608.190
 26.770    648.000    674.875    -26.875    607.895    613.841    668.925    607.895    607.895
 26.870    703.276    681.828     21.448    607.604    613.806    675.621    607.604    607.604
 26.970    685.000    690.171     -5.171    607.316    613.859    683.622    607.316    607.316
 27.070    695.000    700.266     -5.266    607.032    614.015    693.277    607.032    607.032
 27.170    695.000    712.617    -17.617    606.752    614.294    705.067    606.752    606.752
 27.270    742.887    727.901     14.986    606.476    614.725    719.643    606.476    606.476
 27.370    735.000    747.104    -12.104    606.204    615.353    737.943    606.204    606.204
 27.470    765.000    771.685     -6.685    605.936    616.245    761.361    605.936    605.936
 27.570    868.000    804.003     63.997    605.671    617.508    792.147    605.671    605.671
 27.670    843.000    848.845     -5.845    605.410    619.359    834.871    605.410    605.410
 27.770    936.000    919.431     16.569    605.153    622.399    902.149    605.153    605.153
 27.870   1025.000   1056.704    -31.704    604.899    628.474   1033.066    604.899    604.899
 27.970   1361.000   1371.115    -10.115    604.649    642.564   1333.068    604.649    604.649
 28.070   2055.277   2082.510    -27.233    604.403    674.574   2012.051    604.403    604.403
 28.170   3362.000   3456.381    -94.381    604.160    736.473   3323.503    604.160    604.160
 28.270   5458.000   5530.186    -72.186    603.921    829.981   5303.218    603.921    603.921
 28.370   7830.556   7741.124     89.432    603.686    929.841   7413.844    603.686    603.686
 28.470   8691.955   8889.446   -197.491    603.454    982.243   8509.701    603.454    603.454
 28.570   8055.299   8154.288    -98.988    603.225    950.713   7806.366    603.225    603.225
 28.670   6431.000   6266.449    164.551    603.001    869.184   6000.276    603.001    603.001
 28.770   4581.000   4546.461     34.539    602.779    798.808   4350.593    602.779    602.779
 28.870   3763.000   3760.373      2.627    602.561    775.731   3587.308    602.561    602.561
 28.970   4061.934   3933.072    128.862    602.347    800.824   3734.606    602.347    602.347
 29.070   4513.000   4570.863    -57.863    602.136    847.391   4325.611    602.136    602.136
 29.170   5078.000   4939.844    138.156    601.929    873.304   4668.593    601.929    601.929
 29.270   4532.000   4546.463    -14.463    601.725    849.677   4298.806    601.725    601.725
 29.370   3542.000   3587.512    -45.512    601.524    789.818   3399.585    601.524    601.524
 29.470   2530.817   2556.851    -26.034    601.327    725.200   2433.294    601.327    601.327
 29.570   1737.000   1766.472    -29.472    601.133    675.628   1692.191    601.133    601.133
 29.670   1335.000   1279.839     55.161    600.942    645.162   1235.742    600.942    600.942
 29.770    979.000   1022.065    -43.065    600.755    629.106    993.775    600.755    600.755
 29.870    869.490    893.660    -24.170    600.571    621.202    873.059    600.571    600.571
 29.970    850.648    825.907     24.741    600.390    617.132    809.180    600.390    600.390
 30.070    824.000    784.670     39.330    600.212    614.760    770.131    600.212    600.212
 30.170    791.714    756.084     35.629    600.038    613.236    742.891    600.038    600.038
 30.270    755.000    734.851     20.149    599.867    612.263    722.458    599.867    599.867
 30.370    713.570    718.764     -5.195    599.699    611.774    706.690    599.699    599.699
 30.470    655.027    706.914    -51.887    599.534    611.886    694.560    599.534    599.534
 30.570    711.000    699.378     11.622    599.372    612.993    685.752    599.372    599.372
 30.670    722.465    697.360     25.105    599.214    615.920    680.645    599.214    599.214
 30.770    692.000    703.081    -11.081    599.058    621.906    680.214    599.058    599.058
 30.870    753.000    718.660     34.340    598.906    632.099    685.435    598.906    598.906
 30.970    697.000    743.660    -46.660    598.757    646.389    695.978    598.757    598.757
 31.070    832.000    771.840     60.160    598.611    661.872    708.512    598.611    598.611
 31.170    840.000    789.721     50.279    598.468    672.170    715.944    598.468    598.468
 31.270    822.000    784.261     37.739    598.327    671.099    711.422    598.327    598.327
 31.370    768.000    756.663     11.337    598.190    659.268    695.534    598.190    598.190
 31.470    688.050    720.596    -32.546    598.056    643.237    675.381    598.056    598.056
 31.570    674.819    688.427    -13.608    597.925    628.939    657.392    597.925    597.925
 31.670    694.687    665.243     29.445    597.796    618.824    644.202    597.796    597.796
 31.770    660.000    650.707      9.293    597.671    612.751    635.620    597.671    597.671
 31.870    645.000    642.238      2.762    597.548    609.499    630.282    597.548    597.548
 31.970    681.000    637.257     43.743    597.429    607.850    626.832    597.429    597.429
 32.070    652.596    634.075     18.520    597.312    607.008    624.376    597.312    597.312
 32.170    667.000    631.835     35.165    597.198    606.574    622.456    597.198    597.198
 32.270    648.000    630.165     17.835    597.087    606.379    620.870    597.087    597.087
 32.370    610.000    628.910    -18.910    596.978    606.358    619.528    596.978    596.978
 32.470    692.000    628.004     63.996    596.873    606.489    618.386    596.873    596.873
 32.570    681.000    627.418     53.582    596.770    606.767    617.418    596.770    596.770
 32.670    596.704    627.145    -30.441    596.670    607.201    616.612    596.670    596.670
 32.770    672.000    627.198     44.802    596.572    607.807    615.962    596.572    596.572
 32.870    665.568    627.607     37.961    596.478    608.615    615.468    596.478    596.478
 32.970    626.785    628.424     -1.639    596.386    609.669    615.140    596.386    596.386
 33.070    676.000    629.731     46.269    596.296    611.030    614.996    596.296    596.296
 33.170    680.000    631.651     48.349    596.210    612.790    615.068    596.210    596.210
 33.270    626.000    634.382     -8.382    596.125    615.095    615.410    596.125    596.125
 33.370    590.453    638.283    -47.830    596.044    618.201    616.123    596.044    596.044
 33.470    646.000    644.105      1.895    595.965    622.642    617.424    595.965    595.965
 33.570    673.000    653.536     19.464    595.889    629.618    619.801    595.889    595.889
 33.670    672.000    670.219      1.781    595.815    641.712    624.313    595.815    595.815
 33.770    693.000    700.961     -7.961    595.744    663.749    632.941    595.744    595.744
 33.870    700.617    755.888    -55.271    595.675    702.908    648.632    595.675    595.675
 33.970    828.249    845.435    -17.186    595.609    766.585    674.423    595.609    595.609
 34.070    923.185    972.790    -49.604    595.545    857.044    711.244    595.545    595.545
 34.170   1183.443   1122.869     60.574    595.483    963.601    754.702    595.483    595.483
 34.270   1239.000   1252.229    -13.229    595.424   1055.470    792.144    595.424    595.424
 34.370   1287.000   1297.395    -10.395    595.368   1087.662    805.083    595.368    595.368
 34.470   1166.000   1228.190    -62.190    595.314   1038.781    784.724    595.314    595.314
 34.570   1164.000   1087.290     76.710    595.262    939.067    743.494    595.262    595.262
 34.670    936.805    938.267     -1.462    595.213    833.581    699.909    595.213    595.213
 34.770    831.000    818.091     12.909    595.166    748.528    664.736    595.166    595.166
 34.870    782.882    736.481     46.401    595.121    690.799    640.808    595.121    595.121
 34.970    704.000    687.555     16.445    595.079    656.226    626.409    595.079    595.079
 35.070    606.741    660.309    -53.569    595.038    637.011    618.337    595.038    595.038
 35.170    667.813    645.173     22.640    595.001    626.371    613.802    595.001    595.001
 35.270    691.000    636.126     54.874    594.965    620.038    611.053    594.965    594.965
 35.370    646.000    630.100     15.900    594.932    615.838    609.193    594.932    594.932
 35.470    621.000    625.709     -4.709    594.900    612.787    607.821    594.900    594.900
 35.570    647.000    622.333     24.667    594.871    610.448    606.756    594.871    594.871
 35.670    626.000    619.663      6.337    594.845    608.599    605.909    594.845    594.845
 35.770    577.037    617.517    -40.481    594.820    607.112    605.225    594.820    594.820
 35.870    636.000    615.774     20.226    594.798    605.899    604.672    594.798    594.798
 35.970    630.000    614.348     15.652    594.777    604.900    604.226    594.777    594.777
 36.070    646.682    613.179     33.502    594.759    604.069    603.868    594.759    594.759
 36.170    589.000    612.222    -23.222    594.743    603.375    603.589    594.743    594.743
 36.270    632.000    611.444     20.556    594.729    602.791    603.381    594.729    594.729
 36.370    590.000    610.822    -20.822    594.717    602.300    603.239    594.717    594.717
 36.470    595.836    610.341    -14.505    594.707    601.886    603.162    594.707    594.707
 36.570    657.371    609.991     47.379    594.699    601.539    603.150    594.699    594.699
 36.670    587.000    609.769    -22.769    594.693    601.252    603.209    594.693    594.693
 36.770    676.000    609.676     66.324    594.688    601.019    603.346    594.688    594.688
 36.870    620.773    609.722     11.052    594.686    600.836    603.572    594.686    594.686
 36.970    614.000    609.922      4.078    594.686    600.705    603.902    594.686    594.686
 37.070    599.000    610.305    -11.305    594.688    600.630    604.363    594.688    594.688
 37.170    616.000    610.924      5.076    594.692    600.627    604.989    594.692    594.692
 37.270    608.000    611.871     -3.871    594.697    600.730    605.838    594.697    594.697
 37.370    614.000    613.334      0.666    594.705    601.018    607.020    594.705    594.705
 37.470    627.927    615.679     12.248    594.714    601.632    608.761    594.714    594.714
 37.570    662.000    619.594     42.406    594.725    602.774    611.546    594.725    594.725
 37.670    645.000    626.264     18.736    594.738    604.659    616.343    594.738    594.738
 37.770    640.000    637.445      2.555    594.753    607.384    624.814    594.753    594.753
 37.870    668.249    655.208     13.041    594.770    610.734    639.242    594.770    594.770
 37.970    663.000    680.996    -17.996    594.788    613.965    661.818    594.788    594.788
 38.070    716.000    714.128      1.872    594.808    615.814    693.119    594.808    594.808
 38.170    752.000    750.577      1.423    594.830    615.388    730.017    594.830    594.830
 38.270    778.000    781.757     -3.757    594.854    613.109    763.501    594.854    594.854
 38.370    776.963    794.608    -17.645    594.879    610.055    779.436    594.879    594.879
 38.470    752.000    780.916    -28.916    594.906    607.038    768.793    594.906    594.906
 38.570    783.926    747.524     36.402    594.934    604.517    737.952    594.934    594.934
 38.670    724.346    708.574     15.772    594.965    602.667    700.883    594.965    594.965
 38.770    663.000    674.307    -11.307    594.997    601.436    667.876    594.997    594.997
 38.870    625.000    648.860    -23.860    595.030    600.672    643.224    595.030    595.030
 38.970    632.000    632.156     -0.156    595.065    600.217    627.008    595.065    595.065
 39.070    609.000    622.115    -13.115    595.102    599.953    617.267    595.102    595.102
 39.170    616.000    616.325     -0.325    595.140    599.799    611.668    595.140    595.140
 39.270    612.000    612.922     -0.922    595.180    599.708    608.395    595.180    595.180
 39.370    577.505    610.780    -33.275    595.221    599.663    606.338    595.221    595.221
 39.470    629.429    609.303     20.126    595.264    599.647    604.921    595.264    595.264
 39.570    614.000    608.213      5.787    595.308    599.652    603.870    595.308    595.308
 39.670    641.986    607.373     34.614    595.354    599.674    603.053    595.354    595.354
 39.770    640.991    606.713     34.278    595.402    599.711    602.403    595.402    595.402
 39.870    608.331    606.189      2.142    595.450    599.762    601.878    595.450    595.450
 39.970    595.000    605.772    -10.772    595.501    599.824    601.449    595.501    595.501
 40.070    583.000    605.442    -22.442    595.552    599.898    601.096    595.552    595.552
 40.170    608.000    605.182      2.818    595.605    599.983    600.805    595.605    595.605
 40.270    622.000    604.982     17.018    595.659    600.079    600.563    595.659    595.659
 40.370    599.000    604.833     -5.833    595.715    600.187    600.361    595.715    595.715
 40.470    598.000    604.728     -6.728    595.772    600.306    600.194    595.772    595.772
 40.570    590.000    604.662    -14.662    595.831    600.438    600.056    595.831    595.831
 40.670    570.000    604.633    -34.633    595.890    600.583    599.941    595.890    595.890
 40.770    581.000    604.639    -23.639    595.951    600.743    599.848    595.951    595.951
 40.870    555.000    604.678    -49.678    596.014    600.919    599.773    596.014    596.014
 40.970    618.000    604.750     13.250    596.077    601.115    599.714    596.077    596.077
 41.070    588.000    604.857    -16.857    596.142    601.331    599.669    596.142    596.142
 41.170    565.741    605.000    -39.259    596.208    601.572    599.637    596.208    596.208
 41.270    574.298    605.184    -30.885    596.276    601.843    599.617    596.276    596.276
 41.370    584.000    605.412    -21.412    596.344    602.150    599.607    596.344    596.344
 41.470    610.000    605.691      4.309    596.414    602.499    599.608    596.414    596.414
 41.570    665.000    606.033     58.967    596.485    602.901    599.618    596.485    596.485
 41.670    583.000    606.449    -23.449    596.557    603.369    599.638    596.557    596.557
 41.770    610.000    606.959      3.041    596.630    603.923    599.668    596.630    596.630
 41.870    656.545    607.594     48.952    596.704    604.592    599.708    596.704    596.704
 41.970    627.000    608.405     18.595    596.780    605.427    599.760    596.780    596.780
 42.070    648.000    609.497     38.503    596.856    606.528    599.828    596.856    596.856
 42.170    631.000    611.082     19.918    596.934    608.100    599.919    596.934    596.934
 42.270    658.857    613.577     45.280    597.012    610.544    600.049    597.012    597.012
 42.370    622.004    617.719      4.284    597.092    614.570    600.247    597.092    597.092
 42.470    578.000    624.614    -46.614    597.173    621.241    600.554    597.173    597.173
 42.570    602.000    635.567    -33.567    597.254    631.814    601.021    597.254    597.254
 42.670    702.586    651.582     51.004    597.337    647.254    601.685    597.337    597.337
 42.770    643.000    672.523    -29.523    597.421    667.431    602.542    597.421    597.421
 42.870    725.575    696.086     29.489    597.506    690.130    603.503    597.506    597.506
 42.970    717.414    716.851      0.563    597.591    710.134    604.359    597.591    597.591
 43.070    681.942    727.006    -45.063    597.678    719.931    604.811    597.678    597.678
 43.170    775.062    721.588     53.474    597.765    714.745    604.668    597.765    597.765
 43.270    685.000    703.564    -18.564    597.854    697.427    604.043    597.854    597.854
 43.370    678.000    680.490     -2.490    597.943    675.248    603.227    597.943    597.943
 43.470    688.579    658.665     29.915    598.033    654.267    602.461    598.033    598.033
 43.570    688.079    641.284     46.796    598.124    637.560    601.868    598.124    598.124
 43.670    635.000    629.060      5.940    598.216    625.813    601.476    598.216    598.216
 43.770    595.295    621.257    -25.962    598.309    618.318    601.256    598.309    598.309
 43.870    630.000    616.605     13.395    598.402    613.854    601.160    598.402    598.402
 43.970    642.356    613.913     28.443    598.497    611.272    601.141    598.497    598.497
 44.070    640.000    612.328     27.672    598.592    609.756    601.168    598.592    598.592
 44.170    640.000    611.346     28.654    598.688    608.817    601.219    598.688    598.688
 44.270    629.852    610.698     19.154    598.785    608.198    601.286    598.785    598.785
 44.370    626.282    610.254     16.028    598.882    607.774    601.363    598.882    598.882
 44.470    659.767    609.948     49.820    598.980    607.481    601.448    598.980    598.980
 44.570    567.708    609.743    -42.035    599.079    607.284    601.539    599.079    599.079
 44.670    640.060    609.618     30.442    599.179    607.161    601.636    599.179    599.179
 44.770    639.000    609.557     29.443    599.279    607.098    601.738    599.279    599.279
 44.870    627.513    609.549     17.964    599.380    607.085    601.844    599.380    599.380
 44.970    629.000    609.585     19.415    599.481    607.112    601.955    599.481    599.481
 45.070    543.000    609.661    -66.661    599.583    607.175    602.070    599.583    599.583
 45.170    665.000    609.771     55.229    599.686    607.269    602.188    599.686    599.686
 45.270    673.000    609.911     63.089    599.790    607.390    602.311    599.790    599.790
 45.370    641.668    610.080     31.587    599.894    607.536    602.439    599.894    599.894
 45.470    577.712    610.276    -32.564    599.998    607.705    602.570    599.998    599.998
 45.570    635.000    610.498     24.502    600.104    607.897    602.706    600.104    600.104
 45.670    656.000    610.746     45.254    600.209    608.109    602.846    600.209    600.209
 45.770    624.000    611.019     12.981    600.316    608.344    602.990    600.316    600.316
 45.870    633.000    611.317     21.683    600.423    608.600    603.140    600.423    600.423
 45.970    626.000    611.643     14.357    600.530    608.878    603.295    600.530    600.530
 46.070    605.000    611.998     -6.998    600.638    609.179    603.456    600.638    600.638
 46.170    582.000    612.382    -30.382    600.746    609.505    603.623    600.746    600.746
 46.270    653.983    612.800     41.182    600.855    609.859    603.796    600.855    600.855
 46.370    633.000    613.255     19.745    600.964    610.242    603.977    600.964    600.964
 46.470    618.000    613.751      4.249    601.074    610.658    604.165    601.074    601.074
 46.570    594.785    614.293    -19.508    601.184    611.112    604.363    601.184    601.184
 46.670    581.476    614.888    -33.412    601.295    611.610    604.571    601.295    601.295
 46.770    667.000    615.546     51.454    601.406    612.160    604.790    601.406    601.406
 46.870    646.000    616.278     29.722    601.517    612.770    605.023    601.517    601.517
 46.970    610.000    617.101     -7.101    601.629    613.457    605.271    601.629    601.629
 47.070    606.000    618.042    -12.042    601.741    614.242    605.539    601.741    601.741
 47.170    588.000    619.146    -31.146    601.853    615.165    605.831    601.853    601.853
 47.270    589.000    620.501    -31.501    601.966    616.304    606.160    601.966    601.966
 47.370    599.000    622.269    -23.269    602.079    617.801    606.543    602.079    602.079
 47.470    607.377    624.744    -17.367    602.192    619.916    607.015    602.192    602.192
 47.570    635.000    628.398      6.602    602.306    623.066    607.631    602.306    602.306
 47.670    588.220    633.887    -45.667    602.420    627.831    608.465    602.420    602.420
 47.770    648.502    641.940      6.562    602.534    634.855    609.603    602.534    602.534
 47.870    617.632    653.103    -35.471    602.649    644.622    611.106    602.649    602.649
 47.970    667.000    667.338     -0.338    602.764    657.095    612.974    602.764    602.764
 48.070    690.000    683.546      6.454    602.879    671.297    615.085    602.879    602.879
 48.170    693.000    699.131     -6.131    602.994    684.924    617.149    602.994    602.994
 48.270    715.000    710.108      4.892    603.109    694.441    618.720    603.109    603.109
 48.370    752.935    712.817     40.118    603.225    696.597    619.389    603.225    603.225
 48.470    653.785    706.756    -52.971    603.341    690.940    619.107    603.341    603.341
 48.570    708.000    695.117     12.883    603.456    680.294    618.240    603.456    603.456
 48.670    692.761    682.155     10.605    603.573    668.420    617.277    603.573    603.573
 48.770    711.000    670.937     40.063    603.689    658.027    616.577    603.689    603.689
 48.870    592.000    662.964    -70.964    603.805    650.430    616.323    603.805    603.805
 48.970    639.000    658.582    -19.582    603.922    645.919    616.573    603.922    603.922
 49.070    637.000    657.472    -20.472    604.038    644.184    617.317    604.038    604.038
 49.170    615.237    659.093    -43.856    604.155    644.713    618.528    604.155    604.155
 49.270    653.424    663.024     -9.600    604.271    647.078    620.211    604.271    604.271
 49.370    627.000    669.215    -42.215    604.388    651.141    622.455    604.388    604.388
 49.470    681.000    678.310      2.690    604.505    657.275    625.533    604.505    604.505
 49.570    735.933    692.320     43.613    604.622    666.811    630.121    604.622    604.622
 49.670    732.358    716.004     16.354    604.739    682.977    637.750    604.739    604.739
 49.770    760.000    759.143      0.857    604.856    712.431    651.543    604.856    604.856
 49.870    857.025    839.058     17.967    604.973    766.974    677.010    604.973    604.973
 49.970   1036.899    981.243     55.656    605.089    864.003    722.249    605.089    605.089
 50.070   1196.000   1214.609    -18.609    605.206   1023.345    796.343    605.206    605.206
 50.170   1525.000   1559.708    -34.708    605.323   1258.770    906.076    605.323    605.323
 50.270   1895.000   2008.952   -113.952    605.440   1565.211   1048.948    605.440    605.440
 50.370   2549.677   2509.634     40.043    605.557   1906.769   1208.171    605.557    605.557
 50.470   2978.000   2957.638     20.362    605.673   2212.475   1350.624    605.673    605.673
 50.570   3132.000   3218.582    -86.582    605.790   2390.714   1433.546    605.790    605.790
 50.670   3187.000   3194.491     -7.491    605.906   2374.690   1425.731    605.906    605.906
 50.770   2898.000   2896.365      1.635    606.023   2171.919   1330.605    606.023    606.023
 50.870   2428.000   2434.419     -6.419    606.139   1857.624   1183.124    606.139    606.139
 50.970   1961.000   1941.057     19.943    606.255   1522.221   1025.284    606.255    606.255
 51.070   1587.896   1512.639     75.256    606.371   1231.572    887.600    606.371    606.371
 51.170   1223.000   1193.899     29.101    606.487   1016.305    784.200    606.487    606.487
 51.270   1002.000    986.518     15.482    606.602    877.569    715.634    606.602    606.602
 51.370    880.000    867.295     12.705    606.718    799.329    674.742    606.718    606.718
 51.470    858.000    805.880     52.120    606.833    760.362    652.395    606.833    606.833
 51.570    788.000    775.853     12.147    606.948    741.790    641.049    606.948    606.948
 51.670    770.540    758.946     11.594    607.063    730.183    635.858    607.063    607.063
 51.770    753.000    745.582      7.418    607.177    718.514    634.273    607.177    607.177
 51.870    691.000    733.170    -42.170    607.292    705.365    635.115    607.292    607.292
 51.970    763.608    722.445     41.163    607.406    692.108    637.754    607.406    607.406
 52.070    732.979    714.373     18.606    607.520    680.355    641.541    607.520    607.520
 52.170    708.000    708.942     -0.942    607.633    671.059    645.514    607.633    607.633
 52.270    709.700    705.104      4.596    607.747    664.494    648.350    607.747    607.747
 52.370    701.000    701.341     -0.341    607.860    660.460    648.733    607.860    607.860
 52.470    701.000    696.714      4.286    607.972    658.533    646.146    607.972    607.972
 52.570    727.281    691.505     35.776    608.085    658.293    641.290    608.085    608.085
 52.670    723.000    686.782     36.218    608.197    659.485    635.489    608.197    608.197
 52.770    725.771    683.700     42.071    608.309    662.102    629.903    608.309    608.309
 52.870    718.172    683.333     34.839    608.420    666.501    625.250    608.420    608.420
 52.970    683.359    686.857     -3.498    608.531    673.572    621.815    608.531    608.531
 53.070    731.000    695.922     35.078    608.642    684.984    619.579    608.642    608.642
 53.170    748.955    713.062     35.893    608.752    703.443    618.368    608.752    608.752
 53.270    696.879    741.887    -45.008    608.862    732.762    617.984    608.862    608.862
 53.370    727.000    786.670    -59.670    608.971    777.440    618.196    608.971    608.971
 53.470    908.126    851.630     56.496    609.080    841.569    619.134    609.080    609.080
 53.570    930.000    938.416     -8.416    609.189    926.916    620.680    609.189    609.189
 53.670   1006.000   1044.017    -38.017    609.297   1030.610    622.695    609.297    609.297
 53.770   1158.000   1158.254     -0.254    609.405   1142.714    624.939    609.405    609.405
 53.870   1304.000   1261.946     42.054    609.512   1244.461    626.998    609.512    609.512
 53.970   1328.000   1328.889     -0.889    609.619   1310.199    628.319    609.619    609.619
 54.070   1305.000   1336.741    -31.741    609.726   1318.056    628.432    609.726    609.726
 54.170   1348.000   1282.558     65.442    609.831   1265.146    627.272    609.831    609.831
 54.270   1164.000   1185.421    -21.421    609.937   1170.154    625.234    609.937    609.937
 54.370   1040.184   1072.214    -32.030    610.042   1059.408    622.876    610.042    610.042
 54.470   1005.966    964.219     41.747    610.146    953.749    620.640    610.146    610.146
 54.570    812.000    873.511    -61.511    610.250    865.003    618.775    610.250    610.250
 54.670    773.042    804.416    -31.374    610.353    797.409    617.372    610.353    610.353
 54.770    736.000    755.963    -19.963    610.456    750.018    616.410    610.456    610.456
 54.870    742.000    724.321     17.679    610.558    719.078    615.807    610.558    610.558
 54.970    732.000    704.849     27.151    610.660    700.047    615.466    610.660    610.660
 55.070    652.000    693.435    -41.435    610.761    688.896    615.303    610.761    610.761
 55.170    641.088    687.057    -45.969    610.861    682.668    615.253    610.861    610.861
 55.270    673.025    683.786    -10.761    610.961    679.472    615.276    610.961    610.961
 55.370    713.844    682.525     31.319    611.060    678.235    615.351    611.060    611.060
 55.470    643.056    682.716    -39.660    611.159    678.411    615.465    611.159    611.159
 55.570    728.000    684.116     43.884    611.257    679.759    615.616    611.257    611.257
 55.670    723.000    686.662     36.338    611.355    682.216    615.801    611.355    611.355
 55.770    730.000    690.417     39.583    611.451    685.844    616.025    611.451    611.451
 55.870    751.628    695.577     56.051    611.547    690.829    616.295    611.547    611.547
 55.970    652.523    702.549    -50.025    611.643    697.568    616.624    611.643    611.643
 56.070    719.367    712.141      7.226    611.738    706.840    617.038    611.738    611.738
 56.170    673.140    725.921    -52.781    611.832    720.164    617.587    611.832    611.832
 56.270    691.730    746.791    -55.062    611.925    740.349    618.365    611.925    611.925
 56.370    767.000    779.760    -12.760    612.018    772.243    619.529    612.018    612.018
 56.470    805.000    832.664    -27.664    612.110    823.433    621.330    612.110    612.110
 56.570    892.000    916.340    -24.340    612.201    904.411    624.112    612.201    612.201
 56.670   1022.000   1043.512    -21.512    612.292   1027.496    628.279    612.292    612.292
 56.770   1246.721   1225.782     20.939    612.382   1203.923    634.201    612.382    612.382
 56.870   1447.000   1468.742    -21.742    612.471   1439.107    642.055    612.471    612.471
 56.970   1722.297   1766.121    -43.823    612.559   1726.980    651.644    612.559    612.559
 57.070   2181.148   2094.342     86.806    612.646   2044.718    662.221    612.646    612.646
 57.170   2446.706   2408.711     37.994    612.733   2349.052    672.368    612.733    612.733
 57.270   2735.464   2644.765     90.699    612.819   2577.563    680.041    612.819    612.819
 57.370   2630.000   2735.770   -105.770    612.905   2665.635    683.124    612.905    612.905
 57.470   2693.000   2651.035     41.965    612.989   2583.529    680.645    612.989    612.989
 57.570   2426.673   2420.056      6.617    613.073   2359.781    673.543    613.073    613.073
 57.670   2102.000   2109.178     -7.178    613.155   2058.612    663.931    613.155    613.155
 57.770   1787.000   1783.219      3.781    613.237   1742.778    653.875    613.237    613.237
 57.870   1538.078   1487.513     50.565    613.318   1456.162    644.836    613.318    613.318
 57.970   1222.000   1246.348    -24.348    613.399   1222.250    637.627    613.399    613.399
 58.070    986.000   1066.779    -80.779    613.478   1047.793    632.558    613.478    613.478
 58.170    912.032    944.180    -32.148    613.557    928.165    629.635    613.557    613.557
 58.270    871.000    868.303      2.697    613.635    853.181    628.795    613.635    613.635
 58.370    825.000    828.365     -3.365    613.712    812.007    630.088    613.712    613.712
 58.470    873.000    816.144     56.856    613.788    796.175    633.760    613.788    613.788
 58.570    822.000    826.889     -4.889    613.863    800.556    640.185    613.863    613.863
 58.670    832.329    858.556    -26.227    613.937    822.807    649.663    613.937    613.937
 58.770    935.896    910.131     25.765    614.010    861.987    662.119    614.010    614.010
 58.870    934.000    979.729    -45.729    614.083    916.950    676.816    614.083    614.083
 58.970   1036.000   1062.950    -26.950    614.154    984.880    692.173    614.154    614.154
 59.070   1132.000   1151.956    -19.956    614.225   1060.316    705.814    614.225    614.225
 59.170   1159.000   1236.305    -77.305    614.294   1135.467    715.090    614.294    614.294
 59.270   1289.004   1306.281    -17.277    614.363   1202.403    718.214    614.363    614.363
 59.370   1313.000   1355.819    -42.819    614.431   1255.071    715.171    614.431    614.431
 59.470   1349.000   1381.494    -32.494    614.497   1288.670    707.332    614.497    614.497
 59.570   1345.740   1381.034    -35.294    614.563   1299.185    696.439    614.563    614.563
 59.670   1360.000   1356.262      3.738    614.628   1286.815    684.110    614.628    614.628
 59.770   1355.785   1316.585     39.200    614.692   1259.482    671.825    614.692    614.692
 59.870   1314.000   1276.452     37.548    614.755   1230.452    660.767    614.755    614.755
 59.970   1249.000   1249.292     -0.292    614.817   1212.502    651.587    614.817    614.817
 60.070   1228.057   1243.867    -15.810    614.877   1214.288    644.397    614.877    614.877
 60.170   1289.954   1264.298     25.656    614.937   1240.162    638.967    614.937    614.937
 60.270   1342.770   1311.563     31.207    614.996   1291.441    634.961    614.996    614.996
 60.370   1399.000   1383.230     15.770    615.054   1365.998    632.079    615.054    615.054
 60.470   1416.000   1470.719    -54.719    615.111   1455.496    630.084    615.111    615.111
 60.570   1604.000   1557.071     46.929    615.166   1543.175    628.783    615.166    615.166
 60.670   1680.000   1618.111     61.889    615.221   1605.019    628.027    615.221    615.221
 60.770   1650.000   1629.506     20.494    615.275   1616.813    627.703    615.275    615.275
 60.870   1591.000   1579.520     11.480    615.327   1566.893    627.735    615.327    615.327
 60.970   1539.931   1476.790     63.141    615.379   1463.929    628.074    615.379    615.379
 61.070   1371.000   1343.619     27.381    615.429   1330.230    628.703    615.429    615.429
 61.170   1255.000   1203.757     51.243    615.479   1189.522    629.640    615.479    615.479
 61.270   1044.000   1075.543    -31.543    615.527   1060.065    630.960    615.527    615.527
 61.370   1011.941    970.339     41.602    615.574    953.049    632.836    615.574    615.574
 61.470    919.307    893.300     26.007    615.620    873.300    635.598    615.620    615.620
 61.570    877.178    845.249     31.929    615.665    821.074    639.816    615.665    615.665
 61.670    774.135    825.081    -50.946    615.709    794.364    646.394    615.709    615.709
 61.770    801.270    831.934    -30.665    615.752    791.024    656.617    615.752    615.752
 61.870    867.000    866.452      0.548    615.794    810.073    672.106    615.794    615.794
 61.970    952.000    930.726     21.274    615.834    851.871    694.596    615.834    615.834
 62.070    983.000   1026.941    -43.941    615.874    917.193    725.495    615.874    615.874
 62.170   1136.876   1155.095    -18.219    615.912   1005.571    765.269    615.912    615.912
 62.270   1320.000   1310.431      9.569    615.949   1113.404    812.768    615.949    615.949
 62.370   1464.000   1481.245    -17.245    615.985   1232.334    864.652    615.985    615.985
 62.470   1717.149   1647.632     69.517    616.020   1348.317    915.068    616.020    616.020
 62.570   1746.000   1782.259    -36.259    616.053   1442.125    955.918    616.053    616.053
 62.670   1810.000   1855.900    -45.900    616.086   1493.219    978.521    616.086    616.086
 62.770   1778.026   1849.278    -71.251    616.117   1488.043    977.150    616.117    616.117
 62.870   1771.328   1764.048      7.280    616.147   1427.738    952.309    616.147    616.147
 62.970   1589.000   1621.656    -32.656    616.176   1327.338    910.395    616.176    616.176
 63.070   1411.000   1451.470    -40.470    616.204   1207.448    860.166    616.204    616.204
 63.170   1279.243   1279.776     -0.533    616.230   1086.512    809.462    616.230    616.230
 63.270   1113.000   1125.044    -12.044    616.256    977.489    763.795    616.256    616.256
 63.370   1008.428    997.405     11.023    616.280    887.487    726.191    616.280    616.280
 63.470    887.928    899.944    -12.016    616.303    818.666    697.575    616.303    616.303
 63.570    814.176    830.594    -16.418    616.324    769.575    677.338    616.324    616.324
 63.670    761.000    784.523    -23.523    616.345    736.818    664.042    616.345    616.345
 63.770    740.000    756.165    -16.165    616.364    716.490    656.030    616.364    616.364
 63.870    743.000    740.675      2.325    616.382    705.188    651.856    616.382    616.382
 63.970    728.000    734.695     -6.695    616.399    700.546    650.533    616.399    616.399
 64.070    695.474    736.618    -41.144    616.414    701.391    651.622    616.414    616.414
 64.170    797.457    746.535     50.922    616.428    707.670    655.270    616.428    616.428
 64.270    764.000    766.029     -2.029    616.441    720.233    662.205    616.441    616.441
 64.370    804.745    797.833      6.912    616.453    740.527    673.715    616.453    616.453
 64.470    868.000    845.291     22.709    616.463    770.151    691.545    616.463    616.463
 64.570    944.811    911.542     33.269    616.473    810.289    717.646    616.473    616.473
 64.670   1065.434    998.410     67.025    616.481    861.050    753.735    616.481    616.481
 64.770   1090.000   1105.102    -15.102    616.487    920.787    800.669    616.487    616.487
 64.870   1203.000   1226.900    -23.900    616.492    985.507    857.725    616.492    616.492
 64.970   1372.000   1354.135     17.865    616.497   1048.487    921.961    616.497    616.497
 65.070   1525.000   1472.063     52.937    616.499   1100.610    987.755    616.499    616.499
 65.170   1556.468   1562.831     -6.363    616.501   1132.404   1046.732    616.501    616.501
 65.270   1693.000   1610.107     82.893    616.501   1137.831   1088.600    616.501    616.501
 65.370   1661.000   1604.713     56.287    616.500   1117.131   1103.938    616.500    616.500
 65.470   1515.293   1548.502    -33.209    616.497   1076.209   1088.689    616.497    616.497
 65.570   1489.000   1454.040     34.960    616.493   1023.772   1046.703    616.493    616.493
 65.670   1354.272   1339.274     14.998    616.488    968.379    987.361    616.488    616.488
 65.770   1261.979   1220.990     40.989    616.482    916.450    921.027    616.482    616.482
 65.870   1115.000   1111.145      3.855    616.474    871.501    856.142    616.474    616.474
 65.970    984.000   1016.200    -32.200    616.465    834.342    798.358    616.465    616.465
 66.070    860.000    938.109    -78.109    616.455    803.960    750.642    616.455    616.455
 66.170    860.000    876.066    -16.066    616.443    778.822    713.722    616.443    616.443
 66.270    775.039    828.134    -53.095    616.430    757.856    686.739    616.430    616.430
 66.370    789.000    792.066     -3.066    616.415    740.562    667.944    616.415    616.415
 66.470    710.000    765.590    -55.590    616.400    726.684    655.323    616.400    616.400
 66.570    673.000    746.630    -73.630    616.382    715.998    647.025    616.382    616.382
 66.670    709.000    733.482    -24.482    616.364    708.277    641.575    616.364    616.364
 66.770    716.000    724.877     -8.877    616.344    703.304    637.920    616.344    616.344
 66.870    689.000    719.939    -30.939    616.323    700.890    635.373    616.323    616.323
 66.970    720.582    718.128      2.454    616.300    700.912    633.517    616.300    616.300
 67.070    692.000    719.227    -27.227    616.276    703.387    632.116    616.276    616.276
 67.170    735.872    723.411     12.461    616.251    708.613    631.049    616.251    616.251
 67.270    734.280    731.397      2.883    616.224    717.355    630.266    616.224    616.224
 67.370    726.000    744.659    -18.659    616.196    731.085    629.770    616.196    616.196
 67.470    731.405    765.688    -34.283    616.167    752.247    629.606    616.167    616.167
 67.570    817.000    798.227     18.773    616.136    784.495    629.865    616.136    616.136
 67.670    853.011    847.355      5.656    616.103    832.774    630.679    616.103    616.103
 67.770    929.000    919.246      9.754    616.070    903.091    632.217    616.070    616.070
 67.870   1011.000   1020.440     -9.440    616.035   1001.805    634.659    616.035    616.035
 67.970   1135.000   1156.520    -21.520    615.998   1134.350    638.158    615.998    615.998
 68.070   1351.000   1330.300     20.700    615.960   1303.464    642.790    615.960    615.960
 68.170   1503.000   1539.772    -36.772    615.921   1507.205    648.492    615.921    615.921
 68.270   1733.000   1776.195    -43.195    615.881   1737.095    655.006    615.881    615.881
 68.370   2051.000   2022.649     28.351    615.838   1976.707    661.837    615.838    615.838
 68.470   2203.000   2253.445    -50.445    615.795   2201.100    668.240    615.795    615.795
 68.570   2394.000   2435.742    -41.742    615.750   2378.388    673.259    615.750    615.750
 68.670   2533.000   2536.106     -3.106    615.704   2476.101    675.925    615.704    615.704
 68.770   2585.000   2532.744     52.256    615.656   2473.066    675.604    615.656    615.656
 68.870   2471.000   2426.419     44.581    615.607   2370.014    672.315    615.607    615.607
 68.970   2283.000   2240.006     42.994    615.556   2189.154    666.720    615.556    615.556
 69.070   2037.000   2007.167     29.833    615.504   1963.176    659.792    615.504    615.504
 69.170   1747.742   1760.404    -12.662    615.451   1723.648    652.471    615.451    615.451
 69.270   1560.000   1524.885     35.115    615.396   1495.019    645.485    615.396    615.396
 69.370   1338.000   1317.013     20.987    615.340   1293.225    639.309    615.340    615.340
 69.470   1126.000   1145.078    -19.078    615.282   1126.319    634.180    615.282    615.282
 69.570   1077.000   1010.732     66.268    615.223    995.915    630.142    615.223    615.223
 69.670    890.002    910.940    -20.938    615.162    899.059    627.117    615.162    615.162
 69.770    874.000    839.993     34.007    615.100    830.210    624.936    615.100    615.100
 69.870    867.000    791.317     75.683    615.037    782.984    623.405    615.037    615.037
 69.970    810.428    758.742     51.686    614.972    751.391    622.347    614.972    614.972
 70.070    810.000    737.201     72.799    614.906    730.509    621.614    614.906    614.906
 70.170    797.000    722.925     74.075    614.838    716.678    621.097    614.838    614.838
 70.270    709.000    713.338     -4.338    614.769    707.393    620.722    614.769    614.769
 70.370    775.000    706.793     68.207    614.698    701.058    620.439    614.698    614.698
 70.470    684.000    702.304    -18.304    614.626    696.712    620.222    614.626    614.626
 70.570    698.049    699.313     -1.264    614.552    693.813    620.054    614.552    614.552
 70.670    710.143    697.531     12.612    614.477    692.082    619.927    614.477    614.477
 70.770    727.000    696.846     30.154    614.401    691.407    619.839    614.401    614.401
 70.870    675.644    697.283    -21.639    614.323    691.812    619.792    614.323    614.323
 70.970    664.098    699.011    -34.913    614.244    693.457    619.793    614.244    614.244
 71.070    734.000    702.393     31.607    614.163    696.694    619.856    614.163    614.163
 71.170    769.000    708.079     60.921    614.081    702.144    620.007    614.081    614.081
 71.270    678.000    717.127    -39.127    613.997    710.824    620.286    613.997    613.997
 71.370    760.000    731.151     28.849    613.912    724.288    620.756    613.912    613.912
 71.470    748.458    752.449     -3.991    613.825    744.743    621.504    613.825    613.825
 71.570    755.305    784.055    -28.750    613.737    775.108    622.647    613.737    613.737
 71.670    830.000    829.629      0.371    613.647    818.901    624.324    613.647    613.647
 71.770    883.000    893.112    -10.112    613.556    879.911    626.686    613.556    613.556
 71.870   1027.762    978.086     49.675    613.464    961.583    629.871    613.464    613.464
 71.970   1149.619   1086.878     62.741    613.370   1066.155    633.968    613.370    613.370
 72.070   1221.000   1219.497      1.503    613.274   1193.635    638.979    613.274    613.274
 72.170   1376.000   1372.595      3.405    613.178   1340.803    644.778    613.178    613.178
 72.270   1471.393   1538.588    -67.195    613.079   1500.366    651.078    613.079    613.079
 72.370   1661.000   1705.077    -44.077    612.980   1660.397    657.412    612.980    612.980
 72.470   1791.037   1854.847    -63.809    612.878   1804.339    663.125    612.878    612.878
 72.570   1964.395   1967.385     -2.991    612.776   1912.461    667.443    612.776    612.776
 72.670   2031.000   2023.362      7.638    612.671   1966.165    669.631    612.671    612.671
 72.770   2035.576   2011.695     23.881    612.566   1954.787    669.273    612.566    612.566
 72.870   1950.000   1934.792     15.208    612.459   1880.631    666.462    612.459    612.459
 72.970   1817.000   1807.268      9.732    612.350   1757.747    661.754    612.350    612.350
 73.070   1684.269   1649.449     34.820    612.240   1605.689    655.919    612.240    612.240
 73.170   1519.110   1480.996     38.114    612.129   1443.376    649.696    612.129    612.129
 73.270   1349.000   1317.552     31.448    612.016   1285.873    643.664    612.016    612.016
 73.370   1168.000   1169.855     -1.855    611.902   1143.532    638.207    611.902    611.902
 73.470   1032.000   1043.973    -11.973    611.786   1022.218    633.531    611.786    611.786
 73.570    946.556    942.010      4.546    611.669    923.976    629.697    611.669    611.669
 73.670    897.876    863.075     34.802    611.550    847.953    626.668    611.550    611.550
 73.770    780.000    804.358    -24.358    611.430    791.430    624.355    611.430    611.430
 73.870    775.000    762.146     12.854    611.308    750.800    622.651    611.308    611.308
 73.970    789.160    732.629     56.531    611.185    722.357    621.454    611.185    611.185
 74.070    664.324    712.421    -48.097    611.060    702.802    620.677    611.060    611.060
 74.170    738.453    698.827     39.625    610.934    689.500    620.260    610.934    610.934
 74.270    673.000    689.882    -16.882    610.807    680.520    620.169    610.807    610.807
 74.370    713.407    684.259     29.148    610.678    674.547    620.391    610.678    610.678
 74.470    633.000    681.115    -48.115    610.548    670.741    620.926    610.548    610.548
 74.570    635.000    679.928    -44.928    610.416    668.577    621.775    610.416    610.416
 74.670    712.000    680.350     31.650    610.283    667.715    622.930    610.283    610.283
 74.770    694.000    682.089     11.911    610.148    667.895    624.360    610.148    610.148
 74.870    665.275    684.834    -19.559    610.012    668.864    626.005    610.012    610.012
 74.970    698.000    688.192      9.808    609.875    670.326    627.770    609.875    609.875
 75.070    684.000    691.668     -7.668    609.736    671.921    629.518    609.736    609.736
 75.170    733.000    694.666     38.334    609.595    673.220    631.081    609.595    609.595
 75.270    737.602    696.564     41.038    609.453    673.779    632.283    609.453    609.453
 75.370    658.513    696.891    -38.378    609.310    673.252    632.995    609.310    609.310
 75.470    684.860    695.534    -10.674    609.165    671.539    633.206    609.165    609.165
 75.570    755.000    692.843     62.157    609.019    668.844    633.059    609.019    609.019
 75.670    704.840    689.528     15.312    608.872    665.611    632.824    608.872    608.872
 75.770    686.000    686.482     -0.482    608.723    662.384    632.850    608.723    608.723
 75.870    714.000    684.657     29.343    608.572    659.718    633.533    608.572    608.572
 75.970    711.242    685.026     26.216    608.420    658.146    635.313    608.420    608.420
 76.070    653.776    688.592    -34.817    608.267    658.185    638.679    608.267    608.267
 76.170    725.000    696.377     28.623    608.113    660.328    644.157    608.113    608.113
 76.270    720.000    709.377     10.623    607.957    665.033    652.287    607.957    607.957
 76.370    696.000    728.465    -32.465    607.799    672.683    663.557    607.799    607.799
 76.470    776.000    754.248     21.752    607.640    683.529    678.322    607.640    607.640
 76.570    792.000    786.871      5.129    607.480    697.608    696.694    607.480    607.480
 76.670    803.000    825.832    -22.832    607.318    714.666    718.422    607.318    607.318
 76.770    873.000    869.774      3.226    607.155    734.062    742.792    607.155    607.155
 76.870    885.009    916.344    -31.335    606.991    754.708    768.539    606.991    606.991
 76.970    914.000    962.112    -48.112    606.825    775.037    793.802    606.825    606.825
 77.070    998.190   1002.624     -4.434    606.657    793.019    816.159    606.657    606.657
 77.170   1052.000   1032.821     19.179    606.489    806.355    832.850    606.489    606.489
 77.270   1054.000   1048.065      5.935    606.319    812.940    841.343    606.319    606.319
 77.370   1094.000   1045.653     48.347    606.147    811.545    840.164    606.147    606.147
 77.470    998.000   1025.938    -27.938    605.975    802.327    829.507    605.975    605.975
 77.570   1024.608    992.160     32.448    605.800    786.750    811.146    605.800    605.800
 77.670    984.000    949.132     34.868    605.625    766.991    787.714    605.625    605.625
 77.770    923.000    901.798     21.202    605.448    745.289    761.917    605.448    605.448
 77.870    848.921    854.352     -5.431    605.270    723.541    736.051    605.270    605.270
 77.970    761.043    809.918    -48.876    605.090    703.162    711.825    605.090    605.090
 78.070    747.340    770.535    -23.195    604.909    685.072    690.356    604.909    604.909
 78.170    716.000    737.251    -21.251    604.727    669.748    672.219    604.727    604.727
 78.270    753.504    710.302     43.202    604.543    657.294    657.543    604.543    604.543
 78.370    664.000    689.311    -25.311    604.358    647.539    646.124    604.358    604.358
 78.470    675.000    673.519      1.481    604.171    640.139    637.547    604.171    604.171
 78.570    638.703    661.990    -23.287    603.984    634.668    631.301    603.984    603.984
 78.670    670.654    653.778     16.876    603.795    630.699    626.870    603.795    603.795
 78.770    618.096    648.036    -29.939    603.604    627.844    623.792    603.604    603.604
 78.870    634.000    644.068    -10.068    603.413    625.790    621.687    603.413    603.413
 78.970    630.114    641.348    -11.234    603.220    624.296    620.268    603.220    603.220
 79.070    642.000    639.500      2.500    603.025    623.191    619.331    603.025    603.025
 79.170    662.912    638.273     24.638    602.830    622.359    618.741    602.830    602.830
 79.270    621.000    637.515    -16.515    602.633    621.731    618.414    602.633    602.633
 79.370    641.158    637.141      4.016    602.434    621.266    618.307    602.434    602.434
 79.470    607.000    637.121    -30.121    602.235    620.947    618.406    602.235    602.235
 79.570    638.000    637.467      0.533    602.034    620.774    618.724    602.034    602.034
 79.670    641.561    638.230      3.331    601.832    620.760    619.299    601.832    601.832
 79.770    635.550    639.512     -3.962    601.628    620.931    620.206    601.628    601.628
 79.870    627.000    641.470    -14.470    601.423    621.325    621.565    601.423    601.423
 79.970    603.906    644.346    -40.439    601.217    621.993    623.565    601.217    601.217
 80.070    643.000    648.489     -5.489    601.010    623.001    626.491    601.010    601.010
 80.170    683.759    654.399     29.359    600.802    624.435    630.758    600.802    600.802
 80.270    611.000    662.763    -51.763    600.592    626.402    636.941    600.592    600.592
 80.370    682.000    674.480      7.520    600.381    629.042    645.804    600.381    600.381
 80.470    684.369    690.675     -6.305    600.168    632.521    658.303    600.168    600.168
 80.570    751.000    712.661     38.339    599.955    637.041    675.551    599.955    599.955
 80.670    716.000    741.846    -25.846    599.740    642.822    698.734    599.740    599.740
 80.770    775.107    779.581     -4.474    599.524    650.100    728.967    599.524    599.524
 80.870    812.000    826.945    -14.945    599.307    659.104    767.102    599.307    599.307
 80.970    952.000    884.506     67.494    599.088    670.048    813.493    599.088    599.088
 81.070    953.250    952.052      1.198    598.869    683.098    867.763    598.869    598.869
 81.170   1026.064   1028.315     -2.252    598.648    698.319    928.579    598.648    598.648
 81.270   1041.326   1110.738    -69.412    598.426    715.602    993.496    598.426    598.426
 81.370   1281.000   1195.345     85.655    598.202    734.590   1058.893    598.202    598.202
 81.470   1444.000   1276.837    167.163    597.978    754.645   1120.113    597.978    597.978
 81.570   1308.128   1349.043    -40.915    597.752    774.869   1171.882    597.752    597.752
 81.670   1463.000   1405.835     57.165    597.525    794.203   1209.130    597.525    597.525
 81.770   1411.640   1442.334    -30.694    597.297    811.581   1228.044    597.297    597.297
 81.870   1537.369   1455.834     81.535    597.068    826.054   1226.865    597.068    597.068
 81.970   1560.000   1446.177    113.823    596.838    836.956   1206.097    596.838    596.838
 82.070   1358.438   1415.350    -56.912    596.606    843.876   1168.140    596.606    596.606
 82.170   1481.000   1367.007    113.993    596.373    846.655   1116.800    596.373    596.373
 82.270   1366.000   1305.942     60.058    596.139    845.396   1056.773    596.139    596.139
 82.370   1352.000   1237.263    114.737    595.905    840.316    992.946    595.905    595.905
 82.470   1205.489   1165.629     39.860    595.668    831.675    929.720    595.668    595.668
 82.570   1150.000   1094.837     55.163    595.431    819.832    870.533    595.431    595.431
 82.670   1039.701   1027.757     11.944    595.193    805.353    817.691    595.193    595.193
 82.770    984.117    966.371     17.746    594.953    789.010    772.403    594.953    594.953
 82.870    881.792    911.790    -29.998    594.713    771.631    734.953    594.713    594.713
 82.970    908.054    864.319     43.734    594.471    753.932    704.932    594.471    594.471
 83.070    790.000    823.653    -33.653    594.228    736.459    681.487    594.228    594.228
 83.170    763.000    789.172    -26.172    593.985    719.646    663.567    593.985    593.985
 83.270    724.000    760.213    -36.213    593.740    703.892    650.110    593.740    593.740
 83.370    709.000    736.213    -27.213    593.494    689.582    640.165    593.494    593.494
 83.470    733.783    716.733     17.050    593.247    677.060    632.951    593.247    593.247
 83.570    676.993    701.431    -24.437    592.999    666.588    627.864    592.999    592.999
 83.670    700.000    690.028      9.972    592.750    658.330    624.462    592.750    592.750
 83.770    665.000    682.275    -17.275    592.499    652.345    622.435    592.499    592.499
 83.870    698.894    677.915     20.979    592.248    648.597    621.562    592.248    592.248
 83.970    695.849    676.644     19.205    591.996    646.955    621.672    591.996    591.996
 84.070    726.725    678.081     48.643    591.743    647.193    622.609    591.743    591.743
 84.170    641.000    681.740    -40.740    591.489    648.993    624.204    591.489    591.489
 84.270    659.000    687.014    -28.014    591.233    651.950    626.259    591.233    591.233
 84.370    647.795    693.178    -45.383    590.977    655.577    628.532    590.977    590.977
 84.470    715.303    699.400     15.903    590.720    659.324    630.743    590.720    590.720
 84.570    656.135    704.782    -48.647    590.462    662.603    632.585    590.462    590.462
 84.670    638.000    708.447    -70.447    590.203    664.842    633.749    590.203    590.203
 84.770    729.907    709.667     20.240    589.942    665.568    633.984    589.942    589.942
 84.870    679.000    708.038    -29.038    589.681    664.514    633.150    589.681    589.681
 84.970    601.000    703.578   -102.578    589.419    661.682    631.264    589.419    589.419
 85.070    696.043    696.701     -0.658    589.156    657.322    628.489    589.156    589.156
 85.170    676.000    688.076    -12.076    588.893    651.845    625.082    588.893    588.893
 85.270    663.000    678.454    -15.454    588.628    645.712    621.335    588.628    588.628
 85.370    644.000    668.556    -24.556    588.362    639.359    617.529    588.362    588.362
 85.470    658.000    658.995     -0.995    588.096    633.154    613.912    588.096    588.096
 85.570    573.000    650.263    -77.263    587.828    627.381    610.690    587.828    587.828
 85.670    614.000    642.715    -28.715    587.560    622.231    608.026    587.560    587.560
 85.770    631.000    636.582     -5.582    587.291    617.814    606.043    587.291    587.291
 85.870    649.000    631.989     17.011    587.021    614.166    604.829    587.021    587.021
 85.970    605.414    628.968    -23.554    586.750    611.266    604.438    586.750    586.750
 86.070    598.869    627.490    -28.621    586.478    609.054    604.900    586.478    586.478
 86.170    637.000    627.479      9.521    586.205    607.453    606.215    586.205    586.205
 86.270    646.000    628.827     17.173    585.932    606.385    608.356    585.932    585.932
 86.370    679.000    631.404     47.596    585.658    605.780    611.261    585.658    585.658
 86.470    628.641    635.061     -6.420    585.383    605.595    614.825    585.383    585.383
 86.570    633.000    639.630     -6.630    585.107    605.813    618.896    585.107    585.107
 86.670    594.377    644.918    -50.541    584.830    606.449    623.268    584.830    584.830
 86.770    669.000    650.714     18.286    584.553    607.554    627.678    584.553    584.553
 86.870    663.000    656.784      6.216    584.275    609.209    631.810    584.275    584.275
 86.970    670.000    662.885      7.115    583.996    611.523    635.312    583.996    583.996
 87.070    694.000    668.789     25.211    583.716    614.628    637.827    583.716    583.716
 87.170    719.668    674.340     45.328    583.435    618.661    639.059    583.435    583.435
 87.270    640.151    679.501    -39.351    583.154    623.755    638.840    583.154    583.154
 87.370    672.000    684.381    -12.381    582.872    630.010    637.176    582.872    582.872
 87.470    684.000    689.201     -5.201    582.590    637.475    634.240    582.590    582.590
 87.570    719.000    694.211     24.789    582.307    646.119    630.315    582.307    582.307
 87.670    732.000    699.590     32.410    582.023    655.803    625.717    582.023    582.023
 87.770    709.943    705.383      4.560    581.738    666.267    620.751    581.738    581.738
 87.870    736.732    711.453     25.279    581.453    677.108    615.685    581.453    581.453
 87.970    780.000    717.476     62.524    581.167    687.782    610.739    581.167    581.167
 88.070    772.000    722.944     49.056    580.880    697.611    606.084    580.880    580.880
 88.170    767.000    727.213     39.787    580.593    705.830    601.843    580.593    580.593
 88.270    716.000    729.607    -13.607    580.305    711.692    598.086    580.305    580.305
 88.370    672.952    729.585    -56.633    580.017    714.632    594.838    580.017    580.017
 88.470    725.000    726.917     -1.917    579.728    714.431    592.089    579.728    579.728
 88.570    769.268    721.766     47.502    579.438    711.288    589.801    579.438    579.438
 88.670    728.000    714.633     13.367    579.148    705.757    587.923    579.148    579.148
 88.770    689.000    706.211    -17.211    578.857    698.584    586.398    578.857    578.857
 88.870    714.583    697.247     17.335    578.566    690.572    585.170    578.566    578.566
 88.970    727.000    688.461     38.539    578.274    682.492    584.186    578.274    578.274
 89.070    656.000    680.496    -24.496    577.981    675.032    583.404    577.981    577.981
 89.170    647.000    673.886    -26.886    577.688    668.762    582.785    577.688    577.688
 89.270    655.000    669.022    -14.022    577.395    664.101    582.299    577.395    577.395
 89.370    656.000    666.125    -10.125    577.101    661.299    581.922    577.101    577.101
 89.470    614.679    665.242    -50.563    576.807    660.421    581.632    576.807    576.807
 89.570    671.000    666.243      4.757    576.512    661.360    581.410    576.512    576.512
 89.670    690.000    668.839     21.161    576.216    663.844    581.237    576.216    576.216
 89.770    684.273    672.599     11.674    575.921    667.460    581.093    575.921    575.921
 89.870    702.000    676.973     25.027    575.624    671.680    580.958    575.624    575.624
 89.970    694.000    681.324     12.676    575.328    675.889    580.811    575.328    575.328
 90.070    724.000    684.976     39.024    575.030    679.432    580.630    575.030    575.030
 90.170    712.000    687.285     24.715    574.733    681.686    580.393    574.733    574.733
 90.270    753.000    687.743     65.257    574.435    682.157    580.085    574.435    574.435
 90.370    672.000    686.076    -14.076    574.137    680.581    579.698    574.137    574.137
 90.470    680.000    682.299     -2.299    573.838    676.969    579.234    573.838    573.838
 90.570    714.394    676.689     37.705    573.539    671.587    578.704    573.539    573.539
 90.670    660.000    669.690     -9.690    573.240    664.863    578.126    573.240    573.240
 90.770    714.911    661.809     53.102    572.940    657.286    577.517    572.940    572.940
 90.870    690.000    653.539     36.461    572.640    649.332    576.895    572.640    572.640
 90.970    614.000    645.311    -31.311    572.340    641.416    576.277    572.340    572.340
 91.070    642.000    637.475      4.525    572.039    633.875    575.674    572.039    572.039
 91.170    636.000    630.290      5.710    571.739    626.961    575.097    571.739    571.739
 91.270    605.328    623.932    -18.604    571.438    620.843    574.550    571.438    571.438
 91.370    571.000    618.495    -47.495    571.136    615.611    574.039    571.136    571.136
 91.470    641.840    614.005     27.835    570.835    611.291    573.563    570.835    570.835
 91.570    576.000    610.438    -34.438    570.533    607.860    573.121    570.533    570.533
 91.670    612.000    607.734      4.266    570.231    605.260    572.712    570.231    570.231
 91.770    566.446    605.818    -39.372    569.929    603.418    572.333    569.929    569.929
 91.870    599.101    604.615     -5.514    569.626    602.261    571.982    569.626    569.626
 91.970    639.595    604.062     35.533    569.324    601.730    571.655    569.324    569.324
 92.070    606.957    604.123      2.834    569.021    601.789    571.353    569.021    569.021
 92.170    621.000    604.792     16.208    568.718    602.432    571.075    568.718    568.718
 92.270    577.000    606.100    -29.100    568.415    603.687    570.823    568.415    568.415
 92.370    611.000    608.112      2.888    568.112    605.618    570.598    568.112    568.112
 92.470    629.364    610.929     18.435    567.809    608.323    570.406    567.809    567.809
 92.570    599.000    614.682    -15.682    567.506    611.926    570.249    567.506    567.506
 92.670    615.000    619.524     -4.524    567.202    616.576    570.135    567.202    567.202
 92.770    657.899    625.618     32.281    566.899    622.429    570.068    566.899    566.899
 92.870    671.836    633.122     38.714    566.596    629.641    570.053    566.596    566.596
 92.970    691.000    642.181     48.819    566.292    638.351    570.094    566.292    566.292
 93.070    631.584    652.903    -21.318    565.989    648.663    570.193    565.989    565.989
 93.170    671.021    665.344      5.677    565.685    660.637    570.352    565.685    565.685
 93.270    627.000    679.488    -52.488    565.382    674.256    570.566    565.382    565.382
 93.370    697.000    695.261      1.739    565.078    689.451    570.834    565.078    565.078
 93.470    693.000    712.514    -19.514    564.775    706.078    571.149    564.775    564.775
 93.570    729.033    730.972     -1.940    564.472    723.870    571.506    564.472    564.472
 93.670    725.000    750.283    -25.283    564.169    742.478    571.898    564.169    564.169
 93.770    770.000    770.012     -0.012    563.865    761.473    572.324    563.865    563.865
 93.870    736.804    789.690    -52.886    563.562    780.380    572.786    563.562    563.562
 93.970    761.000    808.883    -47.883    563.260    798.753    573.300    563.260    563.260
 94.070    848.748    827.299     21.449    562.957    816.269    573.894    562.957    562.957
 94.170    855.000    844.871     10.129    562.654    832.813    574.618    562.654    562.654
 94.270    834.000    861.774    -27.774    562.352    848.493    575.538    562.352    562.352
 94.370    845.000    878.349    -33.349    562.049    863.568    576.735    562.049    562.049
 94.470    916.000    894.968     21.032    561.747    878.325    578.294    561.747    561.747
 94.570    947.000    911.893     35.107    561.446    892.951    580.292    561.446    561.446
 94.670    990.004    929.205     60.799    561.144    907.465    582.788    561.144    561.144
 94.770    942.028    946.796     -4.768    560.843    921.731    585.812    560.843    560.843
 94.870    992.000    964.442     27.558    560.541    935.530    589.359    560.541    560.541
 94.970    971.000    981.886    -10.886    560.241    948.656    593.379    560.241    560.241
 95.070    989.000    998.871     -9.871    559.940    960.949    597.773    559.940    559.940
 95.170   1056.000   1015.092     40.908    559.640    972.253    602.393    559.640    559.640
 95.270    992.000   1030.090    -38.090    559.340    982.306    607.041    559.340    559.340
 95.370    977.000   1043.158    -66.158    559.040    990.644    611.478    559.040    559.040
 95.470   1087.000   1053.326     33.674    558.741    996.565    615.431    558.741    558.741
 95.570   1100.000   1059.428     40.572    558.442    999.192    618.615    558.442    558.442
 95.670   1001.520   1060.294    -58.774    558.144    997.618    620.765    558.144    558.144
 95.770   1079.000   1054.992     24.008    557.846    991.120    621.673    557.846    557.846
 95.870   1017.372   1043.117    -25.745    557.548    979.397    621.234    557.548    557.548
 95.970   1016.638   1024.935     -8.297    557.251    962.697    619.466    557.251    557.251
 96.070   1028.578   1001.389     27.189    556.955    941.825    616.504    556.955    556.955
 96.170    956.000    973.948    -17.948    556.658    918.022    612.575    556.658    556.658
 96.270    979.328    944.376     34.952    556.363    892.781    607.954    556.363    556.363
 96.370    924.000    914.540      9.460    556.067    867.681    602.926    556.067    556.067
 96.470    879.000    886.266     -7.266    555.773    844.282    597.758    555.773    555.773
 96.570    890.000    861.263     28.737    555.479    824.057    592.684    555.479    555.479
 96.670    841.000    841.075     -0.075    555.185    808.359    587.898    555.185    555.185
 96.770    825.000    827.061     -2.061    554.892    798.402    583.543    554.892    554.892
 96.870    863.000    820.373     42.627    554.600    795.244    579.715    554.600    554.600
 96.970    847.000    821.954     25.046    554.308    799.774    576.466    554.308    554.308
 97.070    824.000    832.523     -8.523    554.017    812.699    573.809    554.017    554.017
 97.170    830.906    852.561    -21.655    553.726    834.519    571.728    553.726    553.726
 97.270    964.000    882.249     81.751    553.437    865.452    570.182    553.437    553.437
 97.370    966.000    921.667     44.333    553.147    905.626    569.125    553.147    553.147
 97.470    920.093    970.401    -50.308    552.859    954.688    568.499    552.859    552.859
 97.570   1089.257   1027.725     61.532    552.571   1011.971    568.241    552.571    552.571
 97.670   1150.000   1092.506     57.494    552.284   1076.406    568.290    552.284    552.284
 97.770   1183.000   1163.159     19.841    551.998   1146.474    568.582    551.998    551.998
 97.870   1207.692   1237.600    -29.908    551.713   1220.157    569.048    551.713    551.713
 97.970   1340.000   1313.259     26.741    551.428   1294.957    569.619    551.428    551.428
 98.070   1443.259   1387.054     56.205    551.144   1367.869    570.219    551.144    551.144
 98.170   1479.552   1455.477     24.075    550.861   1435.464    570.768    550.861    550.861
 98.270   1540.428   1514.766     25.663    550.579   1494.062    571.185    550.579    550.579
 98.370   1521.000   1561.221    -40.221    550.298   1540.042    571.391    550.298    550.298
 98.470   1636.000   1591.674     44.326    550.018   1570.300    571.323    550.018    550.018
 98.570   1676.486   1604.030     72.456    549.738   1582.783    570.935    549.738    549.738
 98.670   1665.545   1597.683     67.862    549.460   1576.896    570.215    549.460    549.460
 98.770   1563.000   1573.633    -10.633    549.182   1553.620    569.183    549.182    549.182
 98.870   1505.402   1534.251    -28.850    548.905   1515.278    567.883    548.905    548.905
 98.970   1485.000   1482.821      2.179    548.630   1465.089    566.380    548.630    548.630
 99.070   1414.527   1423.048     -8.521    548.355   1406.688    564.743    548.355    548.355
 99.170   1297.369   1358.674    -61.305    548.082   1343.747    563.043    548.082    548.082
 99.270   1276.000   1293.222    -17.222    547.809   1279.725    561.344    547.809    547.809
 99.370   1300.478   1229.855     70.622    547.538   1217.726    559.703    547.538    547.538
 99.470   1195.000   1171.307     23.693    547.267   1160.439    558.169    547.267    547.267
 99.570   1104.000   1119.866    -15.866    546.998   1110.112    556.780    546.998    546.998
 99.670   1095.000   1077.398     17.602    546.730   1068.585    555.565    546.730    546.730
 99.770   1031.000   1045.384    -14.384    546.463   1037.317    554.544    546.463    546.463
 99.870   1045.416   1024.954     20.462    546.197   1017.429    553.728    546.197    546.197
 99.970   1007.000   1016.917     -9.917    545.932   1009.727    553.120    545.932    545.932
100.070   1047.952   1021.775     26.177    545.669   1014.717    552.718    545.669    545.669
100.170   1080.000   1039.733     40.267    545.406   1032.614    552.510    545.406    545.406
100.270   1094.000   1070.707     23.293    545.145   1063.349    552.481    545.145    545.145
100.370   1139.000   1114.320     24.680    544.886   1106.568    552.612    544.886    544.886
100.470   1167.947   1169.907     -1.960    544.627   1161.628    552.879    544.627    544.627
100.570   1279.789   1236.491     43.298    544.370   1227.583    553.253    544.370    544.370
100.670   1344.000   1312.767     31.233    544.114   1303.155    553.703    544.114    544.114
100.770   1481.000   1397.062     83.938    543.860   1386.710    554.195    543.860    543.860
100.870   1443.602   1487.314    -43.712    543.606   1476.221    554.692    543.606    543.606
100.970   1644.000   1581.050     62.950    543.355   1569.256    555.156    543.355    543.355
101.070   1704.571   1675.527     29.044    543.104   1663.107    555.548    543.104    543.104
101.170   1724.000   1767.730    -43.730    542.855   1754.795    555.834    542.855    542.855
101.270   1945.000   1854.680     90.320    542.608   1841.369    555.983    542.608    542.608
101.370   1982.531   1933.685     48.846    542.362   1920.153    555.980    542.362    542.362
101.470   1886.000   2002.548   -116.548    542.117   1988.954    555.821    542.117    542.117
101.570   2156.000   2059.628     96.372    541.874   2046.115    555.519    541.874    541.874
101.670   2063.288   2103.716    -40.428    541.633   2090.404    555.097    541.633    541.633
101.770   2187.000   2133.829     53.171    541.393   2120.804    554.590    541.393    541.393
101.870   2200.829   2149.048     51.781    541.155   2136.357    554.033    541.155    541.155
101.970   2094.000   2148.540    -54.540    540.918   2136.198    553.461    540.918    540.918
102.070   2088.669   2131.808    -43.139    540.683   2119.795    552.907    540.683    540.683
102.170   2212.000   2099.070    112.930    540.450   2087.341    552.397    540.450    540.450
102.270   2065.000   2051.601     13.399    540.218   2040.087    551.953    540.218    540.218
102.370   1915.342   1991.813    -76.471    539.988   1980.433    551.587    539.988    539.988
102.470   1907.000   1923.027    -16.027    539.759   1911.693    551.308    539.759    539.759
102.570   1815.000   1849.008    -34.008    539.533   1837.633    551.115    539.533    539.533
102.670   1795.000   1773.464     21.536    539.308   1761.970    550.997    539.308    539.308
102.770   1633.162   1699.644    -66.482    539.085   1687.971    550.940    539.085    539.085
102.870   1610.000   1630.111    -20.111    538.864   1618.222    550.923    538.864    538.864
102.970   1549.000   1566.640    -17.640    538.644   1554.521    550.920    538.644    538.644
103.070   1464.000   1510.214    -46.214    538.426   1497.876    550.908    538.426    538.426
103.170   1489.144   1461.066     28.077    538.211   1448.545    550.864    538.211    538.211
103.270   1473.490   1418.727     54.763    537.997   1406.077    550.768    537.997    537.997
103.370   1387.000   1382.128      4.872    537.785   1369.422    550.605    537.785    537.785
103.470   1329.000   1349.730    -20.730    537.575   1337.055    550.357    537.575    537.575
103.570   1278.000   1319.702    -41.702    537.367   1307.160    550.013    537.367    537.367
103.670   1292.594   1290.162      2.431    537.161   1277.863    549.561    537.161    537.161
103.770   1231.000   1259.446    -28.446    536.957   1247.506    548.996    536.957    536.957
103.870   1218.000   1226.340     -8.340    536.755   1214.873    548.320    536.755    536.755
103.970   1202.655   1190.227     12.428    536.555   1179.337    547.543    536.555    536.555
104.070   1089.111   1151.081    -61.971    536.357   1140.853    546.682    536.357    536.357
104.170   1091.329   1109.356    -18.027    536.161   1099.853    545.758    536.161    536.161
104.270   1075.736   1065.812      9.924    535.967   1057.074    544.796    535.967    535.967
104.370   1011.617   1021.360     -9.743    535.776   1013.402    543.820    535.776    535.776
104.470    962.651    976.933    -14.282    535.587    969.750    542.850    535.587    535.587
104.570    905.000    933.412    -28.412    535.399    926.980    541.906    535.399    535.399
104.670    836.388    891.579    -55.191    535.215    885.861    541.001    535.215    535.215
104.770    906.000    852.092     53.908    535.032    847.039    540.147    535.032    535.032
104.870    802.000    815.467    -13.467    534.851    811.023    539.351    534.851    534.851
104.970    763.820    782.074    -18.254    534.673    778.177    538.619    534.673    534.673
105.070    745.000    752.131     -7.131    534.498    748.720    537.951    534.498    534.498
105.170    763.000    725.704     37.296    534.324    722.722    537.342    534.324    534.324
105.270    692.000    702.779    -10.779    534.153    700.166    536.797    534.153    534.153
105.370    663.000    683.229    -20.229    533.984    680.923    536.316    533.984    533.984
105.470    642.596    666.823    -24.228    533.818    664.773    535.890    533.818    533.818
105.570    648.603    653.297     -4.694    533.654    651.455    535.513    533.654    533.654
105.670    651.421    642.360      9.062    533.493    640.686    535.180    533.493    533.493
105.770    593.383    633.720    -40.336    533.334    632.178    534.885    533.334    533.334
105.870    664.000    627.099     36.901    533.178    625.658    534.625    533.178    533.178
105.970    683.000    622.247     60.753    533.024    620.881    534.394    533.024    533.024
106.070    614.697    618.951     -4.254    532.873    617.636    534.188    532.873    532.873
106.170    651.000    617.039     33.961    532.724    615.755    534.006    532.724    532.724
106.270    624.000    616.380      7.620    532.578    615.110    533.844    532.578    532.578
106.370    662.000    616.882     45.118    532.435    615.610    533.701    532.435    532.435
106.470    633.000    618.491     14.509    532.294    617.200    533.575    532.294    532.294
106.570    652.000    621.177     30.823    532.156    619.854    533.467    532.156    532.156
106.670    636.000    624.934     11.066    532.021    623.565    533.376    532.021    532.021
106.770    661.914    629.770     32.145    531.888    628.340    533.301    531.888    531.888
106.870    675.000    635.697     39.303    531.758    634.192    533.243    531.758    531.758
106.970    700.000    642.728     57.272    531.631    641.135    533.201    531.631    531.631
107.070    625.000    650.863    -25.863    531.507    649.167    533.176    531.507    531.507
107.170    624.666    660.083    -35.417    531.386    658.271    533.167    531.386    531.386
107.270    693.154    670.340     22.814    531.267    668.399    533.174    531.267    531.267
107.370    701.000    681.547     19.453    531.152    679.466    533.195    531.152    531.152
107.470    667.022    693.573    -26.550    531.039    691.342    533.229    531.039    531.039
107.570    725.000    706.237     18.763    530.930    703.849    533.273    530.930    530.930
107.670    699.804    719.310    -19.507    530.823    716.762    533.324    530.823    530.823
107.770    712.000    732.514    -20.514    530.720    729.805    533.377    530.720    530.720
107.870    776.995    745.524     31.471    530.619    742.661    533.430    530.619    530.619
107.970    772.000    757.985     14.015    530.521    754.977    533.475    530.521    530.521
108.070    781.926    769.516     12.411    530.427    766.380    533.509    530.427    530.427
108.170    834.488    779.744     54.744    530.336    776.501    533.525    530.336    530.336
108.270    781.000    788.337     -7.337    530.247    785.013    533.519    530.247    530.247
108.370    793.000    795.043     -2.043    530.163    791.669    533.486    530.163    530.163
108.470    781.000    799.739    -18.739    530.081    796.347    533.424    530.081    530.081
108.570    854.651    802.455     52.196    530.002    799.079    533.334    530.002    530.002
108.670    774.000    803.381    -29.381    529.927    800.052    533.216    529.927    529.927
108.770    773.000    802.842    -29.842    529.855    799.587    533.074    529.855    529.855
108.870    806.417    801.253      5.163    529.786    798.093    532.914    529.786    529.786
108.970    796.600    799.063     -2.463    529.721    796.015    532.741    529.721    529.721
109.070    767.000    796.710    -29.710    529.659    793.784    532.562    529.659    529.659
109.170    759.000    794.578    -35.578    529.600    791.779    532.380    529.600    529.600
109.270    799.000    792.974      6.026    529.545    790.302    532.201    529.545    529.545
109.370    819.000    792.111     26.889    529.493    789.563    532.030    529.493    529.493
109.470    781.000    792.097    -11.097    529.445    789.666    531.869    529.445    529.445
109.570    735.000    792.933    -57.933    529.400    790.609    531.721    529.400    529.400
109.670    759.129    794.510    -35.381    529.359    792.283    531.586    529.359    529.359
109.770    819.000    796.616     22.384    529.322    794.476    531.465    529.322    529.322
109.870    779.000    798.942    -19.942    529.287    796.880    531.357    529.287    529.287
109.970    808.000    801.104      6.896    529.257    799.111    531.261    529.257    529.257
110.070    818.000    802.666     15.334    529.230    800.735    531.175    529.230    529.230
110.170    764.000    803.180    -39.180    529.207    801.308    531.096    529.207    529.207
110.270    814.000    802.239     11.761    529.188    800.423    531.022    529.188    529.188
110.370    799.000    799.523     -0.523    529.172    797.766    530.951    529.172    529.172
110.470    794.000    794.841     -0.841    529.160    793.156    530.868    529.160    529.160
110.570    767.000    788.202    -21.202    529.152    786.581    530.798    529.152    529.152
110.670    750.000    779.727    -29.727    529.148    778.169    530.731    529.148    529.148
110.770    715.000    769.666    -54.666    529.148    768.174    530.665    529.148    529.148
110.870    705.000    758.354    -53.354    529.151    756.929    530.601    529.151    529.151
110.970    703.000    746.161    -43.161    529.159    744.803    530.540    529.159    529.159
111.070    716.000    733.458    -17.458    529.170    732.167    530.484    529.170    529.170
111.170    702.000    720.589    -18.589    529.185    719.363    530.433    529.185    529.185
111.270    751.000    707.894     43.106    529.205    706.729    530.389    529.205    529.205
111.370    734.214    695.639     38.574    529.228    694.532    530.353    529.228    529.228
111.470    685.000    684.055      0.945    529.256    683.000    530.326    529.256    529.256
111.570    650.107    673.322    -23.215    529.287    672.314    530.308    529.287    529.287
111.670    647.425    663.581    -16.155    529.323    662.614    530.300    529.323    529.323
111.770    659.940    654.919      5.020    529.363    653.988    530.302    529.363    529.363
111.870    607.104    647.387    -40.282    529.407    646.484    530.315    529.407    529.407
111.970    690.000    640.992     49.008    529.455    640.113    530.338    529.455    529.455
112.070    614.000    635.713    -21.713    529.508    634.851    530.371    529.508    529.508
112.170    589.504    631.501    -41.997    529.564    630.651    530.414    529.564    529.564
112.270    663.556    628.287     35.270    529.625    627.444    530.466    529.625    529.625
112.370    643.000    625.987     17.013    529.691    625.147    530.528    529.691    529.691
112.470    648.000    624.512     23.488    529.761    623.671    530.597    529.761    529.761
112.570    626.000    623.769      2.231    529.835    622.924    530.674    529.835    529.835
112.670    612.130    623.666    -11.536    529.914    622.815    530.758    529.914    529.914
112.770    628.000    624.118      3.882    529.997    623.258    530.848    529.997    529.997
112.870    624.000    625.047     -1.047    530.084    624.177    530.945    530.084    530.084
112.970    582.866    626.385    -43.519    530.176    625.505    531.046    530.176    530.176
113.070    619.000    628.078     -9.078    530.273    627.187    531.153    530.273    530.273
113.170    637.000    630.084      6.916    530.374    629.183    531.265    530.374    530.374
113.270    597.000    632.376    -35.376    530.480    631.464    531.381    530.480    530.480
113.370    619.000    634.944    -15.944    530.591    634.021    531.501    530.591    530.591
113.470    666.119    637.792     28.327    530.706    636.858    531.627    530.706    530.706
113.570    625.209    640.942    -15.733    530.826    639.996    531.759    530.826    530.826
113.670    671.266    644.433     26.834    530.951    643.474    531.897    530.951    530.951
113.770    597.000    648.323    -51.323    531.081    647.348    532.041    531.081    531.081
113.870    657.000    652.690      4.310    531.215    651.696    532.194    531.215    531.215
113.970    620.298    657.639    -37.340    531.354    656.622    532.356    531.354    531.354
114.070    661.000    663.305     -2.305    531.498    662.259    532.528    531.498    531.498
114.170    598.000    669.860    -71.860    531.647    668.778    532.712    531.647    531.647
114.270    732.000    677.526     54.474    531.801    676.398    532.909    531.801    531.801
114.370    681.000    686.581     -5.581    531.960    685.398    533.122    531.960    531.960
114.470    673.151    697.376    -24.225    532.124    696.124    533.352    532.124    532.124
114.570    718.000    710.349      7.651    532.293    709.012    533.601    532.293    532.293
114.670    725.329    726.037     -0.708    532.467    724.599    533.873    532.467    532.467
114.770    735.000    745.101    -10.101    532.646    743.540    534.169    532.646    532.646
114.870    767.000    768.334     -1.334    532.831    766.627    534.492    532.831    532.831
114.970    752.429    796.685    -44.256    533.020    794.804    534.846    533.020    533.020
115.070    770.000    831.268    -61.268    533.215    829.183    535.234    533.215    533.215
115.170    838.970    873.372    -34.403    533.415    871.049    535.659    533.415    533.415
115.270    895.000    924.468    -29.468    533.620    921.869    536.124    533.620    533.620
115.370    899.000    986.201    -87.201    533.831    983.285    536.633    533.831    533.831
115.470   1114.272   1060.378     53.894    534.046   1057.100    537.188    534.046    534.046
115.570   1118.000   1148.938    -30.938    534.268   1145.250    537.793    534.268    534.268
115.670   1258.000   1253.916      4.084    534.495   1249.768    538.450    534.495    534.495
115.770   1357.000   1377.379    -20.379    534.727   1372.719    539.162    534.727    534.727
115.870   1485.000   1521.363    -36.363    534.964   1516.136    539.929    534.964    534.964
115.970   1706.351   1687.774     18.576    535.208   1681.926    540.752    535.208    535.208
116.070   1929.000   1878.297     50.703    535.456   1871.774    541.631    535.456    535.456
116.170   2064.000   2094.274    -30.274    535.711   2087.025    542.564    535.711    535.711
116.270   2324.879   2336.588    -11.709    535.970   2328.566    543.549    535.970    535.970
116.370   2655.000   2605.544     49.456    536.236   2596.705    544.580    536.236    536.236
116.470   2990.000   2900.747     89.253    536.507   2891.056    545.653    536.507    536.507
116.570   3293.000   3220.999     72.001    536.784   3210.429    546.760    536.784    536.784
116.670   3491.000   3564.209    -73.209    537.067   3552.744    547.892    537.067    537.067
116.770   3858.925   3927.304    -68.379    537.356   3914.940    549.038    537.356    537.356
116.870   4193.000   4306.284   -113.284    537.650   4293.029    550.188    537.650    537.650
116.970   4665.000   4696.141    -31.141    537.950   4682.013    551.333    537.950    537.950
117.070   4960.000   5090.844   -130.844    538.257   5075.875    552.462    538.257    538.257
117.170   5497.220   5483.473     13.747    538.569   5467.708    553.563    538.569    538.569
117.270   5880.000   5866.300     13.700    538.887   5849.794    554.628    538.887    538.887
117.370   6183.128   6230.926    -47.797    539.211   6213.745    555.645    539.211    539.211
117.470   6546.000   6568.484    -22.484    539.541   6550.708    556.606    539.541    539.541
117.570   6928.542   6869.931     58.611    539.877   6851.646    557.500    539.877    539.877
117.670   7270.000   7126.426    143.574    540.220   7107.730    558.317    540.220    540.220
117.770   7369.000   7329.822     39.178    540.568   7310.821    559.048    540.568    540.568
117.870   7356.000   7473.235   -117.235    540.923   7454.041    559.685    540.923    540.923
117.970   7498.000   7551.623    -53.623    541.284   7532.353    560.220    541.284    541.284
118.070   7548.000   7562.275    -14.275    541.651   7543.044    560.650    541.651    541.651
118.170   7324.619   7505.090   -180.471    542.025   7486.011    560.973    542.025    542.025
118.270   7409.000   7382.586     26.414    542.404   7363.765    561.194    542.404    542.404
118.370   7345.000   7199.629    145.371    542.791   7181.165    561.315    542.791    542.791
118.470   7134.310   6962.951    171.359    543.183   6944.930    561.346    543.183    543.183
118.570   6502.000   6680.567   -178.567    543.582   6663.068    561.294    543.582    543.582
118.670   6236.000   6361.206   -125.206    543.988   6344.295    561.168    543.988    543.988
118.770   5844.000   6013.808   -169.808    544.400   5997.540    560.980    544.400    544.400
118.870   5576.000   5647.133    -71.133    544.818   5631.556    560.739    544.818    544.818
118.970   5139.000   5269.472   -130.472    545.244   5254.622    560.456    545.244    545.244
119.070   4884.000   4888.437     -4.437    545.675   4874.340    560.142    545.675    545.675
119.170   4409.286   4510.816   -101.530    546.114   4497.488    559.808    546.114    546.114
119.270   4230.000   4142.478     87.522    546.559   4129.925    559.467    546.559    546.559
119.370   3844.000   3788.316     55.684    547.011   3776.534    559.130    547.011    547.011
119.470   3492.000   3452.230     39.770    547.470   3441.205    558.807    547.470    547.470
119.570   3242.000   3137.144    104.856    547.935   3126.854    558.509    547.935    547.935
119.670   2816.000   2845.057    -29.057    548.408   2835.471    558.245    548.408    548.408
119.770   2584.000   2577.122      6.878    548.887   2568.205    558.024    548.887    548.887
119.870   2279.000   2333.747    -54.747    549.373   2325.455    557.853    549.373    549.373
119.970   2066.000   2114.706    -48.706    549.867   2106.993    557.737    549.867    549.867
120.070   1984.000   1919.259     64.741    550.367   1912.073    557.681    550.367    550.367
120.170   1733.871   1746.260    -12.390    550.874   1739.546    557.689    550.874    550.874
120.270   1650.110   1594.269     55.842    551.389   1587.969    557.765    551.389    551.389
120.370   1423.899   1461.642    -37.742    551.910   1455.698    557.910    551.910    551.910
120.470   1386.285   1346.624     39.660    552.439   1340.975    558.127    552.439    552.439
120.570   1189.759   1247.420    -57.661    552.975   1242.003    558.416    552.975    552.975
120.670   1222.000   1162.257     59.743    553.518   1157.009    558.777    553.518    553.518
120.770   1178.000   1089.434     88.566    554.068   1084.293    559.213    554.068    554.068
120.870   1089.890   1027.363     62.528    554.626   1022.262    559.723    554.626    554.626
120.970   1014.000    974.588     39.412    555.191    969.463    560.308    555.191    555.191
121.070    870.394    929.805    -59.410    555.763    924.589    560.968    555.763    555.763
121.170    862.000    891.862    -29.862    556.343    886.488    561.704    556.343    556.343
121.270    845.000    859.760    -14.760    556.931    854.160    562.517    556.931    556.931
121.370    776.082    832.641    -56.560    557.526    826.745    563.408    557.526    557.526
121.470    782.000    809.779    -27.779    558.128    803.516    564.379    558.128    558.128
121.570    780.108    790.564    -10.455    558.738    783.860    565.431    558.738    558.738
121.670    749.000    774.485    -25.485    559.356    767.266    566.566    559.356    559.356
121.770    794.513    761.121     33.392    559.981    753.310    567.784    559.981    559.981
121.870    803.909    750.122     53.787    560.614    741.641    569.089    560.614    560.614
121.970    697.000    741.198    -44.198    561.255    731.968    570.481    561.255    561.255
122.070    723.132    734.109    -10.978    561.904    724.048    571.962    561.904    561.904
122.170    696.000    728.655    -32.655    562.560    717.681    573.533    562.560    562.560
122.270    772.300    724.664     47.636    563.225    712.696    575.193    563.225    563.225
122.370    683.000    721.992    -38.992    563.897    708.947    576.944    563.897    563.897
122.470    663.000    720.511    -57.511    564.577    706.308    578.784    564.577    564.577
122.570    671.493    720.107    -48.614    565.266    704.666    580.712    565.266    565.266
122.670    724.081    720.678      3.404    565.962    703.921    582.725    565.962    565.962
122.770    723.000    722.123      0.877    566.666    703.978    584.821    566.666    566.666
122.870    712.000    724.349    -12.349    567.379    704.746    586.993    567.379    567.379
122.970    648.000    727.259    -79.259    568.100    706.138    589.234    568.100    568.100
123.070    691.000    730.756    -39.756    568.828    708.066    591.534    568.828    568.828
123.170    737.000    734.740      2.260    569.566    710.443    593.880    569.566    569.566
123.270    713.000    739.105    -26.105    570.311    713.179    596.257    570.311    570.311
123.370    791.019    743.739     47.280    571.065    716.180    598.647    571.065    571.065
123.470    718.000    748.525    -30.525    571.827    719.350    601.027    571.827    571.827
123.570    738.000    753.339    -15.339    572.597    722.590    603.375    572.597    572.597
123.670    812.664    758.053     54.611    573.376    725.798    605.663    573.376    573.376
123.770    790.000    762.533     27.467    574.164    728.869    607.863    574.164    574.164
123.870    730.668    766.645    -35.977    574.960    731.697    609.946    574.960    574.960
123.970    764.000    770.255     -6.255    575.764    734.181    611.880    575.764    575.764
124.070    835.000    773.235     61.765    576.578    736.219    613.638    576.578    576.578
124.170    807.000    775.465     31.535    577.400    737.721    615.190    577.400    577.400
124.270    722.142    776.820    -54.678    578.230    738.586    616.515    578.230    578.230
124.370    729.442    777.266    -47.824    579.070    738.793    617.595    579.070    579.070
124.470    835.934    776.757     59.177    579.918    738.309    618.420    579.918    579.918
124.570    800.109    775.263     24.845    580.775    737.108    618.987    580.775    580.775
124.670    732.923    772.802    -39.878    581.641    735.198    619.301    581.641    581.641
124.770    725.255    769.420    -44.165    582.515    732.617    619.377    582.515    582.515
124.870    794.452    765.194     29.259    583.399    729.418    619.233    583.399    583.399
124.970    828.000    760.218     67.782    584.292    725.672    618.895    584.292    584.292
