neutron_powder_diffraction_0024
R_wp: 3.668
Temperature (K): 514.740
Counts: 82971.00
Wavelength (Ã…): 2.52098
COMMENTS
Test file for demonstrating the .xyy file format in Reel1.0
END OF HEADER
   tth       Y_obs     Y_calc      Y_res    Background    Phase_1_Nuc    Phase_1_Mag    Phase_2_Nuc    Phase_2_Mag
  9.970    745.000    711.191     33.809    709.518    710.557    710.152    709.518    709.518
 10.070    670.549    710.235    -39.686    708.471    709.594    709.111    708.471    708.471
 10.170    738.351    709.295     29.056    707.430    708.647    708.077    707.430    707.430
 10.270    729.063    708.375     20.688    706.394    707.720    707.048    706.394    706.394
 10.370    730.000    707.476     22.524    705.363    706.814    706.024    705.363    705.363
 10.470    767.000    706.603     60.397    704.338    705.934    705.006    704.338    704.338
 10.570    679.330    705.760    -26.431    703.318    705.084    703.994    703.318    703.318
 10.670    700.982    704.953     -3.972    702.304    704.269    702.987    702.304    702.304
 10.770    651.972    704.190    -52.218    701.295    703.498    701.986    701.295    701.295
 10.870    776.000    703.480     72.520    700.292    702.780    700.990    700.292    700.292
 10.970    699.000    702.837     -3.837    699.294    702.130    700.000    699.294    699.294
 11.070    745.712    702.281     43.431    698.301    701.566    699.015    698.301    698.301
 11.170    692.000    701.839     -9.839    697.314    701.115    698.035    697.314    697.314
 11.270    675.513    701.549    -26.037    696.332    700.817    697.062    696.332    696.332
 11.370    719.000    701.478     17.522    695.355    700.737    696.093    695.355    695.355
 11.470    733.646    701.744     31.903    694.383    700.993    695.130    694.383    694.383
 11.570    781.000    702.607     78.393    693.417    701.847    694.173    693.417    693.417
 11.670    731.142    704.645     26.497    692.457    703.874    693.221    692.457    692.457
 11.770    681.789    709.038    -27.250    691.501    708.256    692.275    691.501    691.501
 11.870    750.000    717.754     32.246    690.551    716.957    691.334    690.551    690.551
 11.970    783.000    733.118     49.882    689.606    732.303    690.398    689.606    689.606
 12.070    887.000    756.266    130.734    688.666    755.429    689.468    688.666    688.666
 12.170    739.447    784.304    -44.857    687.732    783.442    688.543    687.732    687.732
 12.270    836.000    807.263     28.737    686.803    806.379    687.623    686.803    686.803
 12.370    847.716    811.107     36.609    685.879    810.210    686.709    685.879    685.879
 12.470    777.934    792.163    -14.229    684.960    791.266    685.801    684.960    684.960
 12.570    786.000    762.421     23.579    684.046    761.528    684.897    684.046    684.046
 12.670    715.000    734.829    -19.829    683.138    733.941    683.999    683.138    683.138
 12.770    678.975    714.713    -35.739    682.235    713.824    683.107    682.235    682.235
 12.870    741.190    701.992     39.198    681.336    701.099    682.219    681.336    681.336
 12.970    682.243    694.487    -12.244    680.443    693.586    681.338    680.443    680.443
 13.070    650.000    689.972    -39.972    679.556    689.062    680.461    679.556    679.556
 13.170    657.000    686.967    -29.967    678.673    686.047    679.590    678.673    678.673
 13.270    646.706    684.710    -38.004    677.795    683.778    678.724    677.795    677.795
 13.370    706.608    682.857     23.751    676.923    681.914    677.863    676.923    676.923
 13.470    699.465    681.254     18.212    676.055    680.299    677.008    676.055    676.055
 13.570    636.000    679.823    -43.823    675.193    678.856    676.158    675.193    675.193
 13.670    673.809    678.517     -4.708    674.336    677.538    675.313    674.336    674.336
 13.770    683.000    677.307      5.693    673.483    676.315    674.474    673.483    673.483
 13.870    695.000    676.172     18.828    672.636    675.167    673.640    672.636    672.636
 13.970    700.000    675.112     24.888    671.794    674.093    672.812    671.794    671.794
 14.070    691.000    674.090     16.910    670.957    673.058    671.988    670.957    670.957
 14.170    649.000    673.097    -24.097    670.124    672.051    671.170    670.124    670.124
 14.270    711.758    672.135     39.623    669.297    671.074    670.357    669.297    669.297
 14.370    666.739    671.199     -4.460    668.475    670.124    669.550    668.475    668.475
 14.470    695.649    670.286     25.363    667.658    669.196    668.747    667.658    667.658
 14.570    668.000    669.393     -1.393    666.845    668.288    667.950    666.845    666.845
 14.670    621.000    668.518    -47.518    666.038    667.397    667.158    666.038    666.038
 14.770    647.000    667.658    -20.658    665.235    666.521    666.371    665.235    665.235
 14.870    689.000    666.812     22.188    664.438    665.660    665.590    664.438    664.438
 14.970    678.332    665.979     12.353    663.645    664.810    664.814    663.645    663.645
 15.070    654.000    665.158    -11.158    662.857    663.972    664.043    662.857    662.857
 15.170    684.416    664.347     20.069    662.074    663.144    663.277    662.074    662.074
 15.270    639.000    663.547    -24.547    661.296    662.326    662.517    661.296    661.296
 15.370    680.969    662.761     18.208    660.523    661.522    661.762    660.523    660.523
 15.470    611.444    661.980    -50.536    659.754    660.722    661.012    659.754    659.754
 15.570    653.000    661.207     -8.207    658.991    659.930    660.267    658.991    658.991
 15.670    623.441    660.441    -37.001    658.232    659.145    659.528    658.232    658.232
 15.770    636.000    659.684    -23.684    657.478    658.368    658.793    657.478    657.478
 15.870    623.000    658.934    -35.934    656.729    657.598    658.064    656.729    656.729
 15.970    671.000    658.191     12.809    655.984    656.834    657.341    655.984    655.984
 16.070    649.000    657.456     -8.456    655.244    656.078    656.622    655.244    655.244
 16.170    630.000    656.732    -26.732    654.509    655.332    655.909    654.509    654.509
 16.270    574.000    656.013    -82.013    653.779    654.591    655.201    653.779    653.779
 16.370    698.733    655.298     43.435    653.054    653.854    654.498    653.054    653.054
 16.470    650.000    654.590     -4.590    652.333    653.122    653.801    652.333    652.333
 16.570    689.407    653.887     35.520    651.617    652.396    653.108    651.617    651.617
 16.670    679.033    653.192     25.841    650.905    651.675    652.421    650.905    650.905
 16.770    605.000    652.502    -47.502    650.199    650.961    651.740    650.199    650.199
 16.870    697.008    651.819     45.190    649.496    650.252    651.063    649.496    649.496
 16.970    623.895    651.142    -27.247    648.799    649.548    650.392    648.799    648.799
 17.070    683.000    650.470     32.530    648.106    648.850    649.726    648.106    648.106
 17.170    654.000    649.806      4.194    647.418    648.158    649.066    647.418    647.418
 17.270    691.967    649.157     42.810    646.734    647.479    648.412    646.734    646.734
 17.370    648.041    648.537     -0.496    646.055    646.829    647.763    646.055    646.055
 17.470    655.000    647.967      7.033    645.380    646.228    647.120    645.380    645.380
 17.570    616.000    647.342    -31.342    644.711    645.572    646.481    644.711    644.711
 17.670    684.132    646.708     37.423    644.045    644.906    645.847    644.045    644.045
 17.770    684.736    646.079     38.657    643.384    644.245    645.219    643.384    643.384
 17.870    637.000    645.457     -8.457    642.728    643.589    644.596    642.728    642.728
 17.970    613.309    644.840    -31.530    642.076    642.938    643.978    642.076    642.076
 18.070    634.000    644.229    -10.229    641.429    642.292    643.366    641.429    641.429
 18.170    646.000    643.626      2.374    640.786    641.652    642.760    640.786    640.786
 18.270    597.000    643.029    -46.029    640.148    641.018    642.159    640.148    640.148
 18.370    653.000    642.436     10.564    639.514    640.386    641.563    639.514    639.514
 18.470    625.000    641.849    -16.849    638.884    639.760    640.973    638.884    638.884
 18.570    650.000    641.268      8.732    638.259    639.139    640.389    638.259    638.259
 18.670    669.000    640.694     28.306    637.638    638.522    639.810    637.638    637.638
 18.770    611.000    640.125    -29.125    637.022    637.910    639.237    637.022    637.022
 18.870    599.000    639.567    -40.567    636.410    637.308    638.670    636.410    636.410
 18.970    633.000    639.020     -6.020    635.803    636.714    638.108    635.803    635.803
 19.070    650.000    638.470     11.530    635.200    636.117    637.552    635.200    635.200
 19.170    672.000    637.926     34.074    634.601    635.525    637.002    634.601    634.601
 19.270    644.000    637.395      6.605    634.007    634.941    636.460    634.007    634.007
 19.370    657.690    636.921     20.769    633.416    634.399    635.939    633.416    633.416
 19.470    609.448    636.417    -26.969    632.831    633.835    635.413    632.831    632.831
 19.570    657.000    635.901     21.099    632.249    633.263    634.887    632.249    632.249
 19.670    590.000    635.390    -45.390    631.672    632.695    634.367    631.672    631.672
 19.770    680.000    634.888     45.112    631.099    632.133    633.854    631.099    631.099
 19.870    610.000    634.412    -24.412    630.530    631.596    633.347    630.530    630.530
 19.970    601.000    633.930    -32.930    629.966    631.050    632.846    629.966    629.966
 20.070    618.000    633.450    -15.450    629.406    630.505    632.351    629.406    629.406
 20.170    630.111    632.978     -2.867    628.850    629.964    631.864    628.850    628.850
 20.270    636.000    632.546      3.454    628.298    629.449    631.395    628.298    628.298
 20.370    581.000    632.109    -51.109    627.750    628.927    630.933    627.750    627.750
 20.470    622.000    631.677     -9.677    627.207    628.418    630.466    627.207    627.207
 20.570    678.874    631.300     47.574    626.667    627.960    630.007    626.667    626.667
 20.670    632.995    630.898      2.097    626.132    627.477    629.553    626.132    626.132
 20.770    579.000    630.473    -51.473    625.601    626.968    629.107    625.601    625.601
 20.870    633.064    630.057      3.006    625.074    626.464    628.667    625.074    625.074
 20.970    659.382    629.689     29.693    624.552    626.003    628.237    624.552    624.552
 21.070    588.000    629.290    -41.290    624.033    625.510    627.813    624.033    624.033
 21.170    629.753    628.898      0.856    623.518    625.020    627.396    623.518    623.518
 21.270    590.000    628.516    -38.516    623.008    624.535    626.988    623.008    623.008
 21.370    627.000    628.155     -1.155    622.501    624.062    626.595    622.501    622.501
 21.470    587.659    627.806    -40.147    621.999    623.601    626.204    621.999    621.999
 21.570    633.000    627.457      5.543    621.500    623.137    625.821    621.500    621.500
 21.670    584.241    627.114    -42.874    621.006    622.674    625.447    621.006    621.006
 21.770    617.557    626.782     -9.225    620.515    622.216    625.082    620.515    620.515
 21.870    624.179    626.462     -2.283    620.029    621.765    624.726    620.029    620.029
 21.970    663.000    626.154     36.846    619.547    621.320    624.380    619.547    619.547
 22.070    620.000    625.859     -5.859    619.068    620.883    624.044    619.068    619.068
 22.170    603.521    625.580    -22.059    618.594    620.454    623.719    618.594    618.594
 22.270    629.000    625.314      3.686    618.123    620.032    623.405    618.123    618.123
 22.370    647.000    625.063     21.937    617.656    619.618    623.102    617.656    617.656
 22.470    612.431    624.829    -12.399    617.193    619.212    622.811    617.193    617.193
 22.570    627.000    624.614      2.386    616.734    618.817    622.532    616.734    616.734
 22.670    623.000    624.420     -1.420    616.279    618.434    622.266    616.279    616.279
 22.770    599.000    624.253    -25.253    615.828    618.066    622.015    615.828    615.828
 22.870    635.000    624.101     10.899    615.381    617.705    621.777    615.381    615.381
 22.970    622.438    623.974     -1.536    614.937    617.358    621.553    614.937    614.937
 23.070    644.919    623.875     21.044    614.498    617.028    621.345    614.498    614.498
 23.170    570.000    623.807    -53.807    614.062    616.717    621.153    614.062    614.062
 23.270    623.610    623.775     -0.166    613.630    616.427    620.978    613.630    613.630
 23.370    602.000    623.785    -21.785    613.201    616.165    620.822    613.201    613.201
 23.470    602.000    623.843    -21.843    612.777    615.934    620.686    612.777    612.777
 23.570    545.000    623.955    -78.955    612.356    615.742    620.570    612.356    612.356
 23.670    644.895    624.135     20.760    611.939    615.599    620.476    611.939    611.939
 23.770    584.362    624.397    -40.035    611.525    615.518    620.405    611.525    611.525
 23.870    649.000    624.762     24.238    611.116    615.519    620.360    611.116    611.116
 23.970    591.670    625.260    -33.590    610.710    615.631    620.341    610.710    610.710
 24.070    634.915    625.941      8.974    610.307    615.900    620.351    610.307    610.307
 24.170    671.000    626.899     44.101    609.909    616.418    620.393    609.909    609.909
 24.270    645.388    628.331     17.056    609.514    617.380    620.469    609.514    609.514
 24.370    677.182    630.660     46.522    609.123    619.207    620.581    609.123    609.123
 24.470    672.000    634.699     37.301    608.735    622.710    620.732    608.735    608.735
 24.570    661.604    641.709     19.896    608.351    629.146    620.927    608.351    608.351
 24.670    663.000    653.070      9.930    607.970    639.893    621.169    607.970    607.970
 24.770    684.000    669.300     14.700    607.593    655.465    621.462    607.593    607.593
 24.870    672.000    688.377    -16.377    607.220    673.831    621.813    607.220    607.220
 24.970    731.232    704.047     27.184    606.850    688.730    622.226    606.850    606.850
 25.070    688.000    707.817    -19.817    606.484    691.653    622.709    606.484    606.484
 25.170    667.000    697.260    -30.260    606.121    680.165    623.269    606.121    606.121
 25.270    707.852    679.543     28.309    605.762    661.429    623.915    605.762    605.762
 25.370    656.000    662.789     -6.789    605.406    643.565    624.657    605.406    605.406
 25.470    650.000    650.642     -0.642    605.054    630.206    625.506    605.054    605.054
 25.570    646.000    643.356      2.644    604.705    621.593    626.477    604.705    604.705
 25.670    681.000    639.736     41.264    604.360    616.515    627.586    604.360    604.360
 25.770    616.591    638.408    -21.817    604.018    613.578    628.852    604.018    604.018
 25.870    589.530    638.391    -48.861    603.680    611.776    630.297    603.680    603.680
 25.970    683.000    639.156     43.844    603.345    610.554    631.948    603.345    603.345
 26.070    643.000    640.474      2.526    603.013    609.649    633.838    603.013    603.013
 26.170    657.000    642.270     14.730    602.685    608.946    636.009    602.685    602.685
 26.270    607.986    644.534    -36.549    602.360    608.389    638.505    602.360    602.360
 26.370    664.000    647.281     16.719    602.039    607.937    641.381    602.039    602.039
 26.470    624.667    650.573    -25.906    601.720    607.579    644.713    601.720    601.720
 26.570    652.000    654.491     -2.491    601.406    607.303    648.592    601.406    601.406
 26.670    610.000    659.147    -49.147    601.094    607.106    653.132    601.094    601.094
 26.770    682.000    664.686     17.314    600.786    606.988    658.481    600.786    600.786
 26.870    624.220    671.306    -47.085    600.481    606.953    664.830    600.481    600.481
 26.970    666.000    679.266    -13.266    600.179    607.010    672.430    600.179    600.179
 27.070    658.000    688.919    -30.919    599.881    607.175    681.619    599.881    599.881
 27.170    739.916    700.748     39.169    599.586    607.469    692.857    599.586    599.586
 27.270    665.000    715.426    -50.426    599.294    607.926    706.785    599.294    599.294
 27.370    765.394    733.919     31.475    599.005    608.592    724.320    599.005    599.005
 27.470    729.096    757.668    -28.571    598.720    609.542    746.832    598.720    598.720
 27.570    857.000    789.022     67.978    598.437    610.890    776.551    598.437    598.437
 27.670    814.569    832.925    -18.356    598.158    612.886    818.170    598.158    598.158
 27.770    918.000    903.171     14.829    597.882    616.217    884.790    597.882    597.882
 27.870   1051.000   1041.814      9.186    597.609    622.971   1016.357    597.609    597.609
 27.970   1386.000   1358.893     27.107    597.340    638.606   1317.422    597.340    597.340
 28.070   1910.000   2065.030   -155.030    597.073    673.568   1988.134    597.073    597.073
 28.170   3179.000   3398.207   -219.207    596.810    739.668   3254.697    596.810    596.810
 28.270   5306.395   5355.093    -48.699    596.549    836.783   5114.037    596.549    596.549
 28.370   7329.000   7353.982    -24.982    596.292    936.179   7013.359    596.292    596.292
 28.470   8229.000   8257.768    -28.768    596.038    981.728   7871.687    596.038    596.038
 28.570   7560.000   7396.548    163.452    595.787    940.756   7051.507    595.787    595.787
 28.670   5795.000   5588.319    206.681    595.539    854.920   5328.999    595.539    595.539
 28.770   3986.238   4064.357    -78.119    595.293    787.031   3872.671    595.293    595.293
 28.870   3489.000   3452.341     36.659    595.051    769.837   3277.544    595.051    595.051
 28.970   3628.000   3703.536    -75.536    594.812    800.402   3497.898    594.812    594.812
 29.070   4404.000   4321.428     82.572    594.576    849.059   4066.934    594.576    594.576
 29.170   4562.255   4612.850    -50.595    594.343    871.681   4335.630    594.343    594.343
 29.270   4194.748   4158.157     36.590    594.113    841.142   3911.405    594.113    594.113
 29.370   3178.318   3221.191    -42.873    593.885    776.570   3038.845    593.885    593.885
 29.470   2272.000   2278.436     -6.436    593.661    711.380   2161.005    593.661    593.661
 29.570   1621.139   1586.144     34.995    593.439    663.503   1516.275    593.439    593.439
 29.670   1170.469   1174.080     -3.611    593.221    635.062   1132.349    593.221    593.221
 29.770   1055.000    960.789     94.211    593.005    620.419    933.432    593.005    593.005
 29.870    934.000    854.765     79.235    592.792    613.228    834.358    592.792    592.792
 29.970    893.000    797.466     95.534    592.582    609.434    780.629    592.582    592.582
 30.070    769.000    761.436      7.564    592.375    607.147    746.672    592.375    592.375
 30.170    690.350    735.926    -45.577    592.171    605.646    722.457    592.171    592.171
 30.270    787.000    716.823     70.177    591.969    604.684    704.112    591.969    591.969
 30.370    702.000    702.360     -0.360    591.771    604.221    689.911    591.771    591.771
 30.470    668.000    691.845    -23.845    591.575    604.401    679.018    591.575    591.575
 30.570    691.905    685.525      6.380    591.381    605.670    671.232    591.381    591.381
 30.670    717.000    684.748     32.252    591.191    608.923    667.005    591.191    591.191
 30.770    671.953    691.781    -19.828    591.003    615.448    667.317    591.003    591.003
 30.870    750.000    708.563     41.437    590.818    626.326    673.022    590.818    590.818
 30.970    729.443    734.164     -4.720    590.636    641.191    683.558    590.636    590.636
 31.070    790.000    761.599     28.401    590.456    656.658    695.331    590.456    590.456
 31.170    831.693    776.839     54.854    590.280    665.844    701.202    590.280    590.280
 31.270    798.607    768.015     30.593    590.105    662.919    695.136    590.105    590.105
 31.370    736.000    738.940     -2.940    589.934    649.804    679.022    589.934    589.934
 31.470    733.000    703.739     29.261    589.765    633.513    659.959    589.765    589.765
 31.570    766.000    673.485     92.515    589.598    619.548    643.517    589.598    589.598
 31.670    689.000    652.172     36.828    589.435    609.905    631.691    589.435    589.435
 31.770    664.000    638.984     25.016    589.274    604.196    624.055    589.274    589.274
 31.870    682.000    631.312     50.688    589.115    601.145    619.278    589.115    589.115
 31.970    686.000    626.756     59.244    588.959    599.577    616.135    588.959    588.959
 32.070    653.000    623.804     29.196    588.806    598.753    613.853    588.806    588.806
 32.170    598.249    621.705    -23.455    588.655    598.314    612.044    588.655    588.655
 32.270    644.859    620.136     24.723    588.507    598.107    610.533    588.507    588.507
 32.370    628.000    618.963      9.037    588.361    598.076    609.246    588.361    588.361
 32.470    577.277    618.126    -40.849    588.217    598.199    608.142    588.217    588.217
 32.570    648.730    617.601     31.129    588.077    598.476    607.199    588.077    588.077
 32.670    579.716    617.385    -37.668    587.938    598.916    606.406    587.938    587.938
 32.770    585.254    617.493    -32.238    587.802    599.538    605.756    587.802    587.802
 32.870    640.082    617.958     22.124    587.669    600.374    605.251    587.669    587.669
 32.970    591.000    618.837    -27.837    587.538    601.472    604.900    587.538    587.538
 33.070    629.856    620.216      9.640    587.409    602.902    604.721    587.409    587.409
 33.170    662.000    622.229     39.771    587.283    604.765    604.745    587.283    587.283
 33.270    620.000    625.093     -5.093    587.159    607.226    605.024    587.159    587.159
 33.370    629.000    629.217     -0.217    587.038    610.589    605.663    587.038    587.038
 33.470    625.000    635.466    -10.466    586.918    615.495    606.886    586.918    586.918
 33.570    650.000    645.772      4.228    586.802    623.371    609.198    586.802    586.802
 33.670    627.345    664.142    -36.797    586.687    637.175    613.646    586.687    586.687
 33.770    707.000    697.675      9.325    586.575    662.144    622.091    586.575    586.575
 33.870    786.179    756.228     29.951    586.465    705.554    637.116    586.465    586.465
 33.970    821.270    848.839    -27.569    586.358    774.073    661.090    586.358    586.358
 34.070    913.000    975.986    -62.986    586.252    868.057    694.137    586.252    586.252
 34.170   1120.000   1118.961      1.039    586.149    973.710    731.353    586.149    586.149
 34.270   1258.267   1232.165     26.102    586.048   1057.397    760.780    586.048    586.048
 34.370   1279.000   1258.459     20.541    585.950   1076.961    767.433    585.950    585.950
 34.470   1145.000   1180.204    -35.204    585.854   1019.379    746.682    585.854    585.854
 34.570   1000.000   1042.371    -42.371    585.759    917.825    710.317    585.759    585.759
 34.670    841.000    902.327    -61.327    585.668    814.623    673.383    585.668    585.668
 34.770    750.000    791.535    -41.535    585.578    732.991    644.130    585.578    585.578
 34.870    772.000    717.021     54.979    585.490    678.114    624.403    585.490    585.490
 34.970    687.000    672.432     14.568    585.405    645.305    612.534    585.405    585.405
 35.070    687.000    647.444     39.556    585.321    626.950    605.816    585.321    585.321
 35.170    680.000    633.374     46.626    585.240    616.643    601.972    585.240    585.240
 35.270    696.000    624.829     71.171    585.161    610.402    599.588    585.161    585.161
 35.370    603.000    619.060    -16.060    585.084    606.201    597.943    585.084    585.084
 35.470    619.545    614.819      4.726    585.009    603.119    596.709    585.009    585.009
 35.570    644.247    611.538     32.709    584.936    600.736    595.738    584.936    584.936
 35.670    579.000    608.930    -29.930    584.865    598.840    594.955    584.865    584.865
 35.770    647.663    606.822     40.841    584.797    597.303    594.315    584.797    584.797
 35.870    648.566    605.100     43.466    584.730    596.040    593.790    584.730    584.730
 35.970    574.994    603.684    -28.690    584.665    594.990    593.358    584.665    584.665
 36.070    561.459    602.514    -41.055    584.602    594.110    593.007    584.602    584.602
 36.170    629.000    601.550     27.450    584.542    593.366    592.725    584.542    584.542
 36.270    575.376    600.759    -25.383    584.483    592.733    592.508    584.483    584.483
 36.370    614.000    600.121     13.879    584.426    592.194    592.352    584.426    584.426
 36.470    638.000    599.620     38.380    584.371    591.733    592.257    584.371    584.371
 36.570    580.000    599.247    -19.247    584.318    591.341    592.224    584.318    584.318
 36.670    612.000    599.001     12.999    584.267    591.010    592.258    584.267    584.267
 36.770    584.000    598.883    -14.883    584.218    590.734    592.367    584.218    584.218
 36.870    619.000    598.904     20.096    584.170    590.512    592.562    584.170    584.170
 36.970    617.000    599.081     17.919    584.125    590.344    592.862    584.125    584.125
 37.070    575.837    599.447    -23.610    584.081    590.239    593.289    584.081    584.081
 37.170    628.491    600.060     28.431    584.040    590.216    593.883    584.040    584.040
 37.270    584.761    601.027    -16.266    584.000    590.322    594.705    584.000    584.000
 37.370    615.000    602.556     12.444    583.961    590.645    595.873    583.961    583.961
 37.470    593.144    605.041    -11.897    583.925    591.330    597.635    583.925    583.925
 37.570    674.000    609.191     64.809    583.891    592.568    600.514    583.891    583.891
 37.670    654.000    616.184     37.816    583.858    594.528    605.513    583.858    583.858
 37.770    639.000    627.697     11.303    583.827    597.238    614.284    583.827    583.827
 37.870    637.000    645.591     -8.591    583.798    600.417    628.969    583.798    583.798
 37.970    639.781    670.943    -31.162    583.770    603.286    651.423    583.770    583.770
 38.070    677.000    702.649    -25.649    583.744    604.669    681.721    583.744    583.744
 38.170    786.391    736.366     50.024    583.720    603.888    716.196    583.720    583.720
 38.270    741.000    763.430    -22.430    583.698    601.504    745.625    583.698    583.698
 38.370    766.000    771.647     -5.647    583.677    598.518    756.811    583.677    583.677
 38.470    706.000    754.950    -48.950    583.658    595.610    743.007    583.658    583.658
 38.570    721.000    721.677     -0.677    583.641    593.172    712.154    583.641    583.641
 38.670    665.000    685.254    -20.254    583.625    591.363    677.523    583.625    583.625
 38.770    629.114    654.285    -25.171    583.611    590.136    647.765    583.611    583.611
 38.870    662.000    631.772     30.228    583.598    589.353    626.021    583.598    583.598
 38.970    652.147    617.193     34.953    583.588    588.865    611.918    583.588    583.588
 39.070    629.016    608.475     20.540    583.578    588.561    603.494    583.578    583.578
 39.170    587.000    603.418    -16.418    583.570    588.365    598.625    583.570    583.570
 39.270    627.000    600.394     26.606    583.564    588.233    595.726    583.564    583.564
 39.370    599.000    598.436      0.564    583.560    588.142    593.855    583.560    583.560
 39.470    555.000    597.052    -42.052    583.556    588.078    592.531    583.556    583.556
 39.570    607.000    596.006     10.994    583.555    588.035    591.526    583.555    583.555
 39.670    591.004    595.184     -4.180    583.555    588.007    590.733    583.555    583.555
 39.770    591.000    594.531     -3.531    583.556    587.998    590.089    583.556    583.556
 39.870    622.000    594.004     27.996    583.559    588.003    589.560    583.559    583.559
 39.970    583.000    593.577    -10.577    583.563    588.020    589.120    583.563    583.563
 40.070    612.998    593.231     19.767    583.569    588.050    588.750    583.569    583.569
 40.170    571.000    592.951    -21.951    583.576    588.091    588.436    583.576    583.576
 40.270    575.000    592.728    -17.728    583.585    588.144    588.168    583.585    583.585
 40.370    590.000    592.553     -2.553    583.595    588.209    587.939    583.595    583.595
 40.470    615.000    592.421     22.579    583.606    588.287    587.741    583.606    583.606
 40.570    558.426    592.327    -33.902    583.619    588.377    587.569    583.619    583.619
 40.670    565.599    592.269    -26.671    583.633    588.482    587.421    583.633    583.633
 40.770    625.685    592.246     33.439    583.649    588.602    587.292    583.649    583.649
 40.870    579.000    592.255    -13.255    583.665    588.741    587.181    583.665    583.665
 40.970    619.000    592.299     26.701    583.684    588.899    587.085    583.684    583.684
 41.070    597.000    592.377      4.623    583.703    589.079    587.002    583.703    583.703
 41.170    570.844    592.494    -21.650    583.724    589.287    586.931    583.724    583.724
 41.270    581.000    592.652    -11.652    583.746    589.527    586.872    583.746    583.746
 41.370    587.000    592.857     -5.857    583.769    589.804    586.823    583.769    583.769
 41.470    608.991    593.117     15.874    583.794    590.128    586.784    583.794    583.794
 41.570    603.000    593.442      9.558    583.820    590.508    586.755    583.820    583.820
 41.670    589.000    593.848     -4.848    583.847    590.962    586.735    583.847    583.847
 41.770    567.000    594.357    -27.357    583.875    591.508    586.725    583.875    583.875
 41.870    596.050    595.002      1.048    583.905    592.183    586.726    583.905    583.905
 41.970    598.000    595.847      2.153    583.936    593.045    586.740    583.936    583.936
 42.070    618.736    597.015     21.721    583.968    594.215    586.770    583.968    583.968
 42.170    595.272    598.756     -3.484    584.001    595.933    586.828    584.001    584.001
 42.270    564.611    601.549    -36.938    584.035    598.659    586.929    584.035    584.035
 42.370    574.000    606.202    -32.202    584.070    603.172    587.107    584.070    584.070
 42.470    610.000    613.869     -3.869    584.107    610.581    587.404    584.107    584.107
 42.570    608.042    625.821    -17.779    584.144    622.110    587.870    584.144    584.144
 42.670    614.000    642.881    -28.881    584.183    638.551    588.536    584.183    584.183
 42.770    639.303    664.572    -25.269    584.223    659.444    589.384    584.223    584.223
 42.870    653.000    688.101    -35.101    584.264    682.106    590.306    584.264    584.264
 42.970    669.000    707.534    -38.534    584.306    700.826    591.073    584.306    584.306
 43.070    697.000    715.022    -18.022    584.349    708.053    591.382    584.349    584.349
 43.170    663.000    706.641    -43.641    584.393    700.014    591.083    584.393    584.393
 43.270    720.139    686.778     33.362    584.438    680.925    590.344    584.438    584.438
 43.370    650.478    663.342    -12.864    584.484    658.397    589.470    584.484    584.484
 43.470    636.000    642.067     -6.067    584.532    637.946    588.682    584.532    584.532
 43.570    649.119    625.539     23.580    584.580    622.059    588.079    584.580    584.580
 43.670    636.000    614.100     21.900    584.629    611.067    587.675    584.629    584.629
 43.770    578.550    606.865    -28.315    584.679    604.118    587.435    584.679    584.679
 43.870    604.740    602.552      2.188    584.730    599.978    587.310    584.730    584.730
 43.970    618.893    600.026     18.867    584.782    597.556    587.257    584.782    584.782
 44.070    609.000    598.504     10.496    584.835    596.097    587.245    584.835    584.835
 44.170    623.000    597.527     25.473    584.889    595.163    587.256    584.889    584.889
 44.270    641.000    596.860     44.140    584.943    594.525    587.281    584.943    584.943
 44.370    578.000    596.386    -18.386    584.999    594.070    587.316    584.999    584.999
 44.470    610.179    596.045     14.134    585.055    593.742    587.359    585.055    585.055
 44.570    609.000    595.803     13.197    585.113    593.509    587.408    585.113    585.113
 44.670    636.379    595.640     40.739    585.171    593.349    587.463    585.171    585.171
 44.770    607.000    595.540     11.460    585.230    593.248    587.523    585.230    585.230
 44.870    608.000    595.493     12.507    585.290    593.197    587.587    585.290    585.290
 44.970    606.117    595.492     10.626    585.351    593.187    587.656    585.351    585.351
 45.070    614.161    595.529     18.632    585.412    593.213    587.729    585.412    585.412
 45.170    608.000    595.601     12.399    585.474    593.270    587.806    585.474    585.474
 45.270    582.000    595.704    -13.704    585.537    593.355    587.887    585.537    585.537
 45.370    557.774    595.836    -38.063    585.601    593.466    587.972    585.601    585.601
 45.470    567.000    595.996    -28.996    585.666    593.600    588.061    585.666    585.666
 45.570    591.000    596.182     -5.182    585.731    593.758    588.155    585.731    585.731
 45.670    591.860    596.395     -4.535    585.797    593.938    588.254    585.797    585.797
 45.770    594.000    596.633     -2.633    585.864    594.140    588.357    585.864    585.864
 45.870    636.000    596.899     39.101    585.931    594.365    588.465    585.931    585.931
 45.970    549.289    597.192    -47.903    585.999    594.613    588.578    585.999    585.999
 46.070    644.598    597.515     47.082    586.068    594.886    588.697    586.068    586.068
 46.170    616.998    597.870     19.128    586.137    595.185    588.822    586.137    586.137
 46.270    688.000    598.260     89.740    586.208    595.513    588.953    586.208    586.208
 46.370    566.017    598.688    -32.670    586.278    595.873    589.092    586.278    586.278
 46.470    552.804    599.159    -46.355    586.350    596.269    589.239    586.350    586.350
 46.570    665.000    599.679     65.321    586.422    596.704    589.395    586.422    586.422
 46.670    599.000    600.255     -1.255    586.494    597.187    589.561    586.494    586.494
 46.770    634.267    600.898     33.369    586.568    597.726    589.738    586.568    586.568
 46.870    603.000    601.620      1.380    586.641    598.331    589.929    586.641    586.641
 46.970    631.943    602.442     29.501    586.716    599.019    590.136    586.716    586.716
 47.070    588.000    603.394    -15.394    586.791    599.819    590.363    586.791    586.791
 47.170    608.000    604.532      3.468    586.866    600.779    590.616    586.866    586.866
 47.270    592.000    605.962    -13.962    586.942    601.992    590.909    586.942    586.942
 47.370    581.000    607.879    -26.879    587.019    603.631    591.262    587.019    587.019
 47.470    570.277    610.617    -40.340    587.096    605.994    591.713    587.096    587.096
 47.570    609.000    614.689     -5.689    587.173    609.534    592.320    587.173    587.173
 47.670    602.000    620.757    -18.757    587.251    614.841    593.155    587.251    587.251
 47.770    639.000    629.495      9.505    587.329    622.513    594.294    587.329    587.329
 47.870    671.257    641.302     29.955    587.408    632.904    595.781    587.408    587.408
 47.970    703.034    655.907     47.127    587.488    645.770    597.590    587.488    587.488
 48.070    680.000    671.916      8.084    587.568    659.869    599.571    587.568    587.568
 48.170    692.000    686.439      5.561    587.648    672.623    601.412    587.648    587.648
 48.270    734.564    695.455     39.108    587.728    680.449    602.679    587.728    587.728
 48.370    707.000    695.960     11.040    587.809    680.667    603.049    587.809    587.809
 48.470    710.441    688.465     21.976    587.891    673.727    602.583    587.891    587.891
 48.570    662.000    676.517    -14.517    587.973    662.779    601.674    587.973    587.973
 48.670    647.479    664.022    -16.543    588.055    651.293    600.757    588.055    588.055
 48.770    686.742    653.588     33.154    588.137    641.580    600.126    588.137    588.137
 48.870    695.076    646.408     48.668    588.220    634.688    599.926    588.220    588.220
 48.970    635.000    642.676     -7.676    588.304    630.773    600.196    588.304    588.304
 49.070    619.000    642.041    -23.041    588.387    629.498    600.922    588.387    588.387
 49.170    678.747    644.004     34.744    588.471    630.385    602.083    588.471    588.471
 49.270    636.763    648.212    -11.449    588.555    633.069    603.692    588.555    588.555
 49.370    692.128    654.704     37.424    588.640    637.489    605.848    588.640    588.640
 49.470    645.385    664.247    -18.862    588.724    644.129    608.835    588.724    588.724
 49.570    712.196    679.094     33.102    588.809    654.540    613.354    588.809    588.809
 49.670    716.000    704.514     11.486    588.894    672.404    620.991    588.894    588.894
 49.770    747.000    751.220     -4.220    588.980    705.235    634.941    588.980    588.980
 49.870    813.000    837.888    -24.888    589.066    766.140    660.771    589.066    589.066
 49.970    930.000    991.326    -61.326    589.152    873.941    706.462    589.152    589.152
 50.070   1244.844   1240.604      4.240    589.238   1049.068    780.655    589.238    589.238
 50.170   1591.192   1602.829    -11.637    589.324   1303.644    888.338    589.324    589.324
 50.270   1998.000   2064.198    -66.198    589.410   1627.735   1025.658    589.410    589.410
 50.370   2425.000   2562.038   -137.038    589.497   1977.470   1173.837    589.497    589.497
 50.470   2926.000   2982.185    -56.185    589.584   2272.723   1298.858    589.584    589.584
 50.570   3109.000   3187.236    -78.236    589.671   2417.037   1359.786    589.671    589.671
 50.670   3091.000   3095.199     -4.199    589.758   2352.851   1332.157    589.758    589.758
 50.770   2803.000   2746.829     56.171    589.845   2108.804   1228.029    589.845    589.845
 50.870   2268.000   2268.525     -0.525    589.933   1773.720   1084.946    589.933    589.933
 50.970   1787.000   1788.404     -1.404    590.020   1437.676    940.953    590.020    590.020
 51.070   1440.000   1389.953     50.047    590.108   1159.412    820.818    590.108    590.108
 51.170   1119.880   1104.967     14.913    590.195    961.319    733.969    590.195    590.195
 51.270    949.000    926.141     22.859    590.283    838.204    678.307    590.283    590.283
 51.370    881.000    826.509     54.491    590.371    770.872    646.069    590.371    590.371
 51.470    838.000    776.078     61.922    590.459    737.737    628.846    590.459    590.459
 51.570    772.000    750.887     21.113    590.547    721.214    620.258    590.547    590.547
 51.670    773.317    735.654     37.664    590.635    709.856    616.465    590.635    590.635
 51.770    746.378    723.151     23.227    590.723    698.347    615.554    590.723    590.723
 51.870    717.804    711.748      6.057    590.811    685.923    616.655    590.811    590.811
 51.970    733.000    702.116     30.884    590.899    673.783    619.244    590.899    590.899
 52.070    716.862    694.894     21.968    590.987    663.195    622.690    590.987    590.987
 52.170    720.000    689.851     30.149    591.075    654.878    626.046    591.075    591.075
 52.270    732.000    685.955     46.045    591.162    649.021    628.092    591.162    591.162
 52.370    710.000    681.991     28.009    591.250    645.457    627.778    591.250    591.250
 52.470    672.000    677.429     -5.429    591.338    643.860    624.902    591.338    591.338
 52.570    658.487    672.755    -14.267    591.426    643.917    620.259    591.426    591.426
 52.670    673.000    668.987      4.013    591.514    645.468    615.030    591.514    591.514
 52.770    670.069    667.192      2.877    591.601    648.618    610.175    591.601    591.601
 52.870    697.000    668.429     28.571    591.689    653.874    606.244    591.689    591.689
 52.970    675.842    673.992      1.850    591.776    662.343    603.425    591.776    591.776
 53.070    688.000    685.774      2.226    591.863    675.973    601.665    591.863    591.863
 53.170    737.711    706.588     31.123    591.951    697.733    600.805    591.951    591.951
 53.270    765.000    740.186     24.814    592.038    731.531    600.692    592.038    592.038
 53.370    773.000    790.699    -17.699    592.124    781.597    601.224    592.124    592.124
 53.470    848.000    861.320    -13.320    592.211    851.196    602.333    592.211    592.211
 53.570    942.148    952.306    -10.158    592.298    940.751    603.851    592.298    592.298
 53.670   1102.123   1059.168     42.955    592.384   1045.685    605.867    592.384    592.384
 53.770   1198.463   1169.716     28.748    592.470   1154.176    608.014    592.470    592.470
 53.870   1267.000   1263.217      3.783    592.556   1245.944    609.841    592.556    592.556
 53.970   1357.051   1314.083     42.968    592.642   1295.935    610.812    592.642    592.642
 54.070   1227.000   1304.884    -77.884    592.728   1287.078    610.565    592.728    592.728
 54.170   1259.000   1239.355     19.645    592.813   1223.032    609.174    592.813    592.813
 54.270   1194.267   1139.111     55.156    592.898   1124.965    607.082    592.898    592.898
 54.370    964.000   1028.935    -64.935    592.983   1017.154    604.798    592.983    592.983
 54.470    956.403    926.882     29.521    593.068    917.284    602.693    593.068    593.068
 54.570    843.000    842.586      0.414    593.152    834.794    600.965    593.152    593.152
 54.670    763.000    778.976    -15.976    593.236    772.555    599.673    593.236    593.236
 54.770    707.000    734.540    -27.540    593.320    729.086    598.785    593.320    593.320
 54.870    749.935    705.493     44.442    593.403    700.681    598.222    593.403    593.403
 54.970    731.445    687.534     43.912    593.486    683.129    597.896    593.486    593.486
 55.070    627.359    676.941    -49.582    593.569    672.785    597.729    593.569    593.569
 55.170    664.000    671.006     -7.006    593.652    666.995    597.665    593.652    593.652
 55.270    672.000    668.001      3.999    593.734    664.069    597.668    593.734    593.734
 55.370    717.392    666.943     50.449    593.816    663.042    597.719    593.816    593.816
 55.470    640.000    667.331    -27.331    593.897    663.423    597.807    593.897    593.897
 55.570    665.000    668.950     -3.950    593.979    665.002    597.928    593.979    593.979
 55.670    644.000    671.763    -27.763    594.059    667.742    598.082    594.059    594.059
 55.770    711.980    675.861     36.119    594.140    671.730    598.272    594.140    594.140
 55.870    691.522    681.492     10.030    594.220    677.208    598.504    594.220    594.220
 55.970    645.000    689.165    -44.165    594.299    684.671    598.793    594.299    594.299
 56.070    681.000    699.876    -18.876    594.379    695.088    599.166    594.379    594.379
 56.170    732.368    715.526     16.842    594.457    710.309    599.672    594.457    594.457
 56.270    764.000    739.544     24.456    594.536    733.672    600.402    594.536    594.536
 56.370    730.000    777.645    -47.645    594.614    770.740    601.507    594.614    594.614
 56.470    851.000    838.422     12.578    594.691    829.878    603.215    594.691    594.691
 56.570    902.000    933.200    -31.200    594.768    922.112    605.825    594.768    594.768
 56.670    979.000   1074.451    -95.451    594.845   1059.586    609.666    594.845    594.845
 56.770   1279.000   1272.321      6.679    594.921   1252.179    615.007    594.921    594.921
 56.870   1483.000   1529.477    -46.477    594.997   1502.494    621.919    594.997    594.997
 56.970   1850.000   1835.337     14.663    595.072   1800.232    630.124    595.072    595.072
 57.070   2162.000   2160.952      1.048    595.146   2117.213    638.859    595.146    595.146
 57.170   2441.000   2456.363    -15.363    595.220   2404.799    646.808    595.220    595.220
 57.270   2684.000   2655.946     28.054    595.294   2599.095    652.242    595.294    595.294
 57.370   2732.000   2701.492     30.508    595.367   2643.404    653.625    595.367    595.367
 57.470   2625.000   2577.649     47.351    595.440   2522.753    650.556    595.440    595.440
 57.570   2366.000   2324.170     41.830    595.512   2275.831    644.087    595.512    595.512
 57.670   1942.206   2007.898    -65.692    595.583   1967.713    635.989    595.583    595.583
 57.770   1769.000   1688.967     80.033    595.654   1656.948    627.860    595.654    595.654
 57.870   1443.000   1407.174     35.826    595.724   1382.270    620.775    595.724    595.724
 57.970   1163.000   1182.084    -19.084    595.794   1162.686    615.298    595.794    595.794
 58.070    947.000   1017.453    -70.453    595.863   1001.764    611.624    595.863    595.863
 58.170    906.000    906.995     -0.995    595.932    893.203    609.768    595.932    595.932
 58.270    786.000    840.195    -54.195    596.000    826.467    609.752    596.000    596.000
 58.370    826.000    806.914     19.086    596.067    791.241    611.748    596.067    596.067
 58.470    812.000    799.918     12.082    596.134    779.932    616.115    596.134    596.134
 58.570    823.000    815.355      7.645    596.200    788.249    623.287    596.200    596.200
 58.670    862.000    851.699     10.301    596.266    814.403    633.531    596.266    596.266
 58.770    874.000    907.946    -33.946    596.330    857.619    646.616    596.330    596.330
 58.870    951.000    981.708    -30.708    596.395    916.513    661.542    596.395    596.395
 58.970   1052.000   1067.645    -15.645    596.458    987.664    676.392    596.458    596.458
 59.070   1141.000   1156.784    -15.784    596.521   1064.780    688.486    596.521    596.521
 59.170   1255.000   1237.964     17.036    596.583   1139.421    695.104    596.583    596.583
 59.270   1312.000   1301.951     10.049    596.645   1203.735    694.859    596.645    596.645
 59.370   1267.000   1344.031    -77.031    596.706   1252.252    688.505    596.706    596.706
 59.470   1421.400   1361.710     59.690    596.766   1280.413    678.103    596.766    596.766
 59.570   1291.000   1353.360    -62.360    596.825   1284.461    665.778    596.825    596.825
 59.670   1331.112   1322.330      8.782    596.884   1266.005    653.262    596.884    596.884
 59.770   1282.000   1280.012      1.988    596.942   1235.112    641.879    596.942    596.942
 59.870   1300.000   1241.577     58.423    596.999   1206.153    632.430    596.999    596.999
 59.970   1284.331   1219.634     64.697    597.056   1191.534    625.122    597.056    597.056
 60.070   1296.000   1221.727     74.273    597.111   1199.032    619.728    597.111    597.111
 60.170   1225.086   1251.180    -26.094    597.166   1232.383    615.836    597.166    597.166
 60.270   1293.170   1308.147    -14.977    597.221   1292.134    613.059    597.221    597.221
 60.370   1403.000   1388.350     14.650    597.274   1374.301    611.106    597.274    597.274
 60.470   1487.000   1480.358      6.642    597.327   1467.659    609.777    597.327    597.327
 60.570   1524.000   1564.416    -40.416    597.379   1552.602    608.931    597.379    597.379
 60.670   1641.000   1615.291     25.709    597.430   1604.004    608.467    597.430    597.430
 60.770   1527.000   1611.139    -84.139    597.480   1600.086    608.317    597.480    597.480
 60.870   1543.000   1545.553     -2.553    597.530   1534.474    608.436    597.530    597.530
 60.970   1444.955   1431.686     13.269    597.578   1420.334    608.801    597.578    597.578
 61.070   1284.000   1293.382     -9.382    597.626   1281.509    609.409    597.626    597.626
 61.170   1143.000   1153.714    -10.714    597.673   1141.039    610.287    597.673    597.673
 61.270   1020.000   1029.442     -9.442    597.720   1015.602    611.517    597.720    597.720
 61.370    925.000    930.199     -5.199    597.765    914.661    613.271    597.765    597.765
 61.470    824.000    859.691    -35.691    597.810    841.603    615.871    597.810    597.810
 61.570    812.000    817.834     -5.834    597.853    795.794    619.864    597.853    597.853
 61.670    785.990    803.200    -17.210    597.896    774.955    626.105    597.896    597.896
 61.770    832.000    815.052     16.948    597.938    777.156    635.786    597.938    597.938
 61.870    845.000    854.308     -9.308    597.979    801.853    650.366    597.979    597.979
 61.970    877.500    923.169    -45.668    598.019    849.752    671.342    598.019    598.019
 62.070   1047.982   1023.504     24.478    598.059    921.624    699.811    598.059    598.059
 62.170   1139.000   1154.455    -15.455    598.097   1016.477    735.908    598.097    598.097
 62.270   1338.628   1309.920     28.709    598.135   1129.629    778.219    598.135    598.135
 62.370   1443.000   1476.561    -33.561    598.171   1251.178    823.313    598.171    598.171
 62.470   1613.000   1632.827    -19.827    598.207   1365.239    865.532    598.207    598.207
 62.570   1740.000   1750.370    -10.370    598.242   1450.961    897.388    598.242    598.242
 62.670   1760.000   1801.174    -41.174    598.276   1487.745    911.468    598.276    598.276
 62.770   1781.886   1770.941     10.945    598.309   1465.070    903.990    598.309    598.309
 62.870   1648.410   1668.170    -19.759    598.341   1389.157    877.219    598.341    598.341
 62.970   1493.000   1518.314    -25.314    598.372   1278.684    837.917    598.372    598.372
 63.070   1314.332   1350.349    -36.016    598.402   1154.923    793.781    598.402    598.402
 63.170   1222.000   1187.801     34.199    598.431   1035.147    751.063    598.431    598.431
 63.270   1020.000   1045.982    -25.982    598.459    930.599    713.835    598.459    598.459
 63.370    863.000    932.287    -69.287    598.486    846.706    684.066    598.486    598.486
 63.470    868.799    847.725     21.074    598.512    784.207    662.030    598.512    598.512
 63.570    808.710    789.085     19.625    598.538    740.740    646.880    598.538    598.538
 63.670    776.000    751.202     24.798    598.562    712.511    637.247    598.562    598.562
 63.770    710.744    728.732    -17.988    598.585    695.594    631.714    598.585    598.585
 63.870    709.000    717.397     -8.397    598.607    686.841    629.150    598.607    598.607
 63.970    751.000    714.513     36.487    598.628    684.260    628.866    598.628    598.628
 64.070    759.000    719.099     39.901    598.649    687.060    630.666    598.649    598.649
 64.170    725.000    731.738     -6.738    598.668    695.511    634.866    598.668    598.668
 64.270    766.941    754.319     12.622    598.686    710.683    642.284    598.686    598.686
 64.370    749.000    789.648    -40.648    598.703    734.096    654.204    598.703    598.703
 64.470    892.000    840.848     51.152    598.719    767.245    672.252    598.719    598.719
 64.570    915.000    910.504      4.496    598.734    811.012    698.133    598.734    598.734
 64.670   1055.401    999.551     55.850    598.748    864.999    733.181    598.748    598.748
 64.770   1081.000   1106.038    -25.038    598.761    926.877    777.776    598.761    598.761
 64.870   1226.000   1223.950      2.050    598.773    991.837    830.716    598.773    598.773
 64.970   1435.000   1342.485     92.515    598.784   1052.407    888.675    598.784    598.784
 65.070   1460.816   1446.555     14.261    598.794   1099.272    945.886    598.794    598.794
 65.170   1565.168   1519.517     45.650    598.802   1123.848    994.290    598.802    598.802
 65.270   1551.244   1547.950      3.294    598.810   1121.817   1024.785    598.810    598.810
 65.370   1525.000   1526.504     -1.504    598.816   1094.977   1030.220    598.816    598.816
 65.470   1567.000   1460.333    106.667    598.822   1050.020   1009.049    598.822    598.822
 65.570   1386.000   1363.271     22.729    598.826    995.684    966.362    598.826    598.826
 65.670   1196.573   1252.264    -55.691    598.829    940.038    911.032    598.829    598.829
 65.770   1075.190   1141.895    -66.706    598.832    888.802    851.923    598.832    598.832
 65.870   1059.477   1041.855     17.623    598.833    844.861    795.840    598.833    598.833
 65.970    926.000    956.886    -30.886    598.833    808.676    747.066    598.833    598.833
 66.070    886.000    887.984     -1.984    598.831    779.254    707.588    598.831    598.831
 66.170    810.000    833.975    -23.975    598.829    755.263    677.567    598.829    598.829
 66.270    813.000    792.799     20.201    598.825    735.702    655.944    598.825    598.825
 66.370    812.187    762.170     50.017    598.821    719.954    641.054    598.821    598.821
 66.470    749.449    739.888      9.561    598.815    707.590    631.126    598.815    598.815
 66.570    713.000    724.048    -11.048    598.808    698.257    624.608    598.808    598.808
 66.670    639.000    713.171    -74.171    598.800    691.670    620.307    598.800    598.800
 66.770    666.000    706.213    -40.213    598.791    687.616    617.391    598.791    598.791
 66.870    705.681    702.507      3.174    598.781    685.957    615.332    598.781    598.781
 66.970    658.000    701.697    -43.697    598.769    686.653    613.814    598.769    598.769
 67.070    625.000    703.746    -78.746    598.757    689.842    612.662    598.757    598.757
 67.170    688.520    709.020    -20.500    598.743    695.973    611.791    598.743    598.743
 67.270    764.506    718.462     46.045    598.728    706.021    611.169    598.728    598.728
 67.370    720.000    733.839    -13.839    598.711    721.740    610.812    598.711    598.711
 67.470    746.838    758.022    -11.185    598.694    745.945    610.772    598.694    598.694
 67.570    776.000    795.203    -19.203    598.676    782.738    611.140    598.676    598.676
 67.670    856.000    850.918      5.082    598.656    837.524    612.047    598.656    598.656
 67.770    959.209    931.678     27.531    598.635    916.659    613.650    598.635    598.635
 67.870   1044.000   1044.053     -0.053    598.613   1026.551    616.110    598.613    598.613
 67.970   1202.000   1193.151      8.849    598.589   1172.186    619.551    598.589    598.589
 68.070   1354.000   1380.648    -26.648    598.565   1355.205    624.011    598.565    598.565
 68.170   1633.000   1602.696     30.304    598.539   1571.864    629.386    598.539    598.539
 68.270   1828.000   1848.076    -20.076    598.512   1811.240    635.385    598.512    598.512
 68.370   2108.000   2096.890     11.110    598.484   2053.946    641.496    598.484    598.484
 68.470   2378.000   2320.279     57.721    598.455   2271.868    646.978    598.455    598.455
 68.570   2391.567   2483.063    -91.496    598.424   2430.725    650.926    598.424    598.424
 68.670   2618.505   2552.560     65.945    598.392   2498.671    652.504    598.392    598.392
 68.770   2499.000   2512.748    -13.748    598.359   2460.081    651.298    598.359    598.359
 68.870   2496.000   2373.145    122.855    598.325   2324.221    647.551    598.325    598.325
 68.970   2168.000   2163.181      4.819    598.289   2119.764    642.013    598.289    598.289
 69.070   1999.115   1918.317     80.798    598.252   1881.267    635.592    598.252    598.252
 69.170   1729.521   1669.532     59.988    598.214   1638.923    629.080    598.214    598.214
 69.270   1488.000   1439.272     48.728    598.175   1414.612    623.051    598.175    598.175
 69.370   1214.000   1241.104    -27.104    598.135   1221.562    617.851    598.135    598.135
 69.470   1021.098   1080.795    -59.696    598.093   1065.395    613.627    598.093    598.093
 69.570    925.688    958.021    -32.333    598.050    945.799    610.370    598.050    598.050
 69.670    930.000    868.431     61.569    598.005    858.538    607.970    598.005    598.005
 69.770    888.000    805.684     82.316    597.960    797.432    606.261    597.960    597.960
 69.870    801.026    763.107     37.919    597.913    755.985    605.069    597.913    597.913
 69.970    737.920    734.797      3.123    597.865    728.432    604.253    597.865    597.865
 70.070    759.367    716.087     43.281    597.816    710.230    603.689    597.816    597.816
 70.170    731.000    703.628     27.372    597.765    698.115    603.290    597.765    597.765
 70.270    679.703    695.195    -15.493    597.713    689.918    602.998    597.713    597.713
 70.370    674.916    689.407    -14.491    597.660    684.292    602.780    597.660    597.660
 70.470    667.408    685.450    -18.042    597.606    680.446    602.613    597.606    597.606
 70.570    644.391    682.878    -38.488    597.550    677.942    602.488    597.550    597.550
 70.670    644.807    681.473    -36.666    597.493    676.568    602.398    597.493    597.493
 70.770    708.000    681.170     26.830    597.435    676.260    602.343    597.435    597.435
 70.870    724.000    682.038     41.962    597.375    677.083    602.326    597.375    597.375
 70.970    720.000    684.303     35.697    597.314    679.255    602.356    597.314    597.314
 71.070    684.000    688.408     -4.408    597.252    683.204    602.448    597.252    597.252
 71.170    729.000    695.122     33.878    597.189    689.670    602.629    597.189    597.189
 71.270    677.000    705.671    -28.671    597.124    699.839    602.940    597.124    597.124
 71.370    731.000    721.893      9.107    597.058    715.483    603.444    597.058    597.058
 71.470    784.000    746.349     37.651    596.990    739.078    604.229    596.990    596.990
 71.570    789.000    782.341      6.659    596.922    773.810    605.407    596.922    596.922
 71.670    798.000    833.730    -35.730    596.852    823.409    607.109    596.852    596.852
 71.770    876.835    904.497    -27.662    596.781    891.719    609.472    596.781    596.781
 71.870   1017.000    997.997     19.003    596.708    981.983    612.610    596.708    596.708
 71.970   1095.485   1115.983    -20.498    596.634   1095.891    616.584    596.634    596.634
 72.070   1271.050   1257.503     13.547    596.559   1232.526    621.362    596.559    596.559
 72.170   1368.000   1417.884    -49.884    596.483   1387.375    626.789    596.483    596.483
 72.270   1474.000   1587.929   -113.929    596.405   1551.551    632.555    596.405    596.405
 72.370   1745.000   1753.430     -8.430    596.326   1711.333    638.180    596.326    596.326
 72.470   1871.000   1895.421    -24.421    596.245   1848.397    643.026    596.245    596.245
 72.570   2005.987   1992.412     13.575    596.163   1941.982    646.365    596.163    596.163
 72.670   2058.630   2026.139     32.491    596.080   1974.437    647.583    596.080    596.080
 72.770   2046.000   1989.390     56.610    595.996   1938.787    646.436    595.996    595.996
 72.870   1892.000   1889.852      2.148    595.910   1842.449    643.186    595.910    595.910
 72.970   1791.000   1746.041     44.959    595.823   1703.312    638.459    595.823    595.823
 73.070   1539.000   1579.446    -40.446    595.735   1542.137    632.978    595.735    595.735
 73.170   1368.000   1408.872    -40.872    595.645   1377.103    627.370    595.645    595.645
 73.270   1164.000   1248.313    -84.313    595.554   1221.745    622.094    595.554    595.554
 73.370   1123.000   1106.750     16.250    595.462   1084.760    617.433    595.462    595.462
 73.470    959.786    988.661    -28.875    595.368    970.497    613.520    595.368    595.368
 73.570    924.008    894.856     29.152    595.274    879.747    610.373    595.274    595.274
 73.670    802.000    823.512    -21.512    595.177    810.747    607.934    595.177    595.177
 73.770    848.000    771.273     76.727    595.080    760.234    606.112    595.080    595.080
 73.870    711.540    734.217    -22.677    594.981    724.387    604.806    594.981    594.981
 73.970    670.000    708.576    -38.576    594.881    699.526    603.925    594.881    594.881
 74.070    702.000    691.159     10.841    594.779    682.535    603.400    594.779    594.779
 74.170    703.029    679.523     23.506    594.676    671.012    603.185    594.676    594.676
 74.270    688.000    671.944     16.056    594.572    663.257    603.258    594.572    594.572
 74.370    647.000    667.290    -20.290    594.466    658.144    603.615    594.466    594.466
 74.470    626.000    664.855    -38.855    594.360    654.965    604.256    594.360    594.360
 74.570    652.000    664.195    -12.195    594.251    653.275    605.181    594.251    594.251
 74.670    639.000    664.993    -25.993    594.142    652.774    606.375    594.142    594.142
 74.770    665.000    666.958     -1.958    594.031    653.210    607.799    594.031    594.031
 74.870    657.000    669.760    -12.760    593.919    654.318    609.387    593.919    593.919
 74.970    692.271    672.979     19.291    593.805    655.783    611.033    593.805    593.805
 75.070    711.000    676.096     34.904    593.691    657.223    612.601    593.691    593.691
 75.170    719.000    678.517     40.483    593.574    658.205    613.928    593.574    593.574
 75.270    752.000    679.688     72.312    593.457    658.324    614.865    593.457    593.457
 75.370    755.000    679.277     75.723    593.338    657.329    615.331    593.338    593.338
 75.470    694.221    677.346     16.875    593.218    655.238    615.369    593.218    593.218
 75.570    656.998    674.363    -17.365    593.097    652.347    615.152    593.097    593.097
 75.670    704.586    671.076     33.510    592.974    649.131    614.953    592.974    592.974
 75.770    633.000    668.355    -35.355    592.850    646.131    615.100    592.850    592.850
 75.870    679.000    667.109     11.891    592.724    643.887    615.966    592.724    592.724
 75.970    706.258    668.272     37.987    592.598    642.921    617.958    592.598    592.598
 76.070    668.000    672.801     -4.801    592.470    643.743    621.529    592.470    592.470
 76.170    687.000    681.664      5.336    592.340    646.839    627.157    592.340    592.340
 76.270    710.000    695.776     14.224    592.210    652.654    635.315    592.210    592.210
 76.370    717.765    715.894      1.871    592.078    661.537    646.405    592.078    592.078
 76.470    750.000    742.457      7.543    591.944    673.681    660.679    591.944    591.944
 76.570    792.369    775.407     16.962    591.810    689.031    678.131    591.810    591.810
 76.670    820.000    813.993      6.007    591.674    707.200    698.399    591.674    591.674
 76.770    817.000    856.615    -39.615    591.537    727.390    720.679    591.537    591.537
 76.870    919.000    900.694     18.306    591.398    748.336    743.661    591.398    591.398
 76.970    915.000    942.622    -27.622    591.258    768.279    765.496    591.258    591.258
 77.070    977.000    977.876     -0.876    591.117    785.018    783.863    591.117    591.117
 77.170    983.000   1001.590    -18.590    590.975    796.195    796.257    590.975    590.975
 77.270    951.000   1009.758    -58.758    590.831    799.864    800.617    590.831    590.831
 77.370    996.000   1000.787     -4.787    590.686    795.250    796.125    590.686    590.686
 77.470    974.000    976.240     -2.240    590.540    783.107    783.589    590.540    590.540
 77.570    941.000    940.089      0.911    590.392    765.355    765.057    590.392    590.392
 77.670    892.000    897.179     -5.179    590.243    744.338    743.030    590.243    590.243
 77.770    833.000    851.990    -18.990    590.093    722.223    719.819    590.093    590.093
 77.870    850.000    808.077     41.923    589.942    700.730    697.258    589.942    589.942
 77.970    820.643    767.947     52.696    589.789    681.071    676.642    589.789    589.789
 78.070    732.000    733.110     -1.110    589.635    663.979    658.751    589.635    589.635
 78.170    709.010    704.212      4.798    589.480    649.763    643.918    589.480    589.480
 78.270    693.744    681.205     12.539    589.323    638.401    632.120    589.323    589.323
 78.370    655.000    663.556     -8.556    589.165    629.632    623.082    589.165    589.165
 78.470    697.000    650.454     46.546    589.006    623.066    616.389    589.006    589.006
 78.570    666.593    640.994     25.599    588.846    618.261    611.574    588.846    588.846
 78.670    636.000    634.312      1.688    588.684    614.799    608.193    588.684    588.684
 78.770    634.000    629.664      4.336    588.521    612.319    605.862    588.521    588.521
 78.870    635.000    626.461      8.539    588.357    610.535    604.279    588.357    588.357
 78.970    648.000    624.270     23.730    588.191    609.236    603.222    588.191    588.191
 79.070    632.600    622.790      9.810    588.025    608.275    602.537    588.025    588.025
 79.170    615.000    621.828     -6.828    587.857    607.556    602.125    587.857    587.857
 79.270    595.887    621.269    -25.382    587.688    607.025    601.929    587.688    587.688
 79.370    608.000    621.057    -13.057    587.517    606.649    601.921    587.517    587.517
 79.470    646.000    621.178     24.822    587.345    606.421    602.099    587.345    587.345
 79.570    579.000    621.657    -42.657    587.173    606.345    602.481    587.173    587.173
 79.670    601.304    622.553    -21.250    586.998    606.437    603.111    586.998    586.998
 79.770    607.000    623.971    -16.971    586.823    606.725    604.064    586.823    586.823
 79.870    642.000    626.072     15.928    586.646    607.248    605.464    586.646    586.646
 79.970    622.000    629.099     -7.099    586.469    608.058    607.503    586.469    586.469
 80.070    636.000    633.410      2.590    586.289    609.223    610.469    586.289    586.289
 80.170    634.578    639.510     -4.932    586.109    610.831    614.777    586.109    586.109
 80.270    633.000    648.093    -15.093    585.928    613.001    621.007    585.928    585.928
 80.370    689.000    660.068     28.932    585.745    615.881    629.915    585.745    585.745
 80.470    700.680    676.554     24.126    585.561    619.657    642.436    585.561    585.561
 80.570    743.219    698.839     44.380    585.376    624.548    659.638    585.376    585.376
 80.670    724.000    728.271     -4.271    585.190    630.799    682.626    585.190    585.190
 80.770    818.566    766.092     52.473    585.002    638.661    712.390    585.002    585.002
 80.870    805.000    813.230     -8.230    584.814    648.384    749.608    584.814    584.814
 80.970    897.000    870.043     26.957    584.624    660.186    794.423    584.624    584.624
 81.070   1004.000    936.061     67.939    584.433    674.214    846.215    584.433    584.433
 81.170   1063.506   1009.712     53.794    584.240    690.478    903.407    584.240    584.240
 81.270   1176.000   1088.132     87.868    584.047    708.770    963.340    584.047    584.047
 81.370   1124.128   1167.095    -42.967    583.853    728.605   1022.278    583.853    583.853
 81.470   1316.000   1241.211     74.789    583.657    749.206   1075.606    583.657    583.657
 81.570   1424.000   1304.501    119.499    583.460    769.556   1118.363    583.460    583.460
 81.670   1488.000   1351.428    136.572    583.262    788.533   1146.132    583.262    583.262
 81.770   1491.000   1378.061    112.939    583.063    805.076   1156.042    583.063    583.063
 81.870   1393.343   1382.761     10.582    582.863    818.297   1147.339    582.863    582.863
 81.970   1342.733   1366.330    -23.597    582.661    827.673   1121.349    582.661    582.661
 82.070   1374.512   1331.346     43.167    582.459    832.900   1080.953    582.459    582.459
 82.170   1358.000   1281.765     76.235    582.255    833.962   1030.120    582.255    582.255
 82.270   1287.000   1222.270     64.730    582.050    831.043    973.350    582.050    582.050
 82.370   1228.000   1157.484     70.516    581.844    824.391    915.018    581.844    581.844
 82.470   1082.051   1091.390     -9.339    581.637    814.296    858.816    581.637    581.637
 82.570   1044.000   1027.132     16.868    581.429    801.205    807.441    581.429    581.429
 82.670    968.000    967.028      0.972    581.220    785.799    762.533    581.220    581.220
 82.770    937.000    912.594     24.406    581.010    768.912    724.772    581.010    581.010
 82.870    822.371    864.543    -42.172    580.798    751.338    694.077    580.798    580.798
 82.970    806.000    822.888    -16.888    580.586    733.708    669.834    580.586    580.586
 83.070    746.193    787.187    -40.994    580.372    716.488    651.132    580.372    580.372
 83.170    752.000    756.832     -4.832    580.158    700.072    636.971    580.158    580.158
 83.270    656.000    731.267    -75.267    579.942    684.845    626.410    579.942    579.942
 83.370    727.783    710.064     17.719    579.725    671.181    618.645    579.725    579.725
 83.470    666.459    692.909    -26.450    579.507    659.402    613.043    579.507    579.507
 83.570    654.000    679.565    -25.565    579.289    649.743    609.131    579.289    579.289
 83.670    670.853    669.828      1.025    579.069    642.335    606.572    579.069    579.069
 83.770    613.000    663.497    -50.497    578.848    637.211    605.136    578.848    578.848
 83.870    670.000    660.336      9.664    578.626    634.302    604.653    578.626    578.626
 83.970    625.000    660.046    -35.046    578.403    633.445    604.987    578.403    578.403
 84.070    607.000    662.226    -55.226    578.179    634.377    606.003    578.179    578.179
 84.170    693.000    666.365     26.635    577.954    636.743    607.543    577.954    577.954
 84.270    703.978    671.830     32.148    577.728    640.100    609.417    577.728    577.728
 84.370    685.422    677.871      7.551    577.502    643.926    611.400    577.502    577.502
 84.470    651.000    683.647    -32.647    577.274    647.640    613.228    577.274    577.274
 84.570    662.000    688.273    -26.273    577.045    650.639    614.624    577.045    577.045
 84.670    666.491    690.924    -24.434    576.815    652.360    615.323    576.815    576.815
 84.770    652.000    690.996    -38.996    576.584    652.392    615.133    576.584    576.584
 84.870    682.139    688.254     -6.115    576.352    650.571    613.984    576.352    576.352
 84.970    647.000    682.896    -35.896    576.120    647.016    611.952    576.120    576.120
 85.070    656.587    675.460    -18.874    575.886    642.076    609.228    575.886    575.886
 85.170    651.000    666.663    -15.663    575.652    636.214    606.063    575.652    575.652
 85.270    646.000    657.236    -11.236    575.416    629.901    602.719    575.416    575.416
 85.370    592.000    647.835    -55.835    575.180    623.554    599.434    575.180    575.180
 85.470    664.000    639.000     25.000    574.943    617.508    596.412    574.943    574.943
 85.570    642.021    631.142     10.878    574.704    612.009    593.819    574.704    574.704
 85.670    651.000    624.544     26.456    574.465    607.209    591.784    574.465    574.465
 85.770    621.000    619.374      1.626    574.225    603.182    590.403    574.225    574.225
 85.870    658.140    615.704     42.436    573.985    599.931    589.743    573.985    573.985
 85.970    615.000    613.531      1.469    573.743    597.413    589.847    573.743    573.743
 86.070    631.382    612.804     18.578    573.500    595.555    590.734    573.500    573.500
 86.170    604.000    613.434     -9.434    573.257    594.277    592.398    573.257    573.257
 86.270    584.000    615.312    -31.312    573.013    593.501    594.805    573.013    573.013
 86.370    595.458    618.310    -22.852    572.768    593.170    597.886    572.768    572.768
 86.470    636.241    622.284     13.957    572.522    593.252    601.528    572.522    572.522
 86.570    616.000    627.071    -11.071    572.275    593.747    605.570    572.275    572.275
 86.670    628.000    632.487     -4.487    572.028    594.689    609.793    572.028    572.028
 86.770    631.000    638.327     -7.327    571.779    596.141    613.928    571.779    571.779
 86.870    668.000    644.367     23.633    571.530    598.201    617.654    571.530    571.530
 86.970    646.615    650.376     -3.762    571.280    600.985    620.625    571.280    571.280
 87.070    650.000    656.159     -6.159    571.030    604.624    622.513    571.030    571.030
 87.170    667.000    661.604      5.396    570.778    609.249    623.075    570.778    570.778
 87.270    661.008    666.732     -5.723    570.526    614.972    622.221    570.526    570.526
 87.370    671.000    671.702     -0.702    570.273    621.865    620.038    570.273    570.273
 87.470    624.557    676.748    -52.191    570.020    629.933    616.755    570.020    570.020
 87.570    638.031    682.086    -44.055    569.765    639.090    612.673    569.765    569.765
 87.670    753.000    687.828     65.172    569.510    649.136    608.104    569.510    569.510
 87.770    682.000    693.924    -11.924    569.254    659.744    603.326    569.254    569.254
 87.870    655.927    700.142    -44.215    568.998    670.446    598.577    568.998    568.998
 87.970    695.608    706.064    -10.456    568.741    680.637    594.043    568.741    568.741
 88.070    731.961    711.115     20.846    568.483    689.603    589.863    568.483    568.483
 88.170    751.019    714.632     36.387    568.225    696.596    586.126    568.225    568.225
 88.270    733.000    716.004     16.996    567.965    700.964    582.872    567.965    567.965
 88.370    716.000    714.842      1.158    567.706    702.316    580.103    567.706    567.706
 88.470    689.513    711.109    -21.596    567.445    700.643    577.792    567.445    567.445
 88.570    778.000    705.134     72.866    567.184    696.318    575.892    567.184    567.184
 88.670    727.000    697.511     29.489    566.923    689.990    574.348    566.923    566.923
 88.770    648.970    688.959    -39.989    566.660    682.433    573.106    566.660    566.660
 88.870    693.000    680.213     12.787    566.397    674.431    572.114    566.397    566.397
 88.970    626.864    671.954    -45.090    566.134    666.712    571.326    566.134    566.134
 89.070    746.000    664.772     81.228    565.870    659.901    570.704    565.870    565.870
 89.170    657.000    659.129     -2.129    565.606    654.492    570.219    565.606    565.606
 89.270    676.506    655.333     21.173    565.340    650.817    569.845    565.340    565.340
 89.370    645.183    653.522     -8.338    565.075    649.034    569.562    565.075    565.075
 89.470    656.942    653.660      3.282    564.809    649.128    569.352    564.809    564.809
 89.570    622.000    655.544    -33.544    564.542    650.911    569.196    564.542    564.542
 89.670    686.000    658.818     27.182    564.275    654.046    569.077    564.275    564.275
 89.770    654.000    662.997     -8.997    564.007    658.066    568.976    564.007    564.007
 89.870    647.000    667.487    -20.487    563.739    662.400    568.874    563.739    563.739
 89.970    680.000    671.628      8.372    563.470    666.406    568.747    563.470    563.470
 90.070    675.791    674.747      1.044    563.201    669.433    568.575    563.201    563.201
 90.170    705.000    676.248     28.752    562.932    670.905    568.340    562.932    562.932
 90.270    722.000    675.720     46.280    562.662    670.422    568.028    562.662    562.662
 90.370    700.000    673.025     26.975    562.391    667.848    567.636    562.391    562.391
 90.470    640.000    668.313    -28.313    562.121    663.327    567.173    562.121    562.121
 90.570    700.398    661.957     38.441    561.849    657.219    566.650    561.849    561.849
 90.670    620.618    654.450    -33.832    561.578    649.998    566.088    561.578    561.578
 90.770    642.320    646.308     -3.988    561.306    642.163    565.504    561.306    561.306
 90.870    596.000    638.003    -42.003    561.034    634.167    564.915    561.034    561.034
 90.970    658.449    629.929     28.520    560.761    626.393    564.335    560.761    560.761
 91.070    623.000    622.394      0.606    560.488    619.138    563.776    560.488    560.488
 91.170    637.993    615.618     22.375    560.215    612.614    563.245    560.215    560.215
 91.270    577.000    609.733    -32.733    559.941    606.947    562.747    559.941    559.941
 91.370    608.345    604.796      3.549    559.667    602.195    562.284    559.667    559.667
 91.470    644.000    600.805     43.195    559.393    598.354    561.855    559.393    559.393
 91.570    600.000    597.714      2.286    559.118    595.381    561.460    559.118    559.118
 91.670    590.000    595.452     -5.452    558.844    593.205    561.095    558.844    558.844
 91.770    591.858    593.939     -2.081    558.569    591.752    560.758    558.569    558.569
 91.870    603.186    593.105     10.082    558.293    590.952    560.447    558.293    558.293
 91.970    600.000    592.898      7.102    558.018    590.755    560.160    558.018    558.018
 92.070    565.753    593.295    -27.543    557.742    591.139    559.895    557.742    557.742
 92.170    610.007    594.309     15.698    557.466    592.116    559.655    557.466    557.466
 92.270    553.797    595.988    -42.191    557.190    593.732    559.440    557.190    557.190
 92.370    641.457    598.417     43.040    556.914    596.070    559.254    556.914    556.914
 92.470    598.000    601.714     -3.714    556.638    599.241    559.100    556.638    556.638
 92.570    639.000    606.023     32.977    556.361    603.386    558.984    556.361    556.361
 92.670    587.000    611.504    -24.504    556.085    608.661    558.912    556.085    556.085
 92.770    667.231    618.324     48.908    555.808    615.224    558.887    555.808    555.808
 92.870    594.893    626.636    -31.743    555.531    623.227    558.914    555.531    555.531
 92.970    610.000    636.570    -26.570    555.254    632.796    558.997    555.254    555.254
 93.070    658.000    648.208      9.792    554.977    644.013    559.136    554.977    554.977
 93.170    677.000    661.578     15.422    554.700    656.905    559.329    554.700    554.700
 93.270    646.980    676.630    -29.650    554.423    671.429    559.574    554.423    554.423
 93.370    635.000    693.231    -58.231    554.146    687.456    559.864    554.146    554.146
 93.470    703.000    711.155     -8.155    553.869    704.767    560.192    553.869    553.869
 93.570    741.000    730.076     10.924    553.592    723.045    560.551    553.592    553.592
 93.670    778.000    749.580     28.420    553.315    741.883    560.933    553.315    553.315
 93.770    797.000    769.187     27.813    553.038    760.804    561.337    553.038    553.038
 93.870    782.000    788.418     -6.418    552.761    779.324    561.767    552.761    552.761
 93.970    806.000    806.886     -0.886    552.484    797.038    562.241    552.484    552.484
 94.070    810.000    824.386    -14.386    552.207    813.706    562.794    552.207    552.207
 94.170    792.000    841.003    -49.003    551.930    829.360    563.479    551.930    551.930
 94.270    913.347    857.023     56.324    551.653    844.213    564.369    551.653    551.653
 94.370    890.000    872.825     17.175    551.377    858.567    565.541    551.377    551.377
 94.470    940.751    888.766     51.985    551.100    872.697    567.076    551.100    551.100
 94.570    931.992    905.062     26.930    550.824    886.751    569.042    550.824    550.824
 94.670    940.359    921.746     18.613    550.548    900.717    571.486    550.548    550.548
 94.770    965.000    938.699     26.301    550.272    914.456    574.424    550.272    550.272
 94.870    955.000    955.721     -0.721    549.997    927.793    577.836    549.997    549.997
 94.970    999.459    972.587     26.871    549.721    940.566    581.656    549.721    549.721
 95.070   1058.000    989.034     68.966    549.446    952.623    585.773    549.446    549.446
 95.170    984.721   1004.676    -19.956    549.171    963.740    590.028    549.171    549.171
 95.270   1006.612   1018.911    -12.298    548.896    973.516    594.216    548.896    548.896
 95.370    956.000   1030.859    -74.859    548.622    981.314    598.099    548.622    548.622
 95.470   1046.000   1039.397      6.603    548.348    986.272    601.412    548.348    548.348
 95.570   1035.000   1043.286     -8.286    548.074    987.414    603.893    548.074    548.074
 95.670   1029.000   1041.395    -12.395    547.800    983.839    605.314    547.800    547.800
 95.770   1068.583   1033.009     35.574    547.527    974.979    605.525    547.527    547.527
 95.870    992.000   1018.028    -26.028    547.254    960.777    604.483    547.254    547.254
 95.970   1017.120    997.085     20.036    546.982    941.789    602.263    546.982    546.982
 96.070    956.000    971.445    -15.445    546.710    919.106    599.042    546.710    546.710
 96.170    983.000    942.791     40.209    546.439    894.165    595.062    546.439    546.439
 96.270    930.000    912.989     17.011    546.167    868.569    590.588    546.167    546.167
 96.370    876.000    883.916     -7.916    545.897    843.935    585.880    545.897    545.897
 96.470    920.000    857.355     62.645    545.627    821.809    581.173    545.627    545.627
 96.570    866.000    834.932     31.068    545.357    803.625    576.664    545.357    545.357
 96.670    827.000    818.094      8.906    545.088    790.671    572.506    545.088    545.088
 96.770    861.000    808.083     52.917    544.819    784.084    568.807    544.819    544.819
 96.870    806.000    805.931      0.069    544.551    784.830    565.635    544.551    544.551
 96.970    825.152    812.453     12.699    544.283    793.697    563.014    544.283    544.283
 97.070    859.344    828.240     31.105    544.016    811.282    560.940    544.016    544.016
 97.170    814.272    853.640    -39.368    543.750    837.960    559.386    543.750    543.750
 97.270    946.000    888.725     57.275    543.484    873.848    558.306    543.484    543.484
 97.370    969.000    933.281     35.719    543.219    918.784    557.651    543.219    543.219
 97.470   1039.000    986.849     52.151    542.954    972.361    557.366    542.954    542.954
 97.570   1100.658   1048.458     52.200    542.691   1033.669    557.392    542.691    542.691
 97.670   1136.000   1116.739     19.261    542.427   1101.400    557.671    542.427    542.427
 97.770   1123.366   1189.844    -66.478    542.165   1173.767    558.138    542.165    542.165
 97.870   1266.000   1265.445      0.555    541.903   1248.509    558.730    541.903    541.903
 97.970   1312.000   1340.670    -28.670    541.642   1322.824    559.376    541.642    541.642
 98.070   1484.878   1412.177     72.701    541.382   1393.448    560.000    541.382    541.382
 98.170   1413.729   1476.262    -62.533    541.122   1456.754    560.525    541.122    541.122
 98.270   1493.609   1529.103    -35.494    540.864   1509.000    560.871    540.864    540.864
 98.370   1640.000   1567.180     72.820    540.606   1546.735    560.969    540.606    540.606
 98.470   1636.225   1587.812     48.414    540.349   1567.332    560.765    540.349    540.349
 98.570   1635.000   1589.677     45.323    540.093   1569.492    560.233    540.093    540.093
 98.670   1592.000   1573.080     18.920    539.837   1553.515    559.379    539.837    539.837
 98.770   1582.628   1539.859     42.770    539.583   1521.199    558.238    539.583    539.583
 98.870   1449.000   1492.987    -43.987    539.330   1475.461    556.868    539.330    539.330
 98.970   1394.000   1436.069    -42.069    539.077   1419.839    555.334    539.077    539.077
 99.070   1430.000   1372.901     57.099    538.826   1358.056    553.707    538.826    538.826
 99.170   1248.000   1307.155    -59.155    538.575   1293.720    552.052    538.575    538.575
 99.270   1203.000   1242.196    -39.196    538.325   1230.138    550.427    538.325    538.325
 99.370   1284.000   1180.981    103.019    538.077   1170.218    548.883    538.077    538.077
 99.470   1065.000   1126.023    -61.023    537.829   1116.433    547.459    537.829    537.829
 99.570   1070.000   1079.394     -9.394    537.583   1070.824    546.187    537.583    537.583
 99.670   1017.000   1042.757    -25.757    537.337   1035.033    545.088    537.337    537.337
 99.770   1010.896   1017.394     -6.498    537.093   1010.331    544.177    537.093    537.093
 99.870    998.000   1004.248     -6.248    536.850    997.652    543.457    536.850    536.850
 99.970    962.592   1003.935    -41.343    536.608    997.619    542.927    536.608    536.608
100.070    985.672   1016.767    -31.095    536.367   1010.550    542.581    536.367    536.367
100.170   1049.000   1042.758      6.242    536.127   1036.472    542.404    536.127    536.127
100.270   1055.000   1081.631    -26.631    535.889   1075.124    542.381    535.889    535.889
100.370   1089.780   1132.811    -43.032    535.651   1125.955    542.490    535.651    535.651
100.470   1151.000   1195.420    -44.420    535.415   1188.109    542.708    535.415    535.415
100.570   1330.935   1268.249     62.687    535.180   1260.404    543.009    535.180    535.180
100.670   1367.000   1349.732     17.268    534.947   1341.304    543.363    534.947    534.947
100.770   1471.000   1437.919     33.081    534.715   1428.890    543.740    534.715    534.715
100.870   1608.237   1530.453     77.784    534.484   1520.837    544.107    534.484    534.484
100.970   1706.000   1624.612     81.388    534.254   1614.456    544.431    534.254    534.254
101.070   1777.736   1717.441     60.296    534.026   1706.824    544.680    534.026    534.026
101.170   1829.000   1805.871     23.129    533.799   1794.900    544.829    533.799    533.799
101.270   1922.000   1887.048     34.952    533.574   1875.845    544.857    533.574    533.574
101.370   1922.000   1958.574    -36.574    533.350   1947.270    544.756    533.350    533.350
101.470   2013.962   2018.638     -4.676    533.128   2007.358    544.533    533.128    533.128
101.570   2123.488   2065.966     57.521    532.907   2054.817    544.203    532.907    532.907
101.670   2033.000   2099.629    -66.629    532.687   2088.690    543.793    532.687    532.687
101.770   2110.000   2118.834     -8.834    532.469   2108.154    543.333    532.469    532.469
101.870   2092.000   2122.863    -30.863    532.253   2112.462    542.852    532.253    532.253
101.970   2180.514   2111.217     69.297    532.038   2101.086    542.380    532.038    532.038
102.070   2097.000   2083.938     13.062    531.825   2074.041    541.940    531.825    531.825
102.170   1995.000   2041.953    -46.953    531.613   2032.236    541.553    531.613    531.613
102.270   1950.587   1987.254    -36.668    531.404   1977.650    541.232    531.404    531.404
102.370   1933.000   1922.785     10.215    531.195   1913.217    540.984    531.195    531.195
102.470   1887.209   1852.068     35.141    530.989   1842.459    540.811    530.989    530.989
102.570   1857.644   1778.730     78.914    530.784   1769.012    540.707    530.784    530.784
102.670   1691.000   1706.082    -15.082    530.581   1696.196    540.659    530.581    530.581
102.770   1592.000   1636.830    -44.830    530.379   1626.739    540.651    530.379    530.379
102.870   1586.906   1572.945     13.961    530.180   1562.631    540.661    530.180    530.180
102.970   1548.984   1515.626     33.358    529.982   1505.094    540.669    529.982    529.982
103.070   1508.839   1465.321     43.519    529.786   1454.596    540.654    529.786    529.786
103.170   1470.037   1421.786     48.251    529.592   1410.912    540.599    529.592    529.592
103.270   1347.000   1384.162    -37.162    529.400   1373.200    540.487    529.400    529.400
103.370   1412.050   1351.090     60.961    529.210   1340.111    540.306    529.210    529.210
103.470   1271.000   1320.858    -49.858    529.021   1309.950    540.043    529.021    529.021
103.570   1271.000   1291.626    -20.626    528.835   1280.882    539.689    528.835    528.835
103.670   1299.236   1261.671     37.566    528.650   1251.192    539.237    528.650    528.650
103.770   1243.000   1229.637     13.363    528.468   1219.525    538.686    528.468    528.468
103.870   1251.045   1194.717     56.328    528.288   1185.066    538.043    528.288    528.288
103.970   1161.470   1156.696      4.773    528.109   1147.590    537.319    528.109    528.109
104.070   1076.278   1115.883    -39.605    527.933   1107.383    536.533    527.933    527.933
104.170   1066.000   1072.960     -6.960    527.759   1065.111    535.705    527.759    527.759
104.270   1008.458   1028.808    -20.349    527.587   1021.630    534.856    527.587    527.587
104.370   1024.000    984.361     39.639    527.417    977.857    534.006    527.417    527.417
104.470    927.712    940.526    -12.814    527.249    934.682    533.172    527.249    527.249
104.570    907.000    898.122      8.878    527.084    892.910    532.369    527.084    527.084
104.670    847.000    857.847    -10.847    526.920    853.228    531.605    526.920    526.920
104.770    821.000    820.264      0.736    526.759    816.191    530.891    526.759    526.759
104.870    809.502    785.790     23.711    526.601    782.211    530.231    526.601    526.601
104.970    773.000    754.694     18.306    526.444    751.556    529.627    526.444    526.444
105.070    771.000    727.101     43.899    526.290    724.350    529.079    526.290    526.290
105.170    660.000    702.986    -42.986    526.138    700.577    528.580    526.138    526.138
105.270    732.521    682.294     50.227    525.989    680.170    528.140    525.989    525.989
105.370    638.615    664.818    -26.203    525.842    662.932    527.751    525.842    525.842
105.470    602.746    650.302    -47.556    525.697    648.610    527.407    525.697    525.697
105.570    656.000    638.462     17.538    525.555    636.929    527.103    525.555    525.555
105.670    614.000    629.007    -15.007    525.416    627.599    526.835    525.416    525.416
105.770    661.000    621.652     39.348    525.279    620.340    526.598    525.279    525.279
105.870    627.000    616.137     10.863    525.144    614.897    526.389    525.144    525.144
105.970    633.000    612.236     20.764    525.012    611.047    526.204    525.012    525.012
106.070    617.075    609.764      7.311    524.883    608.607    526.040    524.883    524.883
106.170    618.000    608.577      9.423    524.756    607.435    525.896    524.756    524.756
106.270    627.964    608.573     19.391    524.632    607.431    525.770    524.632    524.632
106.370    642.000    609.685     32.315    524.511    608.529    525.661    524.511    524.511
106.470    642.000    611.880     30.120    524.392    610.696    525.568    524.392    524.392
106.570    579.245    615.148    -35.903    524.276    613.922    525.491    524.276    524.276
106.670    656.000    619.497     36.503    524.163    618.216    525.430    524.163    524.163
106.770    696.000    624.942     71.058    524.053    623.592    525.386    524.053    524.053
106.870    607.892    631.501    -23.609    523.945    630.068    525.358    523.945    523.945
106.970    636.375    639.183     -2.808    523.841    637.654    525.346    523.841    523.841
107.070    626.000    647.979    -21.979    523.739    646.340    525.351    523.739    523.739
107.170    704.000    657.855     46.145    523.640    656.092    525.372    523.640    523.640
107.270    702.000    668.738     33.262    523.544    666.840    525.408    523.544    523.544
107.370    695.000    680.515     14.485    523.451    678.471    525.457    523.451    523.451
107.470    698.000    693.021      4.979    523.361    690.824    525.517    523.361    523.361
107.570    725.375    706.046     19.329    523.274    703.690    525.586    523.274    523.274
107.670    721.000    719.324      1.676    523.190    716.808    525.658    523.190    523.190
107.770    720.000    732.546    -12.546    523.109    729.874    525.731    523.109    523.109
107.870    757.647    745.360     12.286    523.031    742.541    525.799    523.031    523.031
107.970    742.000    757.389    -15.389    522.957    754.435    525.857    522.957    522.957
108.070    734.000    768.245    -34.245    522.885    765.178    525.900    522.885    522.885
108.170    739.000    777.570    -38.570    522.817    774.413    525.921    522.817    522.817
108.270    783.082    785.070     -1.989    522.752    781.854    525.918    522.752    522.752
108.370    797.000    790.566      6.434    522.690    787.323    525.886    522.690    522.690
108.470    808.000    794.028     13.972    522.631    790.790    525.825    522.631    522.631
108.570    813.989    795.587     18.402    522.576    792.387    525.735    522.576    522.576
108.670    754.057    795.524    -41.467    522.524    792.391    525.620    522.524    522.524
108.770    804.000    794.226      9.774    522.476    791.185    525.485    522.476    522.476
108.870    765.000    792.135    -27.135    522.431    789.204    525.334    522.431    522.431
108.970    790.000    789.695      0.305    522.389    786.887    525.174    522.389    522.389
109.070    768.000    787.309    -19.309    522.351    784.632    525.010    522.351    522.351
109.170    738.000    785.313    -47.313    522.316    782.768    524.847    522.316    522.316
109.270    812.000    783.951     28.049    522.285    781.536    524.690    522.285    522.285
109.370    734.000    783.369    -49.369    522.257    781.080    524.541    522.257    522.257
109.470    752.000    783.610    -31.610    522.233    781.437    524.404    522.233    522.233
109.570    743.000    784.606    -41.606    522.213    782.541    524.280    522.213    522.213
109.670    805.000    786.189     18.811    522.196    784.221    524.170    522.196    522.196
109.770    836.708    788.094     48.614    522.183    786.212    524.073    522.183    522.183
109.870    739.000    789.973    -50.973    522.173    788.169    523.990    522.173    522.173
109.970    760.436    791.423    -30.987    522.168    789.688    523.918    522.168    522.168
110.070    753.000    792.016    -39.016    522.166    790.344    523.855    522.166    522.166
110.170    755.849    791.347    -35.497    522.168    789.735    523.800    522.168    522.168
110.270    829.759    789.085     40.674    522.173    787.531    523.750    522.173    522.173
110.370    759.000    785.012    -26.012    522.183    783.519    523.701    522.183    522.183
110.470    745.508    779.059    -33.551    522.196    777.634    523.648    522.196    522.196
110.570    813.000    771.328     41.672    522.214    769.962    523.608    522.214    522.214
110.670    767.000    762.015      4.985    522.235    760.707    523.571    522.235    522.235
110.770    755.000    751.412      3.588    522.261    750.163    523.537    522.261    522.261
110.870    711.921    739.863    -27.942    522.290    738.672    523.507    522.290    522.290
110.970    687.000    727.720    -40.720    522.324    726.587    523.482    522.324    522.324
111.070    766.316    715.327     50.990    522.361    714.249    523.462    522.361    522.361
111.170    708.000    702.994      5.006    522.403    701.969    523.449    522.403    522.403
111.270    704.000    690.997     13.003    522.449    690.022    523.443    522.449    522.449
111.370    740.000    679.567     60.433    522.499    678.637    523.446    522.499    522.499
111.470    668.000    668.890     -0.890    522.553    668.002    523.456    522.553    522.553
111.570    656.000    659.126     -3.126    522.612    658.274    523.476    522.612    522.612
111.670    667.933    650.368     17.565    522.675    649.548    523.505    522.675    522.675
111.770    636.000    642.678     -6.678    522.742    641.883    523.544    522.742    522.742
111.870    622.000    636.078    -14.078    522.813    635.305    523.592    522.813    522.813
111.970    670.000    630.561     39.439    522.889    629.804    523.649    522.889    522.889
112.070    610.117    626.090    -15.973    522.970    625.345    523.716    522.970    522.970
112.170    662.568    622.608     39.960    523.054    621.870    523.791    523.054    523.054
112.270    585.000    620.043    -35.043    523.144    619.309    523.875    523.144    523.144
112.370    584.923    618.311    -33.388    523.238    617.578    523.967    523.238    523.238
112.470    670.000    617.327     52.673    523.336    616.591    524.067    523.336    523.336
112.570    618.000    617.001      0.999    523.439    616.260    524.173    523.439    523.439
112.670    612.000    617.250     -5.250    523.547    616.503    524.286    523.547    523.547
112.770    611.000    617.995     -6.995    523.659    617.241    524.405    523.659    523.659
112.870    599.958    619.168    -19.211    523.776    618.406    524.529    523.776    523.776
112.970    600.000    620.711    -20.711    523.898    619.940    524.659    523.898    523.898
113.070    575.000    622.577    -47.577    524.024    621.797    524.794    524.024    524.024
113.170    613.000    624.735    -11.735    524.156    623.946    524.933    524.156    524.156
113.270    674.341    627.168     47.172    524.292    626.371    525.078    524.292    524.292
113.370    603.461    629.875    -26.414    524.433    629.069    525.228    524.433    524.433
113.470    586.000    632.871    -46.871    524.579    632.055    525.383    524.579    524.579
113.570    686.000    636.186     49.814    524.730    635.359    525.544    524.730    524.730
113.670    643.025    639.870      3.155    524.886    639.030    525.713    524.886    524.886
113.770    653.000    643.990      9.010    525.046    643.134    525.888    525.046    525.046
113.870    686.000    648.636     37.364    525.212    647.762    526.073    525.212    525.212
113.970    645.000    653.928     -8.928    525.383    653.030    526.266    525.383    525.383
114.070    686.000    660.021     25.979    525.560    659.094    526.471    525.560    525.560
114.170    630.000    667.110    -37.110    525.741    666.146    526.688    525.741    525.741
114.270    679.000    675.445      3.555    525.928    674.435    526.918    525.928    525.928
114.370    664.547    685.341    -20.794    526.119    684.275    527.163    526.119    526.119
114.470    733.000    697.195     35.805    526.316    696.060    527.426    526.316    526.316
114.570    699.000    711.499    -12.499    526.519    710.280    527.708    526.519    526.519
114.670    749.084    728.860     20.224    526.727    727.541    528.010    526.727    526.727
114.770    725.949    750.016    -24.067    526.940    748.577    528.337    526.940    526.940
114.870    751.000    775.855    -24.855    527.158    774.273    528.689    527.158    527.158
114.970    798.000    807.429     -9.429    527.382    805.680    529.070    527.382    527.382
115.070    850.000    845.968      4.032    527.612    844.025    529.482    527.612    527.612
115.170    861.849    892.888    -31.039    527.847    890.719    529.928    527.847    527.847
115.270    987.096    949.788     37.307    528.087    947.360    530.410    528.087    528.087
115.370   1068.109   1018.445     49.664    528.334   1015.721    530.931    528.334    528.334
115.470   1102.682   1100.786      1.895    528.586   1097.727    531.492    528.586    528.586
115.570   1169.000   1198.859    -29.859    528.843   1195.424    532.097    528.843    528.843
115.670   1305.047   1314.774     -9.727    529.106   1310.921    532.747    529.106    529.106
115.770   1433.768   1450.644    -16.876    529.375   1446.329    533.442    529.375    529.375
115.870   1576.375   1608.491    -32.115    529.650   1603.670    534.184    529.650    529.650
115.970   1719.717   1790.150    -70.433    529.931   1784.780    534.971    529.931    529.931
116.070   2110.000   1997.158    112.842    530.217   1991.197    535.803    530.217    530.217
116.170   2307.000   2230.626     76.374    530.510   2224.035    536.678    530.510    530.510
116.270   2491.000   2491.113     -0.113    530.808   2483.858    537.592    530.808    530.808
116.370   2814.000   2778.506     35.494    531.113   2770.559    538.540    531.113    531.113
116.470   3172.293   3091.901     80.393    531.423   3083.240    539.518    531.423    531.423
116.570   3357.000   3429.502    -72.502    531.740   3420.115    540.517    531.740    531.740
116.670   3710.000   3788.547    -78.547    532.062   3778.430    541.530    532.062    532.062
116.770   4220.000   4165.255     54.745    532.391   4154.414    542.549    532.391    532.391
116.870   4443.000   4554.771   -111.771    532.726   4543.225    543.564    532.726    532.726
116.970   5004.000   4951.352     52.648    533.068   4939.127    544.569    533.068    533.068
117.070   5425.246   5348.177     77.069    533.415   5335.307    545.555    533.415    533.415
117.170   5698.318   5737.556    -39.238    533.769   5724.087    546.516    533.769    533.769
117.270   6021.000   6111.065    -90.065    534.129   6097.052    547.443    534.129    534.129
117.370   6380.000   6459.728    -79.728    534.496   6445.231    548.329    534.496    534.496
117.470   6736.000   6774.282    -38.282    534.869   6759.372    549.167    534.869    534.869
117.570   7037.000   7045.549     -8.549    535.248   7030.302    549.949    535.248    535.248
117.670   7400.000   7264.918    135.082    535.634   7249.418    550.668    535.634    535.634
117.770   7458.156   7424.924     33.233    536.026   7409.259    551.317    536.026    536.026
117.870   7536.000   7519.858     16.142    536.426   7504.118    551.890    536.426    536.426
117.970   7540.000   7546.318     -6.318    536.831   7530.594    552.383    536.831    536.831
118.070   7499.000   7503.566     -4.566    537.244   7487.945    552.795    537.244    537.244
118.170   7265.551   7393.605   -128.055    537.663   7378.171    553.127    537.663    537.663
118.270   7243.000   7220.960     22.040    538.089   7205.788    553.382    538.089    538.089
118.370   7103.886   6992.204    111.682    538.521   6977.363    553.563    538.521    538.521
118.470   6581.000   6715.364   -134.364    538.961   6700.916    553.678    538.961    538.961
118.570   6297.000   6399.311   -102.311    539.407   6385.309    553.733    539.407    539.407
118.670   6051.000   6053.216     -2.216    539.861   6039.707    553.734    539.861    539.861
118.770   5703.778   5686.127     17.651    540.321   5673.150    553.690    540.321    540.321
118.870   5171.041   5306.645   -135.603    540.788   5294.232    553.608    540.788    540.788
118.970   4952.000   4922.696     29.304    541.263   4910.873    553.497    541.263    541.263
119.070   4435.344   4541.376   -106.031    541.744   4530.158    553.365    541.744    541.744
119.170   4299.000   4168.836    130.164    542.233   4158.234    553.223    542.233    542.233
119.270   3713.914   3810.228    -96.315    542.729   3800.243    553.079    542.729    542.729
119.370   3572.596   3469.674    102.922    543.232   3460.300    552.943    543.232    543.232
119.470   3255.518   3150.283    105.235    543.742   3141.505    552.825    543.742    543.742
119.570   2855.378   2854.199      1.180    544.260   2845.996    552.733    544.260    544.260
119.670   2639.000   2582.678     56.322    544.785   2575.024    552.674    544.785    544.785
119.770   2313.000   2336.192    -23.192    545.317   2329.057    552.654    545.317    545.317
119.870   2143.000   2114.547     28.453    545.857   2107.893    552.679    545.857    545.857
119.970   1943.000   1916.999     26.001    546.404   1910.785    552.754    546.404    546.404
120.070   1789.000   1742.376     46.624    546.959   1736.561    552.883    546.959    546.959
120.170   1593.000   1589.196      3.804    547.521   1583.732    553.068    547.521    547.521
120.270   1389.661   1455.761    -66.100    548.091   1450.602    553.312    548.091    548.091
120.370   1339.264   1340.255     -0.991    548.669   1335.351    553.616    548.669    548.669
120.470   1288.000   1240.821     47.179    549.254   1236.120    553.982    549.254    549.254
120.570   1164.000   1155.626      8.374    549.847   1151.077    554.411    549.847    549.847
120.670   1026.591   1082.913    -56.323    550.448   1078.464    554.903    550.448    550.448
120.770   1002.114   1021.045    -18.932    551.057   1016.641    555.459    551.057    551.057
120.870    982.745    968.525     14.219    551.673    964.112    556.080    551.673    551.673
120.970    981.850    924.013     57.836    552.298    919.536    556.765    552.298    552.298
121.070    852.000    886.332    -34.332    552.930    881.734    557.517    552.930    552.930
121.170    851.155    854.461     -3.306    553.571    849.685    558.334    553.571    553.571
121.270    779.000    827.530    -48.530    554.219    822.517    559.219    554.219    554.219
121.370    787.000    804.804    -17.804    554.876    799.495    560.173    554.876    554.876
121.470    784.000    785.669     -1.669    555.540    780.002    561.196    555.540    555.540
121.570    737.951    769.615    -31.664    556.213    763.528    562.291    556.213    556.213
121.670    755.000    756.224     -1.224    556.895    749.652    563.459    556.895    556.895
121.770    717.000    745.149    -28.149    557.584    738.025    564.702    557.584    557.584
121.870    745.938    736.107      9.832    558.282    728.364    566.021    558.282    558.282
121.970    715.000    728.863    -13.863    558.988    720.431    567.417    558.988    558.988
122.070    714.000    723.223     -9.223    559.703    714.033    568.892    559.703    559.703
122.170    700.000    719.023    -19.023    560.426    709.004    570.446    560.426    560.426
122.270    656.000    716.125    -60.125    561.158    705.204    572.080    561.158    561.158
122.370    727.283    714.405     12.878    561.898    702.512    573.794    561.898    561.898
122.470    750.753    713.756     36.997    562.647    700.821    575.586    562.647    562.647
122.570    731.000    714.077     16.923    563.404    700.033    577.456    563.404    563.404
122.670    688.485    715.276    -26.791    564.170    700.055    579.400    564.170    564.170
122.770    700.871    717.259    -16.389    564.945    700.801    581.414    564.945    564.945
122.870    731.184    719.936     11.248    565.729    702.186    583.492    565.729    565.729
122.970    713.750    723.212     -9.462    566.521    704.122    585.626    566.521    566.521
123.070    735.000    726.990      8.010    567.323    706.524    587.805    567.323    567.323
123.170    689.000    731.166    -42.166    568.133    709.302    590.017    568.133    568.133
123.270    703.000    735.633    -32.633    568.953    712.364    592.244    568.953    568.953
123.370    715.000    740.276    -25.276    569.781    715.612    594.470    569.781    569.781
123.470    737.000    744.974     -7.974    570.618    718.948    596.673    570.618    570.618
123.570    698.170    749.602    -51.432    571.465    722.268    598.831    571.465    571.465
123.670    796.000    754.030     41.970    572.321    725.467    600.919    572.321    572.321
123.770    755.000    758.123     -3.123    573.186    728.437    602.910    573.186    573.186
123.870    779.000    761.751     17.249    574.060    731.073    604.780    574.060    574.060
123.970    783.407    764.787     18.620    574.944    733.275    606.500    574.944    574.944
124.070    823.000    767.112     55.888    575.837    734.948    608.048    575.837    575.837
124.170    802.000    768.626     33.374    576.739    736.012    609.403    576.739    576.739
124.270    766.877    769.251     -2.374    577.651    736.406    610.549    577.651    577.651
124.370    800.000    768.931     31.069    578.573    736.083    611.475    578.573    578.573
124.470    726.371    767.614    -41.243    579.504    734.996    612.178    579.504    579.504
124.570    751.000    765.392    -14.392    580.444    733.230    612.664    580.444    580.444
124.670    725.336    762.275    -36.939    581.395    730.785    612.943    581.395    581.395
124.770    733.988    758.330    -24.342    582.355    727.710    613.032    582.355    582.355
124.870    819.000    753.649     65.351    583.325    724.079    612.953    583.325    583.325
124.970    755.000    748.341      6.659    584.304    719.971    612.730    584.304    584.304
