neutron_powder_diffraction_0007
R_wp: 3.685
Temperature (K): 444.176
Counts: 83950.00
Wavelength (Ã…): 2.52098
COMMENTS
Test file for demonstrating the .xyy file format in Reel1.0
END OF HEADER
   tth       Y_obs     Y_calc      Y_res    Background    Phase_1_Nuc    Phase_1_Mag    Phase_2_Nuc    Phase_2_Mag
  9.970    748.000    742.926      5.074    741.208    742.208    741.925    741.208    741.208
 10.070    757.000    741.875     15.125    740.069    741.149    740.794    740.069    740.069
 10.170    709.107    740.842    -31.735    738.937    740.108    739.670    738.937    738.937
 10.270    785.019    739.828     45.191    737.811    739.086    738.552    737.811    737.811
 10.370    706.000    738.836    -32.836    736.692    738.087    737.441    736.692    736.692
 10.470    760.000    737.870     22.130    735.579    737.112    736.336    735.579    735.579
 10.570    743.000    736.934      6.066    734.473    736.168    735.238    734.473    734.473
 10.670    730.754    736.033     -5.278    733.373    735.258    734.146    733.373    733.373
 10.770    735.000    735.174     -0.174    732.279    734.391    733.061    732.279    732.279
 10.870    709.331    734.368    -25.037    731.192    733.576    731.982    731.192    731.192
 10.970    739.091    733.626      5.465    730.111    732.825    730.910    730.111    730.111
 11.070    724.000    732.967     -8.967    729.036    732.157    729.844    729.036    729.036
 11.170    805.000    732.416     72.584    727.967    731.597    728.785    727.967    727.967
 11.270    737.000    732.010      4.990    726.905    731.182    727.732    726.905    726.905
 11.370    718.587    731.808    -13.220    725.849    730.969    726.685    725.849    725.849
 11.470    755.000    731.915     23.085    724.800    731.066    725.645    724.800    724.800
 11.570    763.000    732.558     30.442    723.756    731.698    724.611    723.756    723.756
 11.670    767.000    734.257     32.743    722.719    733.387    723.584    722.719    722.719
 11.770    778.000    738.173     39.827    721.688    737.289    722.563    721.688    721.688
 11.870    813.000    745.964     67.036    720.663    745.065    721.549    720.663    720.663
 11.970    897.000    760.000    137.000    719.645    759.082    720.541    719.645    719.645
 12.070    737.600    781.730    -44.129    718.632    780.788    719.539    718.632    718.632
 12.170    841.000    808.984     32.016    717.626    808.016    718.544    717.626    717.626
 12.270    815.184    832.816    -17.631    716.626    831.823    717.555    716.626    716.626
 12.370    892.000    839.105     52.895    715.631    838.097    716.572    715.631    715.631
 12.470    887.000    822.075     64.925    714.643    821.065    715.595    714.643    714.643
 12.570    748.414    792.950    -44.536    713.661    791.944    714.625    713.661    713.661
 12.670    746.000    765.225    -19.225    712.686    764.222    713.661    712.686    712.686
 12.770    730.000    744.749    -14.749    711.716    743.745    712.703    711.716    711.716
 12.870    671.000    731.705    -60.705    710.752    730.695    711.751    710.752    710.752
 12.970    699.000    723.986    -24.986    709.794    722.967    710.806    709.794    709.794
 13.070    741.329    719.341     21.988    708.842    718.312    709.867    708.842    708.842
 13.170    684.000    716.254    -32.254    707.896    715.213    708.934    707.896    707.896
 13.270    673.000    713.935    -40.935    706.956    712.881    708.007    706.956    706.956
 13.370    717.000    712.023      4.977    706.022    710.956    707.087    706.022    706.022
 13.470    658.397    710.364    -51.967    705.094    709.283    706.172    705.094    705.094
 13.570    691.000    708.877    -17.877    704.172    707.784    705.264    704.172    704.172
 13.670    688.228    707.518    -19.290    703.256    706.410    704.362    703.256    703.256
 13.770    677.000    706.254    -29.254    702.345    705.132    703.466    702.345    702.345
 13.870    745.229    705.064     40.165    701.441    703.927    702.577    701.441    701.441
 13.970    714.494    703.933     10.561    700.542    702.781    701.693    700.542    700.542
 14.070    726.000    702.849     23.151    699.649    701.682    700.816    699.649    699.649
 14.170    698.258    701.804     -3.546    698.762    700.621    699.945    698.762    698.762
 14.270    692.000    700.791     -8.791    697.881    699.592    699.079    697.881    697.881
 14.370    729.000    699.808     29.192    697.006    698.592    698.220    697.006    697.006
 14.470    743.741    698.853     44.887    696.136    697.621    697.368    696.136    696.136
 14.570    672.000    697.935    -25.935    695.272    696.685    696.521    695.272    695.272
 14.670    671.000    697.014    -26.014    694.414    695.746    695.681    694.414    694.414
 14.770    630.000    696.107    -66.107    693.561    694.822    694.846    693.561    693.561
 14.870    715.167    695.216     19.951    692.714    693.912    694.017    692.714    692.714
 14.970    703.593    694.340      9.253    691.873    693.018    693.195    691.873    691.873
 15.070    690.000    693.476     -3.476    691.037    692.135    692.378    691.037    691.037
 15.170    708.000    692.622     15.378    690.207    691.261    691.568    690.207    690.207
 15.270    714.600    691.778     22.822    689.383    690.398    690.764    689.383    689.383
 15.370    681.561    690.945     -9.383    688.565    689.544    689.965    688.565    688.565
 15.470    715.000    690.121     24.879    687.751    688.699    689.173    687.751    687.751
 15.570    699.000    689.307      9.693    686.944    687.863    688.387    686.944    686.944
 15.670    703.000    688.501     14.499    686.142    687.036    687.607    686.142    686.142
 15.770    729.133    687.704     41.429    685.346    686.217    686.833    685.346    685.346
 15.870    690.000    686.915      3.085    684.555    685.405    686.065    684.555    684.555
 15.970    689.000    686.135      2.865    683.769    684.601    685.303    683.769    683.769
 16.070    654.358    685.362    -31.004    682.990    683.804    684.547    682.990    682.990
 16.170    643.108    684.597    -41.489    682.215    683.015    683.797    682.215    682.215
 16.270    702.118    683.839     18.279    681.446    682.232    683.053    681.446    681.446
 16.370    711.000    683.089     27.911    680.683    681.457    682.315    680.683    680.683
 16.470    644.000    682.346    -38.346    679.925    680.687    681.583    679.925    679.925
 16.570    697.000    681.611     15.389    679.172    679.925    680.858    679.172    679.172
 16.670    684.000    680.882      3.118    678.425    679.169    680.138    678.425    678.425
 16.770    658.000    680.161    -22.161    677.683    678.419    679.424    677.683    677.683
 16.870    633.000    679.447    -46.447    676.946    677.677    678.717    676.946    676.946
 16.970    658.557    678.746    -20.189    676.215    676.946    678.015    676.215    676.215
 17.070    654.098    678.046    -23.949    675.489    676.215    677.320    675.489    675.489
 17.170    631.000    677.358    -46.358    674.768    675.496    676.631    674.768    674.768
 17.270    659.114    676.682    -17.567    674.053    674.786    675.949    674.053    674.053
 17.370    684.000    676.008      7.992    673.343    674.079    675.272    673.343    673.343
 17.470    705.080    675.391     29.689    672.638    673.426    674.603    672.638    672.638
 17.570    698.392    674.746     23.646    671.939    672.746    673.939    671.939    671.939
 17.670    688.000    674.088     13.912    671.244    672.052    673.280    671.244    671.244
 17.770    641.000    673.435    -32.435    670.555    671.362    672.628    670.555    670.555
 17.870    638.400    672.788    -34.389    669.871    670.678    671.982    669.871    669.871
 17.970    701.792    672.150     29.641    669.193    670.001    671.342    669.193    669.193
 18.070    649.599    671.536    -21.937    668.519    669.347    670.708    668.519    668.519
 18.170    622.031    670.923    -48.892    667.851    668.693    670.080    667.851    667.851
 18.270    610.000    670.305    -60.305    667.187    668.033    669.459    667.187    667.187
 18.370    644.000    669.692    -25.692    666.529    667.377    668.844    666.529    666.529
 18.470    689.002    669.086     19.916    665.876    666.727    668.235    665.876    665.876
 18.570    659.000    668.487     -9.487    665.228    666.082    667.633    665.228    665.228
 18.670    614.187    667.895    -53.707    664.585    665.442    667.037    664.585    664.585
 18.770    659.000    667.309     -8.309    663.947    664.808    666.448    663.947    663.947
 18.870    702.000    666.731     35.269    663.313    664.180    665.865    663.313    663.313
 18.970    671.000    666.160      4.840    662.685    663.557    665.288    662.685    662.685
 19.070    663.461    665.604     -2.143    662.062    662.948    664.719    662.062    662.062
 19.170    646.000    665.051    -19.051    661.444    662.340    664.156    661.444    661.444
 19.270    671.139    664.504      6.635    660.831    661.735    663.600    660.831    660.831
 19.370    696.528    663.994     32.534    660.223    661.156    663.061    660.223    660.223
 19.470    679.000    663.504     15.496    659.620    660.590    662.534    659.620    659.620
 19.570    666.000    662.982      3.018    659.021    660.005    661.999    659.021    659.021
 19.670    696.000    662.483     33.517    658.428    659.440    661.470    658.428    658.428
 19.770    632.000    661.976    -29.976    657.839    658.867    660.949    657.839    657.839
 19.870    676.000    661.471     14.529    657.255    658.293    660.434    657.255    657.255
 19.970    682.751    660.975     21.776    656.676    657.726    659.926    656.676    656.676
 20.070    702.000    660.500     41.500    656.102    657.176    659.426    656.102    656.102
 20.170    650.640    660.043     -9.403    655.533    656.637    658.939    655.533    655.533
 20.270    647.000    659.613    -12.613    654.968    656.108    658.474    654.968    654.968
 20.370    591.000    659.162    -68.162    654.409    655.568    658.003    654.409    654.409
 20.470    650.000    658.730     -8.730    653.853    655.049    657.534    653.853    653.853
 20.570    642.000    658.331    -16.331    653.303    654.561    657.073    653.303    653.303
 20.670    618.000    657.917    -39.917    652.757    654.056    656.619    652.757    652.757
 20.770    699.862    657.495     42.366    652.216    653.540    656.172    652.216    652.216
 20.870    678.115    657.077     21.038    651.680    653.023    655.734    651.680    651.680
 20.970    605.009    656.687    -51.678    651.148    652.530    655.306    651.148    651.148
 21.070    653.000    656.316     -3.316    650.621    652.051    654.886    650.621    650.621
 21.170    675.000    655.928     19.072    650.099    651.553    654.474    650.099    650.099
 21.270    633.061    655.550    -22.489    649.581    651.060    654.071    649.581    649.581
 21.370    601.000    655.187    -54.187    649.068    650.575    653.680    649.068    649.068
 21.470    598.000    654.847    -56.847    648.559    650.105    653.302    648.559    648.559
 21.570    672.000    654.509     17.491    648.055    649.635    652.929    648.055    648.055
 21.670    674.397    654.176     20.221    647.556    649.168    652.564    647.556    647.556
 21.770    658.000    653.854      4.146    647.061    648.705    652.210    647.061    647.061
 21.870    604.000    653.545    -49.545    646.570    648.250    651.866    646.570    646.570
 21.970    637.000    653.248    -16.248    646.084    647.800    651.533    646.084    646.084
 22.070    695.000    652.965     42.035    645.603    647.357    651.212    645.603    645.603
 22.170    655.000    652.697      2.303    645.126    646.921    650.902    645.126    645.126
 22.270    626.000    652.445    -26.445    644.653    646.493    650.605    644.653    644.653
 22.370    641.000    652.211    -11.211    644.185    646.075    650.320    644.185    644.185
 22.470    643.000    651.994     -8.994    643.721    645.667    650.048    643.721    643.721
 22.570    636.000    651.795    -15.795    643.261    645.266    649.791    643.261    643.261
 22.670    654.000    651.616      2.384    642.806    644.876    649.547    642.806    642.806
 22.770    650.000    651.464     -1.464    642.355    644.500    649.320    642.355    642.355
 22.870    631.000    651.335    -20.335    641.909    644.136    649.108    641.909    641.909
 22.970    627.183    651.229    -24.046    641.467    643.784    648.912    641.467    641.467
 23.070    610.000    651.151    -41.151    641.029    643.448    648.733    641.029    641.029
 23.170    675.614    651.105     24.508    640.595    643.129    648.572    640.595    640.595
 23.270    662.184    651.096     11.087    640.166    642.832    648.431    640.166    640.166
 23.370    627.000    651.129    -24.129    639.741    642.559    648.311    639.741    639.741
 23.470    683.321    651.207     32.114    639.320    642.316    648.212    639.320    639.320
 23.570    601.000    651.341    -50.341    638.903    642.109    648.136    638.903    638.903
 23.670    658.000    651.539      6.461    638.491    641.947    648.084    638.491    638.491
 23.770    654.000    651.816      2.184    638.082    641.842    648.059    638.082    638.082
 23.870    601.228    652.191    -50.963    637.678    641.810    648.061    637.678    637.678
 23.970    658.909    652.690      6.219    637.278    641.877    648.093    637.278    637.278
 24.070    663.000    653.354      9.646    636.882    642.081    648.158    636.882    636.882
 24.170    619.000    654.256    -35.256    636.491    642.492    648.258    636.491    636.491
 24.270    639.485    655.544    -16.059    636.103    643.256    648.394    636.103    636.103
 24.370    687.172    657.550     29.622    635.719    644.703    648.571    635.719    635.719
 24.470    677.000    660.964     16.036    635.340    647.519    648.792    635.340    635.340
 24.570    611.908    666.975    -55.067    634.964    652.890    649.061    634.964    634.964
 24.670    738.000    677.106     60.894    634.593    662.334    649.383    634.593    634.593
 24.770    686.000    692.379     -6.379    634.225    676.872    649.761    634.225    634.225
 24.870    727.000    711.708     15.292    633.862    695.410    650.203    633.862    633.862
 24.970    721.499    729.795     -8.296    633.502    712.639    650.714    633.502    633.502
 25.070    729.000    737.196     -8.196    633.146    719.102    651.301    633.146    633.146
 25.170    762.410    728.726     33.684    632.795    709.601    651.974    632.795    632.795
 25.270    703.384    711.065     -7.682    632.447    690.812    652.741    632.447    632.447
 25.370    703.000    693.539      9.461    632.103    672.056    653.614    632.103    632.103
 25.470    694.628    680.637     13.991    631.763    657.811    654.605    631.763    631.763
 25.570    671.000    672.914     -1.914    631.427    648.620    655.731    631.427    631.427
 25.670    675.000    669.163      5.837    631.095    643.256    657.007    631.095    631.095
 25.770    654.000    667.892    -13.892    630.766    640.206    658.456    630.766    630.766
 25.870    676.000    668.026      7.974    630.441    638.368    660.102    630.441    630.441
 25.970    654.596    668.989    -14.394    630.120    637.138    661.974    630.120    630.120
 26.070    634.000    670.546    -36.546    629.803    636.238    664.112    629.803    629.803
 26.170    714.000    672.591     41.409    629.490    635.533    666.549    629.490    629.490
 26.270    606.000    675.128    -69.128    629.180    634.970    669.339    629.180    629.180
 26.370    721.000    678.190     42.810    628.875    634.518    672.546    628.875    628.875
 26.470    698.000    681.835     16.165    628.572    634.158    676.249    628.572    628.572
 26.570    651.308    686.151    -34.843    628.274    633.879    680.545    628.274    628.274
 26.670    722.029    691.254     30.775    627.979    633.675    685.557    627.979    627.979
 26.770    677.518    697.302    -19.784    627.688    633.545    691.444    627.688    627.688
 26.870    750.360    704.502     45.858    627.400    633.492    698.407    627.400    627.400
 26.970    682.948    713.128    -30.180    627.116    633.525    706.717    627.116    627.116
 27.070    701.761    723.552    -21.791    626.836    633.656    716.729    626.836    626.836
 27.170    715.000    736.280    -21.280    626.559    633.904    728.931    626.559    626.559
 27.270    772.891    752.017     20.874    626.286    634.298    744.000    626.286    626.286
 27.370    713.000    771.763    -58.763    626.017    634.879    762.893    626.017    626.017
 27.470    811.000    796.981     14.019    625.751    635.707    787.015    625.751    625.751
 27.570    849.000    830.047     18.953    625.488    636.883    818.640    625.488    625.488
 27.670    836.050    875.692    -39.643    625.229    638.606    862.298    625.229    625.229
 27.770    900.000    946.796    -46.796    624.973    641.415    930.327    624.973    624.973
 27.870   1097.000   1083.349     13.651    624.721    646.975   1061.046    624.721    624.721
 27.970   1462.588   1394.787     67.801    624.473    659.839   1359.310    624.473    624.473
 28.070   2052.000   2104.167    -52.167    624.227    689.284   2038.859    624.227    624.227
 28.170   3609.493   3493.379    116.113    623.986    747.038   3369.830    623.986    623.986
 28.270   5492.316   5632.395   -140.079    623.747    836.038   5419.312    623.747    623.747
 28.370   7750.000   7986.343   -236.343    623.512    934.132   7674.773    623.512    623.512
 28.470   9306.000   9336.441    -30.441    623.280    990.857   8968.125    623.280    623.280
 28.570   8898.758   8753.221    145.537    623.052    968.020   8408.037    623.052    623.052
 28.670   7137.000   6846.004    290.996    622.827    891.867   6577.155    622.827    622.827
 28.770   5108.000   4977.620    130.380    622.605    820.586   4779.935    622.605    622.605
 28.870   3926.000   4035.621   -109.621    622.387    792.659   3865.567    622.387    622.387
 28.970   4181.000   4123.066     57.934    622.172    812.341   3933.033    622.172    622.172
 29.070   4728.000   4763.891    -35.891    621.960    856.019   4529.994    621.960    621.960
 29.170   5209.248   5198.703     10.545    621.751    883.911   4936.859    621.751    621.751
 29.270   4979.519   4869.652    109.867    621.546    866.130   4625.559    621.546    621.546
 29.370   3812.000   3906.053    -94.053    621.344    811.109   3716.819    621.344    621.344
 29.470   2788.000   2809.642    -21.642    621.145    748.173   2683.045    621.145    621.145
 29.570   1810.000   1939.053   -129.053    620.949    698.166   1862.123    620.949    620.949
 29.670   1406.000   1388.548     17.452    620.756    666.589   1342.878    620.756    620.756
 29.770   1116.206   1091.362     24.844    620.567    649.617   1062.397    620.567    620.567
 29.870    947.442    942.596      4.846    620.380    641.210    921.812    620.380    620.380
 29.970    833.376    865.134    -31.759    620.197    636.929    848.429    620.197    620.197
 30.070    861.000    818.997     42.003    620.017    634.483    804.548    620.017    620.017
 30.170    813.000    787.503     25.497    619.840    632.932    774.424    619.840    619.840
 30.270    807.000    764.265     42.735    619.665    631.942    751.997    619.665    619.665
 30.370    725.500    746.665    -21.165    619.494    631.431    734.734    619.494    619.494
 30.470    750.153    733.599     16.555    619.326    631.497    721.431    619.326    619.326
 30.570    706.758    724.997    -18.239    619.161    632.499    711.659    619.161    619.161
 30.670    769.000    721.926     47.074    618.999    635.208    705.712    618.999    618.999
 30.770    788.000    726.521     61.479    618.840    640.818    704.529    618.840    618.840
 30.870    743.000    740.995      2.005    618.684    650.507    709.146    618.684    618.684
 30.970    752.904    765.297    -12.393    618.531    664.361    719.424    618.531    618.531
 31.070    830.000    793.870     36.130    618.381    679.864    732.328    618.381    618.381
 31.170    889.000    813.817     75.183    618.233    691.049    740.935    618.233    618.233
 31.270    812.000    811.199      0.801    618.089    691.447    737.780    618.089    618.089
 31.370    821.000    784.982     36.018    617.947    680.612    722.271    617.947    617.947
 31.470    748.000    748.328     -0.328    617.808    664.731    701.374    617.808    617.808
 31.570    687.237    714.589    -27.352    617.672    650.075    682.168    617.672    617.672
 31.670    675.610    689.755    -14.146    617.539    639.468    667.816    617.539    617.539
 31.770    686.000    673.949     12.051    617.409    632.986    658.366    617.409    617.409
 31.870    720.000    664.667     55.333    617.281    629.474    652.472    617.281    617.281
 31.970    695.000    659.214     35.786    617.157    627.683    648.685    617.157    617.157
 32.070    607.188    655.755    -48.567    617.035    626.768    646.020    617.035    617.035
 32.170    652.821    653.332     -0.511    616.915    626.291    643.955    616.915    616.915
 32.270    677.086    651.526     25.560    616.799    626.066    642.258    616.799    616.799
 32.370    596.751    650.162    -53.411    616.685    626.020    640.826    616.685    616.685
 32.470    649.764    649.164      0.600    616.574    626.126    639.611    616.574    616.574
 32.570    670.168    648.499     21.669    616.465    626.380    638.585    616.465    616.465
 32.670    711.000    648.159     62.841    616.359    626.786    637.733    616.359    616.359
 32.770    609.008    648.154    -39.146    616.256    627.361    637.048    616.256    616.256
 32.870    662.000    648.511     13.489    616.155    628.133    636.533    616.155    616.155
 32.970    675.000    649.282     25.718    616.057    629.143    636.196    616.057    616.057
 33.070    607.146    650.545    -43.399    615.962    630.448    636.058    615.962    615.962
 33.170    635.751    652.421    -16.670    615.869    632.137    636.152    615.869    615.869
 33.270    696.936    655.098     41.839    615.779    634.341    636.535    615.779    615.779
 33.370    671.000    658.907     12.093    615.691    637.290    637.307    615.691    615.691
 33.470    665.527    664.527      1.000    615.606    641.451    638.681    615.606    615.606
 33.570    665.000    673.488     -8.488    615.523    647.870    641.139    615.523    615.523
 33.670    658.136    689.153    -31.017    615.443    658.849    645.743    615.443    615.443
 33.770    674.504    718.014    -43.510    615.365    678.825    654.549    615.365    615.365
 33.870    735.000    770.150    -35.150    615.289    714.685    670.745    615.289    615.289
 33.970    887.646    856.691     30.955    615.216    774.037    697.855    615.216    615.216
 34.070    938.000    982.700    -44.700    615.146    860.342    737.482    615.146    615.146
 34.170   1147.034   1136.265     10.769    615.078    965.463    785.853    615.078    615.078
 34.270   1334.495   1276.703     57.792    615.012   1061.608    830.085    615.012    615.012
 34.370   1377.888   1336.849     41.039    614.948   1102.884    848.907    614.948    614.948
 34.470   1243.000   1276.825    -33.825    614.887   1062.040    829.690    614.887    614.887
 34.570   1101.614   1136.070    -34.456    614.829    966.015    784.916    614.829    614.829
 34.670   1047.410    981.743     65.667    614.772    860.697    735.852    614.772    614.772
 34.770    815.000    854.748    -39.748    614.718    774.040    695.454    614.718    614.718
 34.870    768.000    767.181      0.819    614.666    714.313    667.553    614.666    614.666
 34.970    729.000    714.071     14.929    614.617    678.123    650.577    614.617    614.617
 35.070    717.000    684.305     32.695    614.570    657.877    641.005    614.570    614.570
 35.170    726.000    667.781     58.219    614.524    646.671    635.638    614.524    614.524
 35.270    630.470    657.976    -27.506    614.482    640.050    632.411    614.482    614.482
 35.370    754.000    651.502    102.498    614.441    635.695    630.249    614.441    614.441
 35.470    689.000    646.812     42.188    614.402    632.552    628.664    614.402    614.402
 35.570    670.000    643.219     26.781    614.366    630.148    627.438    614.366    614.366
 35.670    609.039    640.381    -31.342    614.332    628.252    626.462    614.332    614.332
 35.770    665.318    638.101     27.217    614.300    626.726    625.676    614.300    614.300
 35.870    608.036    636.250    -28.214    614.270    625.483    625.038    614.270    614.270
 35.970    649.000    634.735     14.265    614.242    624.458    624.521    614.242    614.242
 36.070    591.000    633.492    -42.492    614.217    623.606    624.104    614.217    614.217
 36.170    616.000    632.474    -16.474    614.193    622.892    623.775    614.193    614.193
 36.270    670.150    631.644     38.505    614.171    622.292    623.525    614.171    614.171
 36.370    639.000    630.980      8.020    614.152    621.785    623.347    614.152    614.152
 36.470    585.499    630.463    -44.964    614.134    621.358    623.240    614.134    614.134
 36.570    593.993    630.084    -36.091    614.119    620.999    623.205    614.119    614.119
 36.670    631.000    629.838      1.162    614.105    620.700    623.244    614.105    614.105
 36.770    634.000    629.727      4.273    614.094    620.455    623.366    614.094    614.094
 36.870    619.000    629.760    -10.760    614.084    620.263    623.582    614.084    614.084
 36.970    624.000    629.953     -5.953    614.076    620.121    623.909    614.076    614.076
 37.070    655.000    630.335     24.665    614.071    620.036    624.370    614.071    614.071
 37.170    661.000    630.957     30.043    614.067    620.021    625.004    614.067    614.067
 37.270    644.041    631.913     12.128    614.065    620.111    625.868    614.065    614.065
 37.370    613.000    633.383    -20.383    614.065    620.378    627.071    614.065    614.065
 37.470    622.000    635.722    -13.722    614.067    620.950    628.840    614.067    614.067
 37.570    652.000    639.597     12.403    614.070    622.019    631.650    614.070    614.070
 37.670    668.138    646.157     21.981    614.076    623.785    636.450    614.076    614.076
 37.770    632.695    657.139    -24.445    614.083    626.353    644.871    614.083    614.083
 37.870    650.870    674.647    -23.777    614.092    629.554    659.189    614.092    614.092
 37.970    725.000    700.290     24.710    614.103    632.735    681.663    614.103    614.103
 38.070    783.458    733.718     49.741    614.116    634.741    713.100    614.116    614.116
 38.170    775.000    771.274      3.726    614.130    634.633    750.782    614.130    614.130
 38.270    757.793    804.694    -46.902    614.146    632.624    786.232    614.146    614.146
 38.370    777.000    821.039    -44.039    614.164    629.691    805.533    614.164    614.164
 38.470    795.000    810.913    -15.913    614.184    626.689    798.432    614.184    614.184
 38.570    731.000    779.037    -48.037    614.205    624.118    769.149    614.205    614.205
 38.670    740.000    739.152      0.848    614.228    622.185    731.216    614.228    614.228
 38.770    731.000    702.622     28.378    614.252    620.872    696.018    614.252    614.252
 38.870    642.058    674.666    -32.608    614.279    620.043    668.913    614.279    614.279
 38.970    653.000    655.832     -2.832    614.306    619.541    650.605    614.306    614.306
 39.070    584.000    644.266    -60.266    614.336    619.244    639.363    614.336    614.336
 39.170    632.000    637.514     -5.514    614.367    619.068    632.816    614.367    614.367
 39.270    611.000    633.552    -22.552    614.399    618.965    628.989    614.399    614.399
 39.370    588.665    631.083    -42.418    614.434    618.907    626.612    614.434    614.434
 39.470    618.000    629.405    -11.405    614.469    618.878    624.998    614.469    614.469
 39.570    607.000    628.175    -21.175    614.506    618.870    623.813    614.506    614.506
 39.670    608.538    627.228    -18.691    614.545    618.878    622.897    614.545    614.545
 39.770    611.889    626.486    -14.597    614.585    618.905    622.168    614.585    614.585
 39.870    638.000    625.896     12.104    614.627    618.946    621.578    614.627    614.627
 39.970    638.000    625.423     12.577    614.670    618.999    621.095    614.670    614.670
 40.070    624.000    625.045     -1.045    614.715    619.064    620.696    614.715    614.715
 40.170    604.000    624.744    -20.744    614.761    619.140    620.365    614.761    614.761
 40.270    605.000    624.507    -19.507    614.808    619.228    620.088    614.808    614.808
 40.370    649.000    624.325     24.675    614.857    619.327    619.856    614.857    614.857
 40.470    635.000    624.191     10.809    614.908    619.437    619.662    614.908    614.908
 40.570    630.651    624.099      6.553    614.959    619.560    619.498    614.959    614.959
 40.670    620.631    624.045     -3.414    615.012    619.697    619.362    615.012    615.012
 40.770    593.000    624.028    -31.028    615.067    619.848    619.248    615.067    615.067
 40.870    605.000    624.045    -19.045    615.122    620.015    619.153    615.122    615.122
 40.970    621.563    624.097     -2.534    615.179    620.201    619.077    615.179    615.179
 41.070    599.000    624.184    -25.184    615.238    620.408    619.015    615.238    615.238
 41.170    602.760    624.308    -21.548    615.297    620.639    618.968    615.297    615.297
 41.270    635.000    624.472     10.528    615.358    620.899    618.933    615.358    615.358
 41.370    610.000    624.681    -14.681    615.420    621.193    618.909    615.420    615.420
 41.470    578.741    624.941    -46.200    615.483    621.529    618.896    615.483    615.483
 41.570    642.412    625.261     17.151    615.548    621.916    618.894    615.548    615.548
 41.670    589.000    625.654    -36.654    615.614    622.368    618.902    615.614    615.614
 41.770    574.604    626.139    -51.535    615.681    622.902    618.920    615.681    615.681
 41.870    634.401    626.744      7.657    615.749    623.547    618.948    615.749    615.749
 41.970    630.000    627.518      2.482    615.818    624.350    618.989    615.818    615.818
 42.070    669.773    628.557     41.216    615.889    625.403    619.045    615.889    615.889
 42.170    678.764    630.054     48.710    615.960    626.895    619.124    615.960    615.960
 42.270    660.000    632.390     27.610    616.033    629.188    619.239    616.033    616.033
 42.370    654.000    636.234     17.766    616.107    632.930    619.417    616.107    616.107
 42.470    655.892    642.601     13.291    616.181    639.096    619.696    616.181    616.181
 42.570    634.000    652.717    -18.717    616.257    648.865    620.123    616.257    616.257
 42.670    666.108    667.586     -1.478    616.334    663.204    620.737    616.334    616.334
 42.770    660.000    687.242    -27.242    616.412    682.146    621.538    616.412    616.412
 42.870    673.000    709.796    -36.796    616.491    703.874    622.455    616.491    616.491
 42.970    684.000    730.500    -46.500    616.572    723.821    623.303    616.572    616.572
 43.070    706.000    742.155    -36.155    616.653    735.062    623.807    616.653    616.653
 43.170    795.076    739.400     55.677    616.735    732.439    623.758    616.735    616.735
 43.270    750.000    723.762     26.238    616.818    717.419    623.217    616.818    616.818
 43.370    725.000    701.947     23.053    616.902    696.453    622.441    616.902    616.902
 43.470    641.000    680.376    -39.376    616.987    675.719    621.677    616.987    616.987
 43.570    633.171    662.651    -29.481    617.072    658.684    621.063    617.072    617.072
 43.670    652.000    649.845      2.155    617.159    646.378    620.642    617.159    617.159
 43.770    651.000    641.471      9.529    617.247    638.334    620.393    617.247    617.247
 43.870    589.000    636.381    -47.381    617.335    633.449    620.274    617.335    617.335
 43.970    597.654    633.404    -35.750    617.425    630.595    620.239    617.425    617.425
 44.070    636.000    631.653      4.347    617.515    628.918    620.253    617.515    617.515
 44.170    578.000    630.576    -52.576    617.606    627.889    620.296    617.606    617.606
 44.270    656.078    629.873     26.205    617.698    627.217    620.356    617.698    617.698
 44.370    637.000    629.393      7.607    617.791    626.759    620.427    617.791    617.791
 44.470    650.000    629.060     20.940    617.884    626.440    620.506    617.884    617.884
 44.570    632.000    628.835      3.165    617.979    626.223    620.592    617.979    617.979
 44.670    633.000    628.692      4.308    618.074    626.083    620.684    618.074    618.074
 44.770    616.000    628.616    -12.616    618.169    626.006    620.781    618.169    618.169
 44.870    698.000    628.595     69.405    618.266    625.980    620.882    618.266    618.266
 44.970    627.000    628.620     -1.620    618.363    625.995    620.989    618.363    618.363
 45.070    661.763    628.685     33.078    618.461    626.047    621.100    618.461    618.461
 45.170    617.737    628.785    -11.048    618.560    626.131    621.215    618.560    618.560
 45.270    618.000    628.916    -10.916    618.659    626.242    621.334    618.659    618.659
 45.370    645.795    629.077     16.719    618.759    626.379    621.458    618.759    618.759
 45.470    637.000    629.265      7.735    618.860    626.539    621.586    618.860    618.860
 45.570    608.059    629.479    -21.420    618.961    626.722    621.719    618.961    618.961
 45.670    638.000    629.719      8.281    619.063    626.926    621.856    619.063    619.063
 45.770    684.000    629.984     54.016    619.166    627.152    621.998    619.166    619.166
 45.870    674.975    630.275     44.700    619.269    627.399    622.146    619.269    619.269
 45.970    648.000    630.594     17.406    619.373    627.668    622.299    619.373    619.373
 46.070    606.000    630.940    -24.940    619.477    627.960    622.457    619.477    619.477
 46.170    599.000    631.317    -32.317    619.582    628.276    622.623    619.582    619.582
 46.270    628.000    631.727     -3.727    619.687    628.619    622.795    619.687    619.687
 46.370    620.000    632.173    -12.173    619.793    628.992    622.974    619.793    619.793
 46.470    659.000    632.660     26.340    619.899    629.397    623.162    619.899    619.899
 46.570    650.000    633.192     16.808    620.006    629.839    623.359    620.006    620.006
 46.670    662.000    633.777     28.223    620.114    630.323    623.567    620.114    620.114
 46.770    639.000    634.422      4.578    620.222    630.857    623.787    620.222    620.222
 46.870    629.000    635.140     -6.140    620.330    631.450    624.020    620.330    620.330
 46.970    636.000    635.947      0.053    620.439    632.115    624.269    620.439    620.439
 47.070    627.000    636.865     -9.865    620.548    632.875    624.537    620.548    620.548
 47.170    625.000    637.938    -12.938    620.658    633.764    624.831    620.658    620.658
 47.270    641.058    639.243      1.815    620.768    634.849    625.159    620.768    620.768
 47.370    664.000    640.924     23.076    620.878    636.259    625.539    620.878    620.878
 47.470    633.000    643.244    -10.244    620.989    638.225    626.004    620.989    620.989
 47.570    626.444    646.634    -20.190    621.100    641.123    626.605    621.100    621.100
 47.670    658.000    651.705      6.295    621.212    645.494    627.413    621.212    621.212
 47.770    658.949    659.169     -0.220    621.324    651.963    628.515    621.324    621.324
 47.870    665.000    669.613     -4.613    621.436    661.048    629.981    621.436    621.436
 47.970    703.000    683.135     19.865    621.548    672.831    631.824    621.548    621.548
 48.070    709.060    698.893     10.167    621.661    686.568    633.949    621.661    621.661
 48.170    685.000    714.655    -29.655    621.774    700.285    636.098    621.774    621.774
 48.270    745.000    726.703     18.297    621.887    710.697    637.842    621.887    621.887
 48.370    733.000    731.089      1.911    622.001    714.313    638.725    622.001    622.001
 48.470    768.000    726.520     41.480    622.115    709.987    638.602    622.115    622.115
 48.570    718.000    715.698      2.302    622.229    700.094    637.795    622.229    622.229
 48.670    705.518    702.908      2.610    622.343    688.409    636.814    622.343    622.343
 48.770    707.921    691.435     16.486    622.458    677.819    636.053    622.458    622.458
 48.870    655.571    682.990    -27.419    622.573    669.820    635.728    622.573    622.573
 48.970    657.865    678.076    -20.211    622.687    664.838    635.915    622.687    622.687
 49.070    730.124    676.472     53.652    622.803    662.652    636.615    622.803    622.803
 49.170    682.000    677.666      4.334    622.918    662.776    637.802    622.918    622.918
 49.270    630.000    681.211    -51.211    623.033    664.764    639.475    623.033    623.033
 49.370    690.000    686.984      3.016    623.149    668.418    641.710    623.149    623.149
 49.470    667.000    695.479    -28.479    623.264    673.990    644.748    623.264    623.264
 49.570    646.000    708.399    -62.399    623.380    682.571    649.201    623.380    623.380
 49.670    707.000    729.897    -22.897    623.496    696.904    656.477    623.496    623.496
 49.770    782.821    768.736     14.085    623.612    722.814    669.513    623.612    623.612
 49.870    828.000    840.894    -12.894    623.728    770.950    693.632    623.728    623.728
 49.970    968.000    970.723     -2.723    623.844    857.640    736.857    623.844    623.844
 50.070   1197.000   1188.240      8.760    623.960   1002.665    809.423    623.960    623.960
 50.170   1488.000   1517.032    -29.032    624.076   1221.797    919.154    624.076    624.076
 50.270   1850.000   1956.395   -106.395    624.192   1514.616   1065.779    624.192    624.192
 50.370   2433.000   2462.321    -29.321    624.308   1851.825   1234.610    624.308    624.308
 50.470   3003.120   2938.115     65.005    624.424   2169.028   1393.371    624.424    624.424
 50.570   3254.000   3249.514      4.486    624.540   2376.795   1497.231    624.540    624.540
 50.670   3331.000   3282.984     48.016    624.656   2399.498   1508.252    624.656    624.656
 50.770   3066.313   3024.808     41.505    624.772   2228.012   1421.783    624.772    624.772
 50.870   2504.323   2573.663    -69.340    624.888   1928.141   1270.666    624.888    624.888
 50.970   2110.000   2067.356     42.644    625.004   1591.821   1100.780    625.004    625.004
 51.070   1588.000   1613.665    -25.665    625.119   1291.016    947.963    625.119    625.119
 51.170   1216.000   1267.732    -51.732    625.235   1062.597    830.511    625.235    625.235
 51.270   1058.000   1037.846     20.154    625.351    912.116    751.178    625.351    625.351
 51.370    932.728    903.192     29.536    625.466    825.531    703.193    625.466    625.466
 51.470    895.000    832.864     62.136    625.581    781.781    676.713    625.581    625.581
 51.570    816.000    798.688     17.312    625.697    761.263    663.164    625.697    625.697
 51.670    820.216    780.521     39.695    625.812    749.521    656.849    625.812    625.812
 51.770    812.000    767.201     44.799    625.926    738.464    654.695    625.926    625.926
 51.870    758.945    755.107      3.838    626.041    725.890    655.283    626.041    626.041
 51.970    759.000    744.598     14.402    626.156    712.864    657.906    626.156    626.156
 52.070    734.000    736.655     -2.655    626.270    701.016    661.917    626.270    626.270
 52.170    705.456    731.389    -25.932    626.384    691.418    666.355    626.384    626.384
 52.270    703.000    727.807    -24.807    626.498    684.464    669.837    626.498    626.498
 52.370    755.000    724.289     30.711    626.611    680.044    670.851    626.611    626.611
 52.470    739.837    719.679     20.158    626.725    677.785    668.613    626.725    626.725
 52.570    715.000    714.139      0.861    626.838    677.277    663.696    626.838    626.838
 52.670    797.000    708.779     88.221    626.951    678.236    657.492    626.951    626.951
 52.770    704.000    704.874     -0.874    627.063    680.610    651.327    627.063    627.063
 52.870    731.000    703.568     27.432    627.176    684.679    646.066    627.176    627.176
 52.970    750.000    706.011     43.989    627.288    691.208    642.093    627.288    627.288
 53.070    762.696    713.706     48.990    627.399    701.675    639.431    627.399    627.399
 53.170    727.686    728.940     -1.254    627.510    718.545    637.906    627.510    627.510
 53.270    777.000    755.030     21.970    627.621    745.362    637.289    627.621    627.621
 53.370    802.000    796.063      5.937    627.732    786.475    637.321    627.732    627.732
 53.470    852.000    856.337     -4.337    627.842    846.097    638.082    627.842    627.842
 53.570    903.496    938.123    -34.627    627.952    926.593    639.484    627.952    627.952
 53.670   1051.801   1039.599     12.202    628.062   1026.278    641.388    628.062    628.062
 53.770   1186.000   1152.461     33.539    628.171   1137.057    643.586    628.171    628.171
 53.870   1297.607   1259.805     37.802    628.279   1242.397    645.709    628.279    628.279
 53.970   1369.260   1336.577     32.683    628.388   1317.774    647.226    628.388    628.388
 54.070   1417.117   1357.941     59.176    628.496   1338.871    647.612    628.496    628.496
 54.170   1302.000   1315.637    -13.637    628.603   1297.601    646.692    628.603    628.603
 54.270   1277.000   1225.341     51.659    628.710   1209.314    644.789    628.710    628.710
 54.370   1076.681   1113.990    -37.309    628.817   1100.389    642.463    628.817    628.817
 54.470    964.755   1004.384    -39.629    628.923    993.155    640.189    628.923    628.923
 54.570    916.000    910.162      5.838    629.028    900.969    638.249    629.028    629.028
 54.670    894.000    836.927     57.073    629.133    829.322    636.759    629.133    629.133
 54.770    785.056    784.612      0.444    629.238    778.147    635.717    629.238    629.238
 54.870    750.000    749.867      0.133    629.342    744.165    635.053    629.342    629.342
 54.970    723.000    728.162     -5.162    629.445    722.943    634.672    629.445    629.445
 55.070    707.000    715.266     -8.266    629.548    710.336    634.485    629.548    629.548
 55.170    730.828    707.948     22.880    629.651    703.179    634.425    629.651    629.651
 55.270    685.560    704.078    -18.518    629.753    699.388    634.447    629.753    629.753
 55.370    712.000    702.414      9.586    629.854    697.746    634.527    629.854    629.854
 55.470    720.000    702.307     17.693    629.955    697.615    634.651    629.955    629.955
 55.570    656.000    703.457    -47.457    630.055    698.702    634.814    630.055    630.055
 55.670    706.252    705.772      0.480    630.154    700.914    635.016    630.154    630.154
 55.770    742.475    709.292     33.183    630.253    704.287    635.261    630.253    630.253
 55.870    695.000    714.188    -19.188    630.352    708.987    635.556    630.352    630.352
 55.970    686.321    720.828    -34.507    630.449    715.366    635.915    630.449    630.449
 56.070    712.000    729.947    -17.947    630.546    724.131    636.366    630.546    630.546
 56.170    753.000    742.962     10.038    630.643    736.647    636.961    630.643    630.643
 56.270    736.058    762.511    -26.452    630.739    755.455    637.796    630.739    630.739
 56.370    754.000    793.167    -39.167    630.834    784.961    639.041    630.834    630.834
 56.470    796.000    842.163    -46.163    630.928    832.131    640.958    630.928    630.928
 56.570    939.364    919.653     19.711    631.022    906.748    643.919    631.022    631.022
 56.670    985.000   1037.863    -52.863    631.115   1020.592    648.373    631.115    631.115
 56.770   1140.000   1208.490    -68.490    631.207   1184.934    654.746    631.207    631.207
 56.870   1481.191   1438.261     42.930    631.299   1406.256    663.285    631.299    631.299
 56.970   1673.131   1723.353    -50.222    631.390   1680.878    673.851    631.390    631.390
 57.070   2043.000   2043.936     -0.936    631.480   1989.701    685.722    631.480    631.480
 57.170   2448.000   2360.050     87.950    631.569   2294.223    697.440    631.569    631.569
 57.270   2661.000   2611.815     49.185    631.658   2536.753    706.820    631.658    631.658
 57.370   2825.000   2733.368     91.632    631.746   2653.827    711.457    631.746    631.746
 57.470   2719.972   2686.476     33.496    631.833   2608.587    709.959    631.833    631.833
 57.570   2573.000   2487.599     85.401    631.919   2416.866    702.928    631.919    631.919
 57.670   2232.913   2194.883     38.030    632.005   2134.673    692.493    632.005    632.005
 57.770   1837.000   1873.165    -36.165    632.090   1824.475    681.032    632.090    632.090
 57.870   1548.000   1571.702    -23.702    632.174   1533.723    670.361    632.174    632.174
 57.970   1276.000   1319.155    -43.155    632.257   1290.012    661.562    632.257    632.257
 58.070   1067.000   1126.282    -59.282    632.339   1103.641    655.097    632.339    632.339
 58.170    987.000    991.065     -4.065    632.421    972.538    651.027    632.421    632.421
 58.270    891.235    904.569    -13.334    632.501    887.868    649.252    632.501    632.501
 58.370    836.000    856.193    -20.193    632.581    839.067    649.735    632.581    632.581
 58.470    787.364    837.184    -49.820    632.660    817.228    652.627    632.660    632.660
 58.570    800.528    842.036    -41.508    632.738    816.521    658.251    632.738    632.738
 58.670    820.000    868.112    -48.112    632.815    833.982    666.931    632.815    632.815
 58.770    853.790    914.187    -60.397    632.891    868.328    678.725    632.891    632.891
 58.870    984.000    978.598      5.402    632.967    918.409    693.122    632.967    632.967
 58.970   1083.000   1057.557     25.443    633.041    981.736    708.824    633.041    633.041
 59.070   1132.000   1144.058    -12.058    633.115   1053.426    723.710    633.115    633.115
 59.170   1253.626   1228.275     25.351    633.187   1126.228    735.208    633.187    633.187
 59.270   1292.000   1300.280     -8.280    633.259   1192.294    741.234    633.259    633.259
 59.370   1386.311   1353.222     33.089    633.330   1245.393    741.167    633.330    633.330
 59.470   1372.000   1383.369    -11.369    633.399   1280.978    735.818    633.399    633.399
 59.570   1299.000   1388.444    -89.444    633.468   1295.396    726.559    633.468    633.468
 59.670   1297.000   1369.289    -72.289    633.536   1288.066    714.810    633.536    633.536
 59.770   1378.000   1333.446     44.554    633.603   1265.038    702.059    633.603    633.603
 59.870   1311.000   1294.268     16.732    633.669   1238.216    689.750    633.669    633.669
 59.970   1278.000   1265.467     12.533    633.734   1220.264    678.936    633.734    633.734
 60.070   1323.000   1256.601     66.399    633.798   1220.277    670.081    633.798    633.798
 60.170   1292.000   1272.265     19.735    633.860   1242.868    663.172    633.860    633.860
 60.270   1273.000   1313.735    -40.735    633.922   1289.562    657.963    633.922    633.922
 60.370   1453.000   1379.517     73.483    633.983   1359.156    654.166    633.983    633.983
 60.470   1475.000   1462.842     12.158    634.043   1445.150    651.516    634.043    634.043
 60.570   1535.077   1548.930    -13.853    634.102   1533.011    649.775    634.102    634.102
 60.670   1558.093   1615.430    -57.337    634.159   1600.601    648.736    634.159    634.159
 60.770   1664.000   1638.205     25.795    634.216   1623.948    648.240    634.216    634.216
 60.870   1613.476   1602.725     10.751    634.272   1588.627    648.175    634.272    634.272
 60.970   1551.000   1512.924     38.076    634.326   1498.632    648.473    634.326    634.326
 61.070   1411.555   1387.869     23.685    634.380   1373.049    649.100    634.380    634.380
 61.170   1248.000   1250.839     -2.839    634.432   1235.143    650.064    634.432    634.432
 61.270   1119.000   1121.259     -2.259    634.483   1104.269    651.435    634.483    634.483
 61.370    937.000   1011.977    -74.977    634.534    993.110    653.377    634.534    634.534
 61.470    877.000    929.513    -52.513    634.583    907.865    656.213    634.583    634.583
 61.570    875.157    875.697     -0.539    634.631    849.793    660.515    634.631    634.631
 61.670    853.735    849.936      3.799    634.678    817.386    667.202    634.678    634.678
 61.770    848.000    851.460     -3.460    634.723    808.527    677.618    634.723    634.723
 61.870    875.000    880.788     -5.788    634.768    821.991    693.510    634.768    634.768
 61.970    974.624    939.984     34.640    634.811    857.887    716.829    634.811    634.811
 62.070    985.863   1031.559    -45.697    634.853    917.004    749.301    634.853    634.853
 62.170   1148.000   1156.330     -8.330    634.895    999.317    791.768    634.895    634.895
 62.270   1297.792   1310.806    -13.014    634.935   1102.137    843.431    634.935    634.935
 62.370   1459.000   1484.808    -25.808    634.973   1218.415    901.166    634.973    634.973
 62.470   1688.000   1659.905     28.095    635.011   1335.623    959.077    635.011    635.011
 62.570   1745.000   1809.562    -64.562    635.047   1435.810   1008.587    635.047    635.047
 62.670   1904.521   1903.302      1.220    635.083   1498.384   1039.813    635.083    635.083
 62.770   1836.713   1917.353    -80.640    635.117   1507.286   1045.040    635.117    635.117
 62.870   1881.000   1847.473     33.527    635.149   1459.628   1022.898    635.149    635.149
 62.970   1644.000   1711.790    -67.790    635.181   1367.621    979.296    635.181    635.181
 63.070   1536.000   1540.127     -4.127    635.211   1251.369    923.946    635.211    635.211
 63.170   1320.000   1361.156    -41.156    635.241   1130.205    866.187    635.241    635.241
 63.270   1208.581   1196.010     12.571    635.269   1018.381    812.904    635.269    635.269
 63.370   1060.343   1057.111      3.232    635.295    924.268    768.147    635.295    635.295
 63.470    894.221    949.144    -54.923    635.321    851.026    733.447    635.321    635.321
 63.570    855.394    871.089    -15.695    635.345    797.962    708.477    635.345    635.345
 63.670    859.146    818.412     40.734    635.368    762.017    691.764    635.368    635.368
 63.770    799.858    785.383     14.475    635.389    739.328    681.443    635.389    635.389
 63.870    802.518    766.727     35.791    635.410    726.339    675.793    635.410    635.410
 63.970    807.000    758.576     48.424    635.429    720.438    673.559    635.429    635.429
 64.070    814.000    758.838     55.162    635.447    720.184    674.089    635.447    635.447
 64.170    769.000    767.200      1.800    635.463    725.274    677.373    635.463    635.463
 64.270    841.226    784.937     56.290    635.479    736.347    684.046    635.479    635.479
 64.370    739.000    814.596    -75.596    635.493    754.700    695.357    635.493    635.493
 64.470    868.000    859.504      8.496    635.505    781.884    713.081    635.505    635.505
 64.570    919.000    923.007     -4.007    635.517    819.183    739.280    635.517    635.517
 64.670   1005.000   1007.421     -2.421    635.527    866.987    775.882    635.527    635.527
 64.770   1173.817   1112.745     61.073    635.536    924.136    824.045    635.536    635.536
 64.870   1180.259   1235.298    -55.039    635.543    987.309    883.414    635.543    635.543
 64.970   1348.000   1366.570    -18.570    635.549   1050.586    951.401    635.549    635.549
 65.070   1520.000   1492.808     27.192    635.554   1105.589   1022.636    635.554    635.554
 65.170   1609.000   1596.377     12.623    635.557   1143.029   1088.777    635.557    635.557
 65.270   1755.000   1659.676     95.324    635.559   1155.977   1139.153    635.559    635.559
 65.370   1663.013   1670.667     -7.654    635.560   1142.912   1163.245    635.560    635.560
 65.470   1611.219   1627.653    -16.434    635.559   1108.071   1155.109    635.559    635.559
 65.570   1618.921   1540.459     78.462    635.557   1059.288   1116.732    635.557    635.557
 65.670   1449.000   1426.345     22.655    635.554   1005.105   1056.826    635.554    635.554
 65.770   1250.936   1303.348    -52.411    635.549    952.506    986.442    635.549    635.549
 65.870   1214.215   1185.503     28.711    635.543    905.797    915.310    635.543    635.543
 65.970   1065.000   1081.281    -16.281    635.535    866.531    850.350    635.535    635.535
 66.070    984.000    994.141    -10.141    635.526    834.204    795.525    635.526    635.526
 66.170    820.000    924.131   -104.131    635.516    807.451    752.251    635.516    635.516
 66.270    861.000    869.601     -8.601    635.504    785.116    720.036    635.504    635.504
 66.370    785.000    828.286    -43.286    635.491    766.585    697.229    635.491    635.491
 66.470    771.000    797.772    -26.772    635.477    751.563    681.715    635.477    635.477
 66.570    746.000    775.776    -29.776    635.461    739.825    671.433    635.461    635.461
 66.670    682.000    760.359    -78.359    635.443    731.145    664.672    635.443    635.443
 66.770    680.000    750.036    -70.036    635.425    725.304    660.167    635.425    635.425
 66.870    733.175    743.760    -10.584    635.404    722.106    657.066    635.404    635.404
 66.970    662.000    740.859    -78.859    635.383    721.411    654.837    635.383    635.383
 67.070    719.000    741.004    -22.004    635.360    723.197    653.173    635.360    635.360
 67.170    743.839    744.244     -0.405    635.335    727.678    651.907    635.335    635.335
 67.270    733.000    751.132    -18.132    635.309    735.481    650.966    635.309    635.309
 67.370    769.000    762.924      6.076    635.282    747.877    650.335    635.282    635.282
 67.470    744.000    781.834    -37.834    635.253    767.041    650.052    635.253    635.253
 67.570    779.000    811.280    -32.280    635.223    796.307    650.201    635.223    635.223
 67.670    811.000    856.024    -45.024    635.191    840.304    650.914    635.191    635.191
 67.770    950.879    922.030     28.849    635.158    904.824    652.367    635.158    635.158
 67.870   1051.783   1015.877     35.906    635.123    996.251    654.753    635.123    635.123
 67.970   1075.230   1143.587    -68.357    635.087   1120.430    658.252    635.087    635.087
 68.070   1334.934   1308.918     26.016    635.050   1281.012    662.975    635.050    635.050
 68.170   1501.000   1511.338    -10.338    635.011   1477.489    668.899    635.011    635.011
 68.270   1733.000   1744.037    -11.037    634.970   1703.272    675.805    634.970    634.970
 68.370   1958.000   1992.319    -34.319    634.928   1944.131    683.230    634.928    634.928
 68.470   2192.000   2232.718    -40.718    634.884   2177.337    690.437    634.884    634.884
 68.570   2501.000   2433.756     67.244    634.839   2372.398    696.437    634.839    634.839
 68.670   2579.000   2560.785     18.215    634.793   2495.744    700.143    634.793    634.793
 68.770   2674.862   2586.947     87.915    634.745   2521.345    700.715    634.745    634.745
 68.870   2536.000   2505.980     30.020    634.696   2443.126    697.952    634.696    634.696
 68.970   2327.000   2335.896     -8.896    634.645   2278.528    692.417    634.645    634.645
 69.070   2214.000   2109.452    104.548    634.592   2059.292    685.131    634.592    634.592
 69.170   1871.000   1860.837     10.163    634.538   1818.546    677.165    634.538    634.538
 69.270   1616.892   1617.715     -0.823    634.483   1583.099    669.380    634.483    634.483
 69.370   1386.000   1398.942    -12.942    634.426   1371.226    662.368    634.426    634.426
 69.470   1274.000   1214.926     59.074    634.367   1193.017    656.451    634.367    634.367
 69.570   1132.000   1068.961     63.039    634.307   1051.665    651.733    634.307    634.307
 69.670   1078.000    959.058    118.942    634.245    945.247    648.151    634.245    634.245
 69.770    829.054    879.996    -50.943    634.182    868.711    645.535    634.182    634.182
 69.870    865.886    825.243     40.643    634.118    815.718    643.690    634.118    634.118
 69.970    898.000    788.370    109.630    634.052    780.043    642.413    634.052    634.052
 70.070    783.000    763.921     19.079    633.984    756.398    641.531    633.984    633.984
 70.170    718.000    747.734    -29.734    633.915    740.753    640.913    633.915    633.915
 70.270    789.807    736.900     52.907    633.844    730.289    640.469    633.844    633.844
 70.370    797.000    729.528     67.472    633.772    723.171    640.140    633.772    633.772
 70.470    706.834    724.465    -17.632    633.698    718.284    639.888    633.698    633.698
 70.570    732.000    721.047     10.953    633.623    714.983    639.694    633.623    633.623
 70.670    713.000    718.922     -5.922    633.546    712.925    639.547    633.546    633.546
 70.770    679.983    717.933    -37.950    633.467    711.960    639.443    633.467    633.467
 70.870    669.698    718.070    -48.373    633.387    712.076    639.383    633.387    633.387
 70.970    774.279    719.466     54.813    633.306    713.399    639.373    633.306    633.306
 71.070    689.000    722.432    -33.432    633.223    716.226    639.427    633.223    633.223
 71.170    762.783    727.537     35.245    633.138    721.103    639.568    633.138    633.138
 71.270    764.000    735.731     28.269    633.052    728.939    639.836    633.052    633.052
 71.370    779.000    748.476     30.524    632.964    741.137    640.291    632.964    632.964
 71.470    710.837    767.892    -57.054    632.875    759.729    641.019    632.875    632.875
 71.570    790.163    796.826     -6.663    632.784    787.444    642.139    632.784    632.784
 71.670    832.000    838.798     -6.798    632.692    827.656    643.794    632.692    632.692
 71.770    884.382    897.719    -13.337    632.598    884.115    646.146    632.598    632.598
 71.870    966.000    977.337    -11.337    632.502    960.416    649.347    632.502    632.502
 71.970   1038.000   1080.408    -42.408    632.405   1059.202    653.512    632.405    632.405
 72.070   1182.626   1207.673    -25.047    632.307   1181.181    658.673    632.307    632.307
 72.170   1307.000   1356.795    -49.795    632.207   1324.115    664.736    632.207    632.207
 72.270   1555.000   1521.428     33.572    632.105   1481.915    671.444    632.105    632.105
 72.370   1723.000   1690.536     32.464    632.002   1643.999    678.349    632.002    632.002
 72.470   1863.000   1848.186     14.814    631.897   1795.084    684.802    631.897    631.897
 72.570   2021.000   1974.500     46.500    631.790   1916.105    689.997    631.790    631.790
 72.670   2130.313   2049.151     81.162    631.682   1987.561    693.106    631.682    631.682
 72.770   2050.000   2057.843     -7.843    631.573   1995.734    693.549    631.573    631.573
 72.870   2020.000   1998.688     21.312    631.462   1938.801    691.252    631.462    631.462
 72.970   1895.366   1883.206     12.160    631.349   1827.807    686.686    631.349    631.349
 73.070   1751.822   1730.932     20.890    631.235   1681.485    680.647    631.235    631.235
 73.170   1578.000   1562.377     15.623    631.119   1519.517    673.964    631.119    631.119
 73.270   1374.000   1394.653    -20.653    631.001   1358.333    667.320    631.001    631.001
 73.370   1179.210   1240.016    -60.806    630.882   1209.711    661.194    630.882    630.882
 73.470   1102.110   1105.904     -3.793    630.762   1080.813    655.862    630.762    630.762
 73.570    998.414    995.545      2.869    630.640    974.762    651.432    630.640    630.640
 73.670    877.000    908.864    -31.864    630.516    891.496    647.891    630.516    630.516
 73.770    859.000    843.533     15.467    630.391    828.770    645.159    630.391    630.391
 73.870    783.438    796.023    -12.585    630.264    783.168    643.123    630.264    630.264
 73.970    769.000    762.476      6.524    630.136    750.947    641.667    630.136    630.136
 74.070    748.000    739.326      8.674    630.006    728.641    640.693    630.006    630.006
 74.170    744.000    723.632     20.368    629.874    713.385    640.124    629.874    629.874
 74.270    716.000    713.188      2.812    629.741    703.021    639.912    629.741    629.741
 74.370    760.000    706.467     53.533    629.607    696.043    640.036    629.607    629.607
 74.470    732.172    702.477     29.695    629.471    691.465    640.490    629.471    629.471
 74.570    677.934    700.598    -22.665    629.333    688.668    641.274    629.333    629.333
 74.670    729.000    700.431     28.569    629.194    687.258    642.382    629.194    629.194
 74.770    661.000    701.671    -40.671    629.053    686.955    643.789    629.053    629.053
 74.870    724.000    704.015     19.985    628.910    687.508    645.443    628.910    628.910
 74.970    710.000    707.102      2.898    628.766    688.644    647.256    628.766    628.766
 75.070    767.000    710.479     56.521    628.621    690.035    649.102    628.621    628.621
 75.170    750.000    713.584     36.416    628.474    691.285    650.815    628.474    628.474
 75.270    748.877    715.807     33.070    628.325    691.965    652.214    628.325    628.325
 75.370    762.523    716.625     45.897    628.175    691.703    653.147    628.175    628.175
 75.470    698.000    715.818    -17.818    628.023    690.325    653.565    628.023    628.023
 75.570    756.507    713.600     42.907    627.870    687.943    653.573    627.870    627.870
 75.670    679.765    710.583    -30.818    627.715    684.922    653.418    627.715    627.715
 75.770    752.000    707.612     44.388    627.559    681.761    653.446    627.559    627.559
 75.870    762.442    705.630     56.812    627.401    678.994    654.064    627.401    627.401
 75.970    743.000    705.613     37.387    627.241    677.146    655.729    627.241    627.241
 76.070    746.591    708.580     38.012    627.080    676.721    658.951    627.080    627.080
 76.170    725.000    715.577      9.423    626.918    678.209    664.289    626.918    626.918
 76.270    749.137    727.650     21.487    626.753    682.071    672.328    626.753    626.753
 76.370    774.572    745.760     28.811    626.588    688.711    683.624    626.588    626.588
 76.470    733.008    770.642    -37.634    626.421    698.422    698.618    626.421    626.421
 76.570    832.718    802.620     30.098    626.252    711.317    717.524    626.252    626.252
 76.670    870.782    841.404     29.377    626.082    727.240    740.205    626.082    626.082
 76.770    870.000    885.882    -15.882    625.910    745.690    766.052    625.910    625.910
 76.870    923.000    933.950    -10.950    625.737    765.742    793.887    625.737    625.737
 76.970    949.741    982.411    -32.670    625.562    786.016    821.894    625.562    625.562
 77.070    957.950   1026.961    -69.011    625.386    804.657    847.624    625.386    625.386
 77.170   1080.000   1062.465     17.535    625.208    819.462    868.147    625.208    625.208
 77.270   1026.053   1083.803    -57.750    625.028    828.234    880.538    625.028    625.028
 77.370   1017.000   1087.322    -70.322    624.848    829.409    882.710    624.848    624.848
 77.470   1075.594   1072.285      3.309    624.665    822.666    874.244    624.665    624.665
 77.570   1080.000   1041.211     38.789    624.481    809.080    856.582    624.481    624.481
 77.670   1099.000    998.791    100.209    624.296    790.654    832.412    624.296    624.296
 77.770    968.473    950.286     18.187    624.109    769.634    804.748    624.109    624.109
 77.870    904.000    900.378      3.622    623.921    748.020    776.271    623.921    623.921
 77.970    839.071    852.681    -13.611    623.731    727.356    749.052    623.731    623.731
 78.070    779.074    809.668    -30.594    623.540    708.699    724.508    623.540    623.540
 78.170    827.231    772.745     54.486    623.347    692.648    703.445    623.347    623.347
 78.270    721.000    742.414    -21.414    623.152    679.416    686.151    623.152    623.152
 78.370    720.300    718.468      1.831    622.957    668.916    672.510    622.957    622.957
 78.470    745.000    700.230     44.770    622.759    660.856    662.135    622.759    622.759
 78.570    716.346    686.770     29.576    622.561    654.838    654.493    622.561    622.561
 78.670    708.000    677.093     30.907    622.360    650.436    649.018    622.360    622.360
 78.770    644.000    670.277    -26.277    622.159    647.255    645.181    622.159    622.159
 78.870    636.117    665.541    -29.424    621.956    644.960    642.536    621.956    621.956
 78.970    678.000    662.278     15.722    621.751    643.291    640.738    621.751    621.751
 79.070    613.000    660.046    -47.046    621.545    642.057    639.534    621.545    621.545
 79.170    644.000    658.543    -14.543    621.338    641.128    638.752    621.338    621.338
 79.270    675.000    657.576     17.424    621.129    640.421    638.284    621.129    621.129
 79.370    634.000    657.037    -23.037    620.918    639.887    638.068    620.918    620.918
 79.470    604.000    656.875    -52.875    620.707    639.503    638.078    620.707    620.707
 79.570    619.000    657.088    -38.088    620.493    639.263    638.318    620.493    620.493
 79.670    706.000    657.716     48.284    620.279    639.177    638.817    620.279    620.279
 79.770    705.990    658.847     47.143    620.063    639.267    639.642    620.063    620.063
 79.870    695.354    660.624     34.730    619.845    639.566    640.902    619.845    619.845
 79.970    698.000    663.267     34.733    619.626    640.119    642.772    619.626    619.626
 80.070    655.000    667.103    -12.103    619.406    640.986    645.520    619.406    619.406
 80.170    697.000    672.602     24.398    619.185    642.243    649.539    619.185    619.185
 80.270    640.000    680.415    -40.415    618.961    643.986    655.384    618.961    618.961
 80.370    698.000    691.415      6.585    618.737    646.336    663.807    618.737    618.737
 80.470    734.000    706.710     27.290    618.511    649.442    675.767    618.511    618.511
 80.570    765.947    727.627     38.319    618.284    653.485    692.411    618.284    618.284
 80.670    795.659    755.634     40.025    618.055    658.667    715.004    618.055    618.055
 80.770    755.577    792.194    -36.617    617.825    665.204    744.792    617.825    617.825
 80.870    864.000    838.562     25.438    617.594    673.314    782.815    617.594    617.594
 80.970    933.000    895.534     37.466    617.362    683.202    829.663    617.362    617.362
 81.070   1030.000    963.177     66.823    617.128    695.048    885.224    617.128    617.128
 81.170   1034.000   1040.539     -6.539    616.892    708.962    948.439    616.892    616.892
 81.270   1168.260   1125.376     42.883    616.655    724.915   1017.091    616.655    616.655
 81.370   1363.000   1213.977    149.023    616.417    742.666   1087.711    616.417    616.417
 81.470   1392.000   1301.169     90.831    616.178    761.706   1155.636    616.178    616.178
 81.570   1310.450   1380.667    -70.217    615.937    781.266   1215.352    615.937    615.937
 81.670   1542.000   1445.874     96.126    615.695    800.377   1261.226    615.695    615.695
 81.770   1499.886   1491.079      8.807    615.452    818.008   1288.579    615.452    615.452
 81.870   1564.000   1512.598     51.402    615.208    833.197   1294.687    615.208    615.208
 81.970   1626.000   1509.392    116.608    614.962    845.197   1279.255    614.962    614.962
 82.070   1590.000   1482.918    107.082    614.715    853.529   1244.218    614.715    614.715
 82.170   1521.000   1436.561     84.439    614.466    857.933   1193.222    614.466    614.466
 82.270   1494.000   1375.168    118.832    614.216    858.418   1131.103    614.216    614.216
 82.370   1361.000   1304.198     56.802    613.965    855.135   1063.168    613.965    613.965
 82.470   1188.500   1228.827    -40.327    613.713    848.266    994.414    613.713    613.713
 82.570   1185.000   1153.384     31.616    613.460    838.053    928.926    613.460    613.460
 82.670   1065.613   1081.194    -15.580    613.205    824.928    869.598    613.205    613.205
 82.770   1072.000   1014.625     57.375    612.949    809.584    818.108    612.949    612.949
 82.870    948.000    955.123     -7.123    612.692    792.854    775.068    612.692    612.692
 82.970    884.000    903.241    -19.241    612.433    775.518    740.253    612.433    612.433
 83.070    902.633    858.806     43.827    612.174    758.192    712.873    612.174    612.174
 83.170    830.772    821.199      9.573    611.913    741.348    691.838    611.913    611.913
 83.270    766.000    789.665    -23.665    611.651    725.393    675.985    611.651    611.651
 83.370    731.000    763.512    -32.512    611.387    710.714    664.239    611.387    611.387
 83.470    758.251    742.187     16.064    611.123    697.664    655.688    611.123    611.123
 83.570    673.000    725.260    -52.260    610.857    686.529    649.621    610.857    610.857
 83.670    766.423    712.395     54.028    610.590    677.501    645.506    610.590    610.590
 83.770    687.000    703.306    -16.306    610.322    670.672    642.970    610.322    610.322
 83.870    742.188    697.724     44.464    610.053    666.033    641.748    610.053    610.053
 83.970    702.350    695.356      6.994    609.783    663.488    641.646    609.783    609.783
 84.070    648.000    695.845    -47.845    609.512    662.845    642.496    609.512    609.512
 84.170    710.579    698.738     11.841    609.239    663.830    644.124    609.239    609.239
 84.270    681.000    703.473    -22.473    608.965    666.082    646.326    608.965    608.965
 84.370    649.000    709.365    -60.365    608.691    669.163    648.855    608.691    608.691
 84.470    686.000    715.621    -29.621    608.415    672.572    651.420    608.415    608.415
 84.570    717.000    721.360     -4.360    608.138    675.761    653.689    608.138    608.138
 84.670    741.599    725.687     15.912    607.860    678.177    655.319    607.860    607.860
 84.770    726.000    727.802     -1.802    607.581    679.330    656.002    607.581    607.581
 84.870    673.000    727.169    -54.169    607.300    678.888    655.532    607.300    607.300
 84.970    688.000    723.653    -35.653    607.019    676.762    653.864    607.019    607.019
 85.070    647.000    717.536    -70.536    606.737    673.104    651.126    606.737    606.737
 85.170    658.000    709.415    -51.415    606.453    668.257    647.574    606.453    606.453
 85.270    700.000    700.032     -0.032    606.169    662.645    643.524    606.169    606.169
 85.370    695.632    690.129      5.503    605.884    656.691    639.294    605.884    605.884
 85.470    655.000    680.364    -25.364    605.597    650.765    635.174    605.597    605.597
 85.570    659.000    671.275    -12.275    605.310    645.160    631.406    605.310    605.310
 85.670    617.000    663.265    -46.265    605.021    640.086    628.185    605.021    605.021
 85.770    618.000    656.613    -38.613    604.732    635.672    625.659    604.732    604.732
 85.870    639.000    651.479    -12.479    604.441    631.976    623.932    604.441    604.441
 85.970    626.000    647.930    -21.930    604.150    628.994    623.075    604.150    604.150
 86.070    663.000    645.960     17.040    603.858    626.683    623.123    603.858    603.858
 86.170    638.890    645.509     -6.619    603.565    624.976    624.085    603.565    603.565
 86.270    660.000    646.483     13.517    603.270    623.800    625.940    603.270    603.270
 86.370    610.229    648.762    -38.533    602.975    623.089    628.632    602.975    602.975
 86.470    643.000    652.204     -9.204    602.679    622.796    632.068    602.679    602.679
 86.570    675.867    656.645     19.221    602.382    622.901    636.105    602.382    602.382
 86.670    669.000    661.902      7.098    602.084    623.414    640.548    602.084    602.084
 86.770    670.000    667.765      2.235    601.786    624.378    645.144    601.786    601.786
 86.870    655.000    674.001    -19.001    601.486    625.870    649.585    601.486    601.486
 86.970    758.000    680.358     77.642    601.186    627.994    653.513    601.186    601.186
 87.070    683.000    686.590     -3.590    600.884    630.878    656.555    600.884    600.884
 87.170    732.000    692.493     39.507    600.582    634.662    658.368    600.582    600.582
 87.270    730.113    697.972     32.141    600.279    639.481    658.719    600.279    600.279
 87.370    707.326    703.074      4.252    599.975    645.449    657.543    599.975    599.975
 87.470    694.886    707.987    -13.101    599.671    652.634    654.960    599.671    599.671
 87.570    715.580    712.964      2.617    599.365    661.031    651.225    599.365    599.365
 87.670    694.000    718.226    -24.226    599.059    670.538    646.665    599.059    599.059
 87.770    705.446    723.877    -18.431    598.752    680.933    641.604    598.752    598.752
 87.870    722.000    729.850     -7.850    598.445    691.859    636.333    598.445    598.445
 87.970    725.000    735.891    -10.891    598.136    702.816    631.099    598.136    598.136
 88.070    766.000    741.555     24.445    597.827    713.161    626.100    597.827    597.827
 88.170    739.000    746.240     -7.240    597.517    722.148    621.484    597.517    597.517
 88.270    780.000    749.270     30.730    597.207    729.003    617.344    597.207    597.207
 88.370    758.000    750.037      7.963    596.895    733.077    613.727    596.895    596.895
 88.470    769.393    748.184     21.209    596.583    734.010    610.634    596.583    596.583
 88.570    717.000    743.726    -26.726    596.271    731.844    608.039    596.271    596.271
 88.670    732.000    737.040     -5.040    595.957    727.004    605.892    595.957    595.957
 88.770    730.000    728.757      1.243    595.643    720.176    604.135    595.643    595.643
 88.870    676.904    719.612    -42.709    595.329    712.157    602.711    595.329    595.329
 88.970    703.000    710.345     -7.345    595.013    703.738    601.562    595.013    595.013
 89.070    659.000    701.634    -42.634    594.697    695.647    600.640    594.697    594.697
 89.170    699.000    694.062      4.938    594.381    688.510    599.903    594.381    594.381
 89.270    672.000    688.078    -16.078    594.064    682.807    599.316    594.064    594.064
 89.370    731.000    683.970     47.030    593.746    678.857    598.853    593.746    593.746
 89.470    698.000    681.856     16.144    593.428    676.799    598.488    593.428    593.428
 89.570    623.000    681.677    -58.677    593.109    676.598    598.201    593.109    593.109
 89.670    644.860    683.212    -38.352    592.790    678.052    597.973    592.790    592.790
 89.770    675.826    686.095    -10.270    592.470    680.814    597.784    592.470    592.470
 89.870    690.000    689.834      0.166    592.150    684.412    597.613    592.150    592.150
 89.970    721.305    693.843     27.462    591.829    688.281    597.439    591.829    591.829
 90.070    741.000    697.476     43.524    591.508    691.798    597.241    591.508    591.508
 90.170    737.217    700.092     37.125    591.186    694.343    596.996    591.186    591.186
 90.270    744.000    701.139     42.861    590.864    695.381    596.687    590.864    590.864
 90.370    655.000    700.253    -45.253    590.541    694.559    596.302    590.541    590.541
 90.470    660.000    697.334    -37.334    590.218    691.779    595.840    590.218    590.218
 90.570    688.000    692.547     -4.547    589.894    687.200    595.308    589.894    589.894
 90.670    644.000    686.261    -42.261    589.570    681.174    594.720    589.570    589.570
 90.770    653.000    678.942    -25.942    589.246    674.150    594.095    589.246    589.246
 90.870    691.695    671.071     20.624    588.922    666.593    593.451    588.922    588.922
 90.970    687.306    663.086     24.219    588.597    658.924    592.804    588.597    588.597
 91.070    616.000    655.354    -39.354    588.271    651.495    592.169    588.271    588.271
 91.170    602.000    648.156    -46.156    587.945    644.579    591.555    587.945    587.945
 91.270    692.569    641.693     50.876    587.619    638.369    590.970    587.619    587.619
 91.370    618.840    636.085    -17.245    587.293    632.981    590.418    587.293    587.293
 91.470    607.000    631.383    -24.383    586.967    628.463    589.902    586.967    586.967
 91.570    615.673    627.581    -11.908    586.640    624.812    589.421    586.640    586.640
 91.670    636.485    624.637     11.849    586.313    621.984    588.974    586.313    586.313
 91.770    619.000    622.483     -3.483    585.985    619.916    588.558    585.985    585.985
 91.870    639.000    621.047     17.953    585.658    618.538    588.170    585.658    585.658
 91.970    631.000    620.265     10.735    585.330    617.789    587.809    585.330    585.330
 92.070    596.000    620.094    -24.094    585.002    617.625    587.472    585.002    585.002
 92.170    656.972    620.518     36.455    584.674    618.030    587.160    584.674    584.674
 92.270    599.000    621.552    -22.552    584.346    619.022    586.872    584.346    584.346
 92.370    636.000    623.250     12.750    584.017    620.650    586.612    584.017    584.017
 92.470    592.000    625.699    -33.699    583.689    622.998    586.383    583.689    583.689
 92.570    599.000    629.016    -30.016    583.360    626.179    586.189    583.360    583.360
 92.670    583.564    633.344    -49.780    583.032    630.329    586.034    583.032    583.032
 92.770    585.979    638.838    -52.860    582.703    635.600    585.926    582.703    582.703
 92.870    691.000    645.660     45.340    582.374    642.147    585.868    582.374    582.374
 92.970    611.853    653.957    -42.104    582.045    650.113    585.865    582.045    582.045
 93.070    639.000    663.851    -24.851    581.716    659.617    585.921    581.716    581.716
 93.170    731.000    675.421     55.579    581.387    670.737    586.037    581.387    581.387
 93.270    655.000    688.689    -33.689    581.058    683.495    586.212    581.058    581.058
 93.370    719.000    703.607     15.393    580.729    697.847    586.443    580.729    580.729
 93.470    710.000    720.048    -10.048    580.400    713.669    586.726    580.400    580.400
 93.570    772.000    737.790     34.210    580.071    730.746    587.055    580.071    580.071
 93.670    779.000    756.517     22.483    579.743    748.767    587.426    579.743    579.743
 93.770    754.000    775.875    -21.875    579.414    767.380    587.836    579.414    579.414
 93.870    791.000    795.401     -4.401    579.085    786.121    588.289    579.085    579.085
 93.970    790.446    814.652    -24.206    578.757    804.534    588.794    578.757    578.757
 94.070    852.576    833.287     19.289    578.429    822.253    589.380    578.429    578.429
 94.170    824.000    851.155    -27.155    578.100    839.083    590.088    578.100    578.100
 94.270    880.000    868.345     11.655    577.772    855.048    590.984    577.772    577.772
 94.370    841.000    885.142    -44.142    577.445    870.355    592.146    577.445    577.445
 94.470    890.155    901.920    -11.764    577.117    885.288    593.665    577.117    577.117
 94.570    936.033    918.999     17.035    576.790    900.081    595.624    576.790    576.790
 94.670    959.000    936.544     22.456    576.463    914.830    598.094    576.463    576.463
 94.770    972.000    954.531     17.469    576.136    929.464    601.122    576.136    576.136
 94.870    948.000    972.779    -24.779    575.809    943.794    604.716    575.809    575.809
 94.970   1047.000    991.034     55.966    575.483    957.598    608.843    575.483    575.483
 95.070    944.025   1009.021    -64.995    575.157    970.686    613.419    575.157    575.157
 95.170   1034.000   1026.432      7.568    574.832    982.886    618.308    574.832    574.832
 95.270   1067.000   1042.846     24.154    574.507    993.968    623.320    574.507    574.507
 95.370   1101.000   1057.631     43.369    574.182   1003.537    628.217    574.182    574.182
 95.470   1103.118   1069.887     33.232    573.857   1010.973    632.720    573.857    573.857
 95.570   1033.700   1078.481    -44.781    573.533   1015.445    636.526    573.533    573.533
 95.670   1103.000   1082.184     20.816    573.210   1016.022    639.337    573.210    573.210
 95.770   1074.000   1079.907     -5.907    572.887   1011.870    640.900    572.887    572.887
 95.870   1004.241   1070.976    -66.735    572.564   1002.476    641.049    572.564    572.564
 95.970   1081.401   1055.348     26.054    572.242    987.839    639.746    572.242    572.242
 96.070   1087.000   1033.705     53.295    571.920    968.545    637.083    571.920    571.920
 96.170    993.000   1007.347    -14.347    571.599    945.687    633.268    571.599    571.599
 96.270   1035.766    977.980     57.786    571.278    920.691    628.581    571.278    571.278
 96.370   1006.821    947.491     59.330    570.958    895.138    623.327    570.958    570.958
 96.470    874.987    917.772    -42.786    570.639    870.624    617.804    570.639    570.639
 96.570    912.000    890.625     21.375    570.320    848.680    612.280    570.320    570.320
 96.670    928.000    867.696     60.304    570.002    830.729    606.981    570.002    570.002
 96.770    868.138    850.446     17.693    569.685    818.055    602.082    569.685    569.685
 96.870    811.341    840.131    -28.791    569.368    811.791    597.709    569.368    569.368
 96.970    776.125    837.795    -61.670    569.052    812.907    593.934    569.052    569.052
 97.070    850.000    844.257      5.743    568.736    822.191    590.789    568.736    568.736
 97.170    894.000    860.104     33.896    568.422    840.239    588.265    568.422    568.422
 97.270    857.000    885.673    -28.673    568.108    867.421    586.329    568.108    568.108
 97.370    910.518    920.993    -10.475    567.795    903.818    584.929    567.795    567.795
 97.470   1006.000    965.925     40.075    567.482    949.350    584.010    567.482    567.482
 97.570    997.375   1019.891    -22.515    567.171   1003.499    583.505    567.171    567.171
 97.670   1107.848   1081.918     25.929    566.860   1065.364    583.350    566.860    566.860
 97.770   1162.000   1150.616     11.384    566.550   1133.618    583.477    566.550    566.550
 97.870   1248.973   1224.130     24.842    566.241   1206.477    583.819    566.241    566.241
 97.970   1264.000   1300.103    -36.103    565.933   1281.654    584.306    565.933    565.933
 98.070   1385.655   1375.658      9.996    565.626   1356.347    584.862    565.626    565.626
 98.170   1370.000   1447.454    -77.454    565.320   1427.295    585.407    565.320    565.320
 98.270   1551.000   1511.794     39.206    565.015   1490.885    585.860    565.015    565.015
 98.370   1604.000   1564.873     39.127    564.710   1543.392    586.140    564.710    564.710
 98.470   1593.777   1603.187     -9.410    564.407   1581.387    586.171    564.407    564.407
 98.570   1593.281   1624.070    -30.789    564.105   1602.258    585.900    564.105    564.105
 98.670   1673.000   1626.199     46.801    563.804   1604.708    585.298    563.804    563.804
 98.770   1551.000   1609.867    -58.867    563.504   1589.024    584.369    563.504    563.504
 98.870   1567.673   1576.887     -9.214    563.205   1556.983    583.149    563.205    563.205
 98.970   1547.000   1530.212     16.788    562.907   1511.478    581.696    562.907    562.907
 99.070   1453.000   1473.427    -20.427    562.610   1456.026    580.077    562.610    562.610
 99.170   1395.000   1410.313    -15.313    562.315   1394.335    578.365    562.315    562.315
 99.270   1324.855   1344.536    -19.681    562.021   1330.003    576.628    562.021    562.021
 99.370   1290.000   1279.452     10.548    561.728   1266.324    574.929    561.728    561.728
 99.470   1199.000   1218.012    -19.012    561.436   1206.197    573.320    561.436    561.436
 99.570   1174.828   1162.724     12.104    561.145   1152.085    571.847    561.145    561.145
 99.670   1105.000   1115.659    -10.659    560.856   1106.026    570.544    560.856    560.856
 99.770   1063.000   1078.480    -15.480    560.568   1069.657    569.437    560.568    560.568
 99.870   1075.000   1052.481     22.519    560.281   1044.258    568.541    560.281    560.281
 99.970   1102.754   1038.620     64.134    559.996   1030.779    567.866    559.996    559.996
100.070   1073.045   1037.542     35.503    559.712   1029.863    567.410    559.712    559.712
100.170   1106.000   1049.584     56.416    559.429   1041.857    567.169    559.429    559.429
100.270   1056.000   1074.792    -18.792    559.148   1066.819    567.129    559.148    559.148
100.370   1100.841   1112.920    -12.078    558.869   1104.521    567.271    558.869    558.869
100.470   1229.000   1163.428     65.572    558.591   1154.449    567.572    558.591    558.591
100.570   1193.000   1225.475    -32.475    558.314   1215.790    568.004    558.314    558.314
100.670   1370.000   1297.900     72.100    558.039   1287.414    568.533    558.039    558.039
100.770   1361.000   1379.189    -18.189    557.765   1367.845    569.125    557.765    557.765
100.870   1483.494   1467.448     16.045    557.493   1455.230    569.738    557.493    557.493
100.970   1570.000   1560.376      9.624    557.223   1547.308    570.330    557.223    557.223
101.070   1638.644   1655.346    -16.702    556.954   1641.499    570.858    556.954    556.954
101.170   1811.000   1749.426     61.574    556.687   1734.911    571.279    556.687    556.687
101.270   1881.000   1839.591     41.409    556.421   1824.557    571.557    556.421    556.421
101.370   2009.000   1922.991     86.009    556.157   1907.611    571.664    556.157    556.157
101.470   1918.555   1997.190    -78.635    555.895   1981.649    571.589    555.895    555.895
101.570   2038.000   2060.299    -22.299    555.635   2044.774    571.338    555.635    555.635
101.670   2082.000   2110.933    -28.933    555.376   2095.580    570.932    555.376    555.376
101.770   2171.254   2148.031     23.223    555.120   2132.970    570.405    555.120    555.120
101.870   2200.000   2170.654     29.346    554.865   2155.967    569.796    554.865    554.865
101.970   2108.000   2177.920    -69.920    554.612   2163.644    569.147    554.612    554.612
102.070   2143.000   2169.139    -26.139    554.360   2155.276    568.495    554.360    554.360
102.170   2164.232   2144.149     20.083    554.111   2130.665    567.875    554.111    554.111
102.270   2057.384   2103.683    -46.299    553.864   2090.517    567.314    553.864    553.864
102.370   1914.000   2049.590   -135.590    553.618   2036.660    566.833    553.618    553.618
102.470   2027.000   1984.754     42.246    553.375   1971.966    566.443    553.375    553.375
102.570   1811.000   1912.743   -101.743    553.134   1899.996    566.151    553.134    553.134
102.670   1838.329   1837.309      1.020    552.894   1824.511    565.951    552.894    552.894
102.770   1802.903   1761.943     40.960    552.657   1749.014    565.831    552.657    552.657
102.870   1631.000   1689.556    -58.556    552.422   1676.436    565.771    552.422    552.422
102.970   1603.000   1622.320    -19.320    552.188   1608.977    565.745    552.188    552.188
103.070   1592.018   1561.617     30.401    551.957   1548.047    565.727    551.957    551.957
103.170   1485.219   1508.059    -22.840    551.729   1494.283    565.690    551.729    551.729
103.270   1476.000   1461.537     14.463    551.502   1447.601    565.611    551.502    551.502
103.370   1463.354   1421.298     42.055    551.278   1407.268    565.470    551.278    551.278
103.470   1403.393   1386.051     17.342    551.055   1372.012    565.249    551.055    551.055
103.570   1319.000   1354.135    -35.135    550.836   1340.188    564.930    550.836    550.836
103.670   1301.000   1323.700    -22.700    550.618   1309.959    564.502    550.618    550.618
103.770   1258.000   1292.977    -34.977    550.403   1279.566    563.953    550.403    550.403
103.870   1223.218   1260.530    -37.311    550.190   1247.575    563.281    550.190    550.190
103.970   1179.000   1225.445    -46.445    549.979   1213.066    562.491    549.979    549.979
104.070   1131.000   1187.402    -56.402    549.771   1175.704    561.599    549.771    549.771
104.170   1147.000   1146.616      0.384    549.566   1135.682    560.625    549.566    549.566
104.270   1087.480   1103.697    -16.216    549.363   1093.584    559.595    549.363    549.363
104.370   1106.000   1059.474     46.526    549.162   1050.213    558.535    549.162    549.162
104.470   1002.000   1014.860    -12.860    548.964   1006.458    557.471    548.964    548.964
104.570    953.833    970.752    -16.919    548.768    963.194    556.424    548.768    548.768
104.670    870.974    927.970    -56.996    548.575    921.222    555.412    548.575    548.575
104.770    871.000    887.222    -16.222    548.385    881.238    554.449    548.385    548.385
104.870    861.000    849.086     11.914    548.197    843.807    553.547    548.197    548.197
104.970    827.552    813.998     13.554    548.012    809.361    552.712    548.012    548.012
105.070    775.000    782.249     -7.249    547.830    778.187    551.948    547.830    547.830
105.170    806.192    753.990     52.203    547.651    750.432    551.255    547.651    547.651
105.270    785.000    729.228     55.772    547.474    726.113    550.628    547.474    547.474
105.370    654.376    707.878    -53.502    547.300    705.146    550.066    547.300    547.300
105.470    657.541    689.800    -32.259    547.129    687.383    549.574    547.129    547.129
105.570    726.000    674.735     51.265    546.960    672.578    549.140    546.960    546.960
105.670    645.000    662.404    -17.404    546.795    660.459    548.759    546.795    546.795
105.770    680.974    652.518     28.456    546.632    650.742    548.423    546.632    546.632
105.870    601.434    644.791    -43.357    546.473    643.148    548.128    546.473    546.473
105.970    680.000    638.961     41.039    546.316    637.418    547.867    546.316    546.316
106.070    679.292    634.794     44.498    546.162    633.324    547.638    546.162    546.162
106.170    656.000    632.096     23.904    546.012    630.676    547.435    546.012    546.012
106.270    674.000    630.714     43.286    545.864    629.323    547.256    545.864    545.864
106.370    643.000    630.534     12.466    545.720    629.154    547.098    545.720    545.720
106.470    675.000    631.480     43.520    545.579    630.094    546.960    545.579    545.579
106.570    586.544    633.506    -46.961    545.441    632.099    546.841    545.441    545.441
106.670    661.000    636.592     24.408    545.306    635.149    546.740    545.306    545.306
106.770    610.000    640.736    -30.736    545.174    639.241    546.657    545.174    545.174
106.870    627.000    645.945    -18.945    545.046    644.385    546.591    545.046    545.046
106.970    617.417    652.229    -34.812    544.920    650.590    546.542    544.920    544.920
107.070    670.000    659.594     10.406    544.799    657.861    546.511    544.799    544.799
107.170    702.000    668.032     33.968    544.680    666.192    546.497    544.680    544.680
107.270    699.000    677.510     21.490    544.565    675.549    546.499    544.565    544.565
107.370    742.712    687.965     54.747    544.453    685.871    546.517    544.453    544.453
107.470    661.336    699.293    -37.957    544.345    697.056    546.549    544.345    544.345
107.570    710.000    711.346     -1.346    544.240    708.956    546.594    544.240    544.240
107.670    762.000    723.925     38.075    544.139    721.378    546.647    544.139    544.139
107.770    728.000    736.787     -8.787    544.041    734.080    546.707    544.041    544.041
107.870    738.000    749.641    -11.641    543.947    746.776    546.768    543.947    543.947
107.970    733.000    762.156    -29.156    543.856    759.141    546.826    543.856    543.856
108.070    798.000    773.974     24.026    543.769    770.822    546.876    543.769    543.769
108.170    815.000    784.727     30.273    543.686    781.455    546.912    543.686    543.686
108.270    771.460    794.067    -22.607    543.607    790.700    546.929    543.607    543.607
108.370    785.000    801.703    -16.703    543.531    798.269    546.922    543.531    543.531
108.470    824.061    807.448     16.613    543.459    803.977    546.889    543.459    543.459
108.570    832.000    811.250     20.750    543.391    807.775    546.828    543.391    543.391
108.670    779.000    813.212    -34.212    543.326    809.766    546.739    543.326    543.326
108.770    768.000    813.585    -45.585    543.266    810.196    546.625    543.266    543.266
108.870    862.000    812.731     49.269    543.209    809.423    546.492    543.209    543.209
108.970    848.000    811.073     36.927    543.156    807.866    546.343    543.156    543.156
109.070    869.249    809.047     60.202    543.108    805.953    546.185    543.108    543.108
109.170    744.000    807.058    -63.058    543.063    804.085    546.024    543.063    543.063
109.270    813.000    805.446      7.554    543.022    802.596    545.865    543.022    543.022
109.370    761.000    804.468    -43.468    542.986    801.739    545.712    542.986    542.986
109.470    819.000    804.283     14.717    542.953    801.669    545.568    542.953    542.953
109.570    794.313    804.946    -10.633    542.925    802.438    545.437    542.925    542.925
109.670    822.128    806.405     15.723    542.901    803.995    545.320    542.901    542.901
109.770    799.000    808.504     -9.504    542.881    806.180    545.217    542.881    542.881
109.870    781.991    810.986    -28.995    542.865    808.740    545.128    542.865    542.865
109.970    768.000    813.510    -45.510    542.854    811.331    545.052    542.854    542.854
110.070    831.170    815.666     15.504    542.847    813.549    544.987    542.847    542.847
110.170    804.000    817.013    -13.013    542.844    814.953    544.931    542.844    542.844
110.270    787.000    817.119    -30.119    542.846    815.113    544.881    542.846    542.846
110.370    745.000    815.613    -70.613    542.852    813.662    544.834    542.852    542.852
110.470    816.405    812.234      4.170    542.863    810.342    544.789    542.863    542.863
110.570    776.000    806.859    -30.859    542.878    805.038    544.733    542.878    542.878
110.670    764.000    799.553    -35.553    542.897    797.803    544.683    542.897    542.897
110.770    827.000    790.504     36.496    542.922    788.822    544.639    542.922    542.922
110.870    766.000    779.995    -13.995    542.950    778.383    544.597    542.950    542.950
110.970    785.000    768.377     16.623    542.984    766.837    544.558    542.984    542.984
111.070    699.788    756.024    -56.236    543.022    754.556    544.522    543.022    543.022
111.170    744.000    743.302      0.698    543.065    741.905    544.492    543.065    543.065
111.270    677.335    730.548    -53.213    543.112    729.220    544.468    543.112    543.112
111.370    718.000    718.058     -0.058    543.165    716.795    544.453    543.165    543.165
111.470    758.000    706.101     51.899    543.222    704.898    544.447    543.222    543.222
111.570    725.391    694.887     30.504    543.284    693.740    544.451    543.284    543.284
111.670    691.964    684.578      7.386    543.351    683.480    544.466    543.351    543.351
111.770    682.000    675.291      6.709    543.423    674.235    544.493    543.423    543.423
111.870    659.036    667.100     -8.063    543.500    666.080    544.531    543.500    543.500
111.970    618.370    660.039    -41.669    543.582    659.049    544.581    543.582    543.582
112.070    667.000    654.104     12.896    543.669    653.137    544.643    543.669    543.669
112.170    662.000    649.266     12.734    543.761    648.316    544.716    543.761    543.761
112.270    647.000    645.469      1.531    543.858    644.529    544.801    543.858    543.858
112.370    684.222    642.638     41.585    543.960    641.704    544.895    543.960    543.960
112.470    639.637    640.688     -1.051    544.068    639.755    545.000    544.068    544.068
112.570    608.000    639.528    -31.528    544.181    638.593    545.114    544.181    544.181
112.670    613.531    639.067    -25.536    544.299    638.125    545.237    544.299    544.299
112.770    612.311    639.214    -26.903    544.422    638.264    545.368    544.422    544.422
112.870    627.980    639.887    -11.907    544.551    638.927    545.506    544.551    544.551
112.970    660.000    641.012     18.988    544.685    640.041    545.650    544.685    544.685
113.070    652.000    642.526      9.474    544.825    641.543    545.801    544.825    544.825
113.170    595.648    644.378    -48.730    544.970    643.383    545.958    544.970    544.970
113.270    606.687    646.532    -39.845    545.120    645.524    546.120    545.120    545.120
113.370    632.000    648.966    -16.966    545.277    647.947    546.288    545.277    545.277
113.470    663.915    651.677     12.238    545.438    650.645    546.461    545.438    545.438
113.570    668.000    654.674     13.326    545.606    653.630    546.641    545.606    545.606
113.670    697.841    657.988     39.853    545.779    656.930    546.828    545.779    545.779
113.770    643.000    661.664    -18.664    545.957    660.589    547.022    545.957    545.957
113.870    617.831    665.768    -47.937    546.142    664.675    547.225    546.142    546.142
113.970    647.000    670.389    -23.389    546.332    669.272    547.438    546.332    546.332
114.070    643.000    675.642    -32.642    546.528    674.498    547.662    546.528    546.528
114.170    648.578    681.678    -33.100    546.730    680.498    547.898    546.730    546.730
114.270    695.463    688.688      6.775    546.938    687.464    548.149    546.938    546.938
114.370    653.039    696.915    -43.876    547.152    695.636    548.416    547.152    547.152
114.470    713.000    706.666      6.334    547.372    705.320    548.701    547.372    547.372
114.570    680.337    718.325    -37.988    547.598    716.897    549.007    547.598    547.598
114.670    740.000    732.371      7.629    547.830    730.842    549.336    547.830    547.830
114.770    793.255    749.391     43.865    548.068    747.740    549.692    548.068    548.068
114.870    782.000    770.099     11.901    548.312    768.302    550.077    548.312    548.312
114.970    834.966    795.355     39.611    548.563    793.385    550.494    548.563    548.563
115.070    826.664    826.178      0.486    548.819    824.003    550.947    548.819    548.819
115.170    855.000    863.760     -8.760    549.082    861.345    551.441    549.082    549.082
115.270    880.023    909.475    -29.452    549.351    906.779    551.978    549.351    549.351
115.370    961.744    964.877     -3.132    549.627    961.857    552.563    549.627    549.627
115.470   1071.225   1031.695     39.530    549.909   1028.304    553.199    549.909    549.909
115.570   1088.000   1111.814    -23.814    550.198   1107.999    553.890    550.198    550.198
115.670   1166.084   1207.241    -41.157    550.493   1202.948    554.640    550.493    550.493
115.770   1364.927   1320.058     44.870    550.794   1315.228    555.452    550.794    550.794
115.870   1404.989   1452.360    -47.371    551.102   1446.933    556.327    551.102    551.102
115.970   1628.000   1606.176     21.824    551.417   1600.090    557.268    551.417    551.417
116.070   1886.000   1783.372    102.628    551.739   1776.563    558.275    551.739    551.739
116.170   2064.000   1985.545     78.455    552.067   1977.952    559.348    552.067    552.067
116.270   2303.000   2213.902     89.098    552.402   2205.466    560.484    552.402    552.402
116.370   2503.094   2469.143     33.952    552.743   2459.809    561.681    552.743    552.743
116.470   2872.000   2751.332    120.668    553.092   2741.053    562.932    553.092    553.092
116.570   3065.000   3059.788      5.212    553.447   3048.522    564.231    553.447    553.447
116.670   3317.000   3392.976    -75.976    553.810   3380.695    565.569    553.810    553.810
116.770   3825.000   3748.435     76.565    554.179   3735.121    566.935    554.179    554.179
116.870   4066.000   4122.715    -56.715    554.555   4108.363    568.318    554.555    554.555
116.970   4575.000   4511.336     63.664    554.939   4495.957    569.704    554.939    554.939
117.070   4783.936   4908.828   -124.892    555.329   4892.447    571.080    555.329    555.329
117.170   5263.000   5308.828    -45.828    555.727   5291.482    572.435    555.727    555.727
117.270   5643.000   5703.977    -60.977    556.131   5685.720    573.756    556.131    556.131
117.370   6023.000   6086.174    -63.174    556.543   6067.071    575.031    556.543    556.543
117.470   6380.000   6446.712    -66.712    556.963   6426.843    576.246    556.963    556.963
117.570   6876.000   6776.505     99.495    557.389   6755.964    577.389    557.389    557.389
117.670   6999.000   7066.413    -67.413    557.823   7045.307    578.448    557.823    557.823
117.770   7380.000   7307.669     72.331    558.265   7286.115    579.410    558.265    558.265
117.870   7569.000   7492.409     76.591    558.714   7470.535    580.263    558.714    558.714
117.970   7635.000   7614.260     20.740    559.170   7592.202    580.998    559.170    559.170
118.070   7730.000   7668.915     61.085    559.634   7646.813    581.608    559.634    559.634
118.170   7723.000   7654.566     68.434    560.105   7632.557    582.089    560.105    560.105
118.270   7586.000   7572.087     13.913    560.585   7550.306    582.443    560.585    560.585
118.370   7427.000   7424.944      2.056    561.071   7403.515    582.675    561.071    561.071
118.470   7194.170   7218.821    -24.651    561.566   7197.858    582.791    561.566    561.566
118.570   6776.000   6961.085   -185.085    562.068   6940.688    582.803    562.068    562.068
118.670   6621.000   6660.186    -39.186    562.579   6640.443    582.723    562.579    562.579
118.770   6390.216   6325.100     65.116    563.097   6306.083    582.562    563.097    563.097
118.870   5724.000   5964.861   -240.861    563.623   5946.631    582.335    563.623    563.623
118.970   5537.000   5588.207    -51.207    564.156   5570.812    582.055    564.156    564.156
119.070   5291.686   5203.317     88.369    564.698   5186.792    581.735    564.698    564.698
119.170   4837.814   4817.624     20.190    565.248   4801.992    581.388    565.248    565.248
119.270   4506.664   4437.691     68.973    565.807   4422.962    581.029    565.807    565.807
119.370   4234.000   4069.122    164.878    566.373   4055.295    580.671    566.373    566.373
119.470   3757.000   3716.524     40.476    566.947   3703.585    580.327    566.947    566.947
119.570   3419.908   3383.495     36.413    567.530   3371.423    580.009    567.530    567.530
119.670   3025.000   3072.660    -47.660    568.121   3061.422    579.728    568.121    568.121
119.770   2739.000   2785.728    -46.728    568.720   2775.283    579.494    568.720    568.720
119.870   2484.000   2523.582    -39.582    569.328   2513.883    579.315    569.328    569.328
119.970   2280.000   2286.384     -6.384    569.944   2277.378    579.198    569.944    569.944
120.070   2161.000   2073.697     87.303    570.569   2065.326    579.149    570.569    570.569
120.170   1838.171   1884.595    -46.425    571.202   1876.799    579.173    571.202    571.202
120.270   1781.905   1717.786     64.119    571.844   1710.500    579.273    571.844    571.844
120.370   1561.776   1571.711     -9.936    572.494   1564.868    579.451    572.494    572.494
120.470   1472.000   1444.642     27.358    573.153   1438.175    579.710    573.153    573.153
120.570   1376.000   1334.765     41.235    573.821   1328.604    580.049    573.821    573.821
120.670   1304.962   1240.251     64.711    574.498   1234.326    580.472    574.498    574.498
120.770   1120.833   1159.316    -38.484    575.183   1153.557    580.977    575.183    575.183
120.870   1137.476   1090.267     47.208    575.878   1084.603    581.565    575.878    575.878
120.970    975.913   1031.535    -55.622    576.581   1025.893    582.237    576.581    576.581
121.070    999.000    981.694     17.306    577.293    976.002    582.992    577.293    577.293
121.170    958.000    939.475     18.525    578.014    933.660    583.833    578.014    578.014
121.270    915.872    903.767     12.105    578.745    897.753    584.759    578.745    578.745
121.370    839.000    873.608    -34.608    579.484    867.320    585.771    579.484    579.484
121.470    815.000    848.181    -33.181    580.233    841.539    586.872    580.233    580.233
121.570    811.000    826.792    -15.792    580.990    819.719    588.062    580.990    580.990
121.670    818.000    808.866      9.134    581.758    801.279    589.344    581.758    581.758
121.770    768.000    793.922    -25.922    582.534    785.736    590.720    582.534    582.534
121.870    781.000    781.563     -0.563    583.320    772.693    592.191    583.320    583.320
121.970    817.499    771.462     46.038    584.115    761.819    593.760    584.115    584.115
122.070    792.759    763.346     29.412    584.920    752.842    595.428    584.920    584.920
122.170    736.000    756.993    -20.993    585.734    745.534    597.197    585.734    585.734
122.270    728.576    752.212    -23.636    586.558    739.708    599.068    586.558    586.558
122.370    706.000    748.845    -42.845    587.391    735.203    601.041    587.391    587.391
122.470    704.288    746.754    -42.467    588.235    731.882    603.117    588.235    588.235
122.570    709.000    745.819    -36.819    589.088    729.625    605.293    589.088    589.088
122.670    749.000    745.931      3.069    589.950    728.326    607.569    589.950    589.950
122.770    781.138    746.989     34.149    590.823    727.886    609.941    590.823    590.823
122.870    710.000    748.896    -38.896    591.705    728.214    612.404    591.705    591.705
122.970    727.465    751.559    -24.093    592.598    729.223    614.952    592.598    592.598
123.070    733.000    754.881    -21.881    593.500    730.827    617.575    593.500    593.500
123.170    734.000    758.765    -24.765    594.412    732.939    620.262    594.412    594.412
123.270    707.597    763.109    -55.511    595.335    735.473    622.996    595.335    595.335
123.370    769.922    767.804      2.118    596.268    738.340    625.761    596.268    596.268
123.470    830.329    772.738     57.591    597.210    741.447    628.534    597.210    597.210
123.570    768.000    777.790     -9.790    598.164    744.700    631.289    598.164    598.164
123.670    809.000    782.836     26.164    599.127    748.000    634.001    599.127    599.127
123.770    843.000    787.743     55.257    600.101    751.247    636.638    600.101    600.101
123.870    748.724    792.377    -43.653    601.085    754.339    639.169    601.085    601.085
123.970    817.000    796.603     20.397    602.080    757.172    641.559    602.080    602.080
124.070    789.000    800.287    -11.287    603.085    759.648    643.776    603.085    603.085
124.170    784.000    803.303    -19.303    604.101    761.672    645.787    604.101    604.101
124.270    841.000    805.537     35.463    605.127    763.159    647.564    605.127    605.127
124.370    803.967    806.894     -2.927    606.165    764.038    649.081    606.165    606.165
124.470    854.000    807.287     46.713    607.212    764.241    650.322    607.212    607.212
124.570    867.000    806.686     60.314    608.271    763.746    651.276    608.271    608.271
124.670    874.000    805.121     68.879    609.341    762.582    651.946    609.341    609.341
124.770    757.193    802.594    -45.400    610.421    760.744    652.338    610.421    610.421
124.870    756.415    799.158    -42.743    611.513    758.268    652.470    611.513    611.513
124.970    781.000    794.895    -13.895    612.615    755.213    652.365    612.615    612.615
