neutron_powder_diffraction_0008
R_wp: 3.657
Temperature (K): 446.070
Counts: 83558.00
Wavelength (Ã…): 2.52098
COMMENTS
Test file for demonstrating the .xyy file format in Reel1.0
END OF HEADER
   tth       Y_obs     Y_calc      Y_res    Background    Phase_1_Nuc    Phase_1_Mag    Phase_2_Nuc    Phase_2_Mag
  9.970    760.000    739.538     20.462    737.804    738.841    738.501    737.804    737.804
 10.070    734.868    738.460     -3.592    736.636    737.756    737.341    736.636    736.636
 10.170    731.728    737.402     -5.674    735.476    736.689    736.188    735.476    735.476
 10.270    728.000    736.363     -8.363    734.323    735.644    735.042    734.323    734.323
 10.370    730.000    735.348     -5.348    733.177    734.621    733.904    733.177    733.177
 10.470    728.000    734.360     -6.360    732.038    733.625    732.773    732.038    732.038
 10.570    733.000    733.403     -0.403    730.906    732.660    731.649    730.906    730.906
 10.670    747.000    732.483     14.517    729.781    731.731    730.532    729.781    729.781
 10.770    719.000    731.608    -12.608    728.663    730.848    729.422    728.663    728.663
 10.870    714.583    730.789    -16.205    727.552    730.019    728.320    727.552    727.552
 10.970    690.315    730.036    -39.721    726.448    729.258    727.225    726.448    726.448
 11.070    724.000    729.367     -5.367    725.351    728.580    726.136    725.351    725.351
 11.170    747.243    728.809     18.434    724.261    728.013    725.055    724.261    724.261
 11.270    737.000    728.400      8.600    723.178    727.595    723.981    723.178    723.178
 11.370    791.000    728.202     62.798    722.102    727.387    722.914    722.102    722.102
 11.470    679.178    728.339    -49.161    721.032    727.514    721.854    721.032    721.032
 11.570    789.000    729.148     59.852    719.970    728.313    720.801    719.970    719.970
 11.670    769.000    730.957     38.043    718.914    730.110    719.754    718.914    718.914
 11.770    791.000    734.874     56.126    717.865    734.015    718.715    717.865    717.865
 11.870    763.000    742.648     20.352    716.822    741.774    717.683    716.822    716.822
 11.970    721.216    756.334    -35.118    715.787    755.441    716.657    715.787    715.787
 12.070    855.000    777.037     77.963    714.758    776.122    715.639    714.758    714.758
 12.170    817.847    802.538     15.309    713.736    801.597    714.627    713.736    713.736
 12.270    882.000    824.514     57.486    712.721    823.551    713.623    712.721    712.721
 12.370    841.000    830.150     10.850    711.712    829.172    712.625    711.712    711.712
 12.470    787.831    814.311    -26.479    710.710    813.329    711.634    710.710    710.710
 12.570    784.275    787.112     -2.837    709.714    786.134    710.650    709.714    709.714
 12.670    712.000    760.874    -48.874    708.726    759.899    709.672    708.726    708.726
 12.770    753.000    741.122     11.878    707.743    740.146    708.702    707.743    707.743
 12.870    743.000    728.244     14.756    706.767    727.262    707.738    706.767    706.767
 12.970    742.510    720.425     22.085    705.798    719.435    706.781    705.798    705.798
 13.070    706.769    715.646     -8.878    704.836    714.646    705.831    704.836    704.836
 13.170    657.337    712.462    -55.125    703.879    711.450    704.887    703.879    703.879
 13.270    761.000    710.080     50.920    702.930    709.056    703.950    702.930    702.930
 13.370    674.000    708.128    -34.128    701.986    707.091    703.020    701.986    701.986
 13.470    702.000    706.439     -4.439    701.049    705.389    702.097    701.049    701.049
 13.570    668.000    704.928    -36.928    700.119    703.865    701.180    700.119    700.119
 13.670    659.000    703.549    -44.549    699.195    702.472    700.269    699.195    699.195
 13.770    695.000    702.267     -7.267    698.277    701.177    699.366    698.277    698.277
 13.870    752.726    701.062     51.664    697.366    699.957    698.469    697.366    697.366
 13.970    728.000    699.916     28.084    696.460    698.797    697.579    696.460    696.460
 14.070    763.000    698.820     64.180    695.562    697.686    696.695    695.562    695.562
 14.170    686.000    697.764    -11.764    694.669    696.614    695.818    694.669    694.669
 14.270    748.501    696.741     51.760    693.783    695.576    694.947    693.783    693.783
 14.370    727.531    695.747     31.784    692.903    694.566    694.083    692.903    692.903
 14.470    711.785    694.777     17.008    692.029    693.580    693.226    692.029    692.029
 14.570    741.298    693.829     47.469    691.161    692.615    692.375    691.161    691.161
 14.670    736.301    692.904     43.397    690.300    691.674    691.530    690.300    690.300
 14.770    679.000    692.000    -13.000    689.445    690.752    690.692    689.445    689.445
 14.870    676.979    691.104    -14.126    688.595    689.838    689.861    688.595    688.595
 14.970    717.302    690.222     27.081    687.752    688.937    689.036    687.752    687.752
 15.070    640.489    689.352    -48.863    686.915    688.049    688.217    686.915    686.915
 15.170    620.000    688.494    -68.494    686.084    687.173    687.405    686.084    686.084
 15.270    692.000    687.648      4.352    685.259    686.307    686.600    685.259    685.259
 15.370    693.000    686.813      6.187    684.440    685.452    685.801    684.440    684.440
 15.470    683.000    685.989     -2.989    683.627    684.609    685.008    683.627    683.627
 15.570    720.000    685.195     34.805    682.820    683.793    684.222    682.820    682.820
 15.670    679.000    684.402     -5.402    682.019    682.979    683.442    682.019    682.019
 15.770    673.000    683.606    -10.606    681.224    682.162    682.668    681.224    681.224
 15.870    670.000    682.818    -12.818    680.435    681.351    681.901    680.435    680.435
 15.970    707.000    682.038     24.962    679.652    680.549    681.141    679.652    679.652
 16.070    684.000    681.266      2.734    678.875    679.754    680.387    678.875    678.875
 16.170    637.987    680.503    -42.516    678.103    678.967    679.639    678.103    678.103
 16.270    683.000    679.748      3.252    677.337    678.187    678.897    677.337    677.337
 16.370    627.665    679.001    -51.335    676.577    677.415    678.162    676.577    676.577
 16.470    686.000    678.267      7.733    675.823    676.656    677.434    675.823    675.823
 16.570    635.362    677.543    -42.182    675.075    675.906    676.712    675.075    675.075
 16.670    725.291    676.819     48.471    674.332    675.155    675.996    674.332    674.332
 16.770    667.000    676.102     -9.102    673.595    674.410    675.286    673.595    673.595
 16.870    618.000    675.392    -57.392    672.864    673.672    674.583    672.864    672.864
 16.970    661.000    674.689    -13.689    672.138    672.940    673.887    672.138    672.138
 17.070    658.000    673.993    -15.993    671.419    672.215    673.196    671.419    671.419
 17.170    636.000    673.310    -37.310    670.704    671.502    672.513    670.704    670.704
 17.270    634.000    672.686    -38.686    669.996    670.843    671.838    669.996    669.996
 17.370    670.000    672.033     -2.033    669.293    670.157    671.168    669.293    669.293
 17.470    703.524    671.367     32.157    668.595    669.459    670.503    668.595    668.595
 17.570    658.000    670.707    -12.707    667.903    668.765    669.845    667.903    667.903
 17.670    672.000    670.054      1.946    667.217    668.078    669.193    667.217    667.217
 17.770    602.000    669.409    -67.409    666.536    667.396    668.548    666.536    666.536
 17.870    657.000    668.770    -11.770    665.860    666.721    667.909    665.860    665.860
 17.970    637.000    668.138    -31.138    665.190    666.052    667.277    665.190    665.190
 18.070    619.036    667.513    -48.478    664.526    665.388    666.651    664.526    664.526
 18.170    662.494    666.895     -4.401    663.867    664.731    666.032    663.867    663.867
 18.270    682.000    666.284     15.716    663.213    664.079    665.419    663.213    663.213
 18.370    652.000    665.680    -13.680    662.565    663.433    664.812    662.565    662.565
 18.470    699.833    665.084     34.749    661.922    662.794    664.213    661.922    661.922
 18.570    667.000    664.506      2.494    661.284    662.170    663.620    661.284    661.284
 18.670    712.000    663.929     48.071    660.652    661.548    663.033    660.652    660.652
 18.770    701.236    663.354     37.881    660.025    660.926    662.453    660.025    660.025
 18.870    649.020    662.786    -13.765    659.403    660.309    661.880    659.403    659.403
 18.970    608.000    662.224    -54.224    658.787    659.697    661.314    658.787    658.787
 19.070    657.970    661.670     -3.700    658.176    659.092    660.754    658.176    658.176
 19.170    643.000    661.125    -18.125    657.570    658.494    660.202    657.570    657.570
 19.270    617.000    660.607    -43.607    656.969    657.920    659.656    656.969    656.969
 19.370    636.000    660.084    -24.084    656.373    657.339    659.118    656.373    656.373
 19.470    670.000    659.593     10.407    655.783    656.778    658.597    655.783    655.783
 19.570    615.009    659.120    -44.111    655.198    656.231    658.087    655.198    655.198
 19.670    648.000    658.616    -10.616    654.617    655.662    657.571    654.617    654.617
 19.770    665.445    658.116      7.329    654.042    655.098    657.060    654.042    654.042
 19.870    653.102    657.637     -4.535    653.472    654.552    656.558    653.472    653.472
 19.970    650.000    657.158     -7.158    652.907    654.003    656.062    652.907    652.907
 20.070    628.000    656.684    -28.684    652.347    653.456    655.575    652.347    652.347
 20.170    693.583    656.250     37.333    651.792    652.931    655.111    651.792    651.792
 20.270    659.144    655.845      3.299    651.242    652.434    654.653    651.242    651.242
 20.370    635.457    655.441    -19.984    650.697    651.949    654.190    650.697    650.697
 20.470    651.000    655.006     -4.006    650.157    651.431    653.732    650.157    650.157
 20.570    655.000    654.611      0.389    649.622    650.950    653.283    649.622    649.622
 20.670    696.324    654.223     42.101    649.091    650.472    652.843    649.091    649.091
 20.770    639.000    653.818    -14.818    648.566    649.972    652.412    648.566    648.566
 20.870    603.711    653.422    -49.711    648.046    649.475    651.993    648.046    648.046
 20.970    674.353    653.028     21.325    647.530    648.982    651.576    647.530    647.530
 21.070    696.000    652.642     43.358    647.019    648.493    651.168    647.019    647.019
 21.170    669.067    652.265     16.802    646.513    648.008    650.769    646.513    646.513
 21.270    686.487    651.898     34.590    646.012    647.530    650.379    646.012    646.012
 21.370    604.372    651.542    -47.170    645.515    647.059    649.998    645.515    645.515
 21.470    655.000    651.204      3.796    645.023    646.600    649.628    645.023    645.023
 21.570    616.895    650.877    -33.982    644.536    646.147    649.267    644.536    644.536
 21.670    646.000    650.557     -4.557    644.054    645.696    648.915    644.054    644.054
 21.770    636.734    650.248    -13.514    643.576    645.251    648.574    643.576    643.576
 21.870    632.000    649.952    -17.952    643.103    644.812    648.243    643.103    643.103
 21.970    669.000    649.669     19.331    642.635    644.380    647.923    642.635    642.635
 22.070    666.000    649.400     16.600    642.171    643.957    647.615    642.171    642.171
 22.170    637.000    649.148    -12.148    641.712    643.542    647.318    641.712    641.712
 22.270    641.000    648.911     -7.911    641.257    643.135    647.033    641.257    641.257
 22.370    695.758    648.691     47.068    640.807    642.737    646.761    640.807    640.807
 22.470    700.973    648.487     52.486    640.362    642.347    646.502    640.362    640.362
 22.570    616.000    648.303    -32.303    639.921    641.968    646.257    639.921    639.921
 22.670    628.000    648.140    -20.140    639.484    641.599    646.025    639.484    639.484
 22.770    648.000    648.004     -0.004    639.052    641.246    645.810    639.052    639.052
 22.870    640.381    647.890     -7.510    638.624    640.905    645.610    638.624    638.624
 22.970    618.775    647.800    -29.026    638.201    640.577    645.425    638.201    638.201
 23.070    648.000    647.740      0.260    637.783    640.265    645.258    637.783    637.783
 23.170    616.000    647.713    -31.713    637.368    639.972    645.110    637.368    637.368
 23.270    628.000    647.721    -19.721    636.958    639.701    644.979    636.958    636.958
 23.370    662.000    647.771     14.229    636.553    639.456    644.868    636.553    636.553
 23.470    655.000    647.870      7.130    636.151    639.243    644.779    636.151    636.151
 23.570    643.673    648.024     -4.351    635.754    639.068    644.712    635.754    635.754
 23.670    658.000    648.246      9.754    635.362    638.940    644.669    635.362    635.362
 23.770    682.246    648.549     33.697    634.973    638.872    644.652    634.973    634.973
 23.870    640.000    648.953     -8.953    634.589    638.882    644.661    634.589    634.589
 23.970    627.000    649.487    -22.487    634.209    638.997    644.701    634.209    634.209
 24.070    651.000    650.196      0.804    633.833    639.260    644.772    633.833    633.833
 24.170    724.000    651.163     72.837    633.462    639.751    644.877    633.462    633.462
 24.270    651.739    652.561     -0.822    633.095    640.642    645.018    633.095    633.095
 24.370    717.000    654.753     62.247    632.731    642.292    645.198    632.731    632.731
 24.470    685.000    658.418     26.582    632.372    645.376    645.421    632.372    632.372
 24.570    618.270    664.606    -46.336    632.017    650.944    645.691    632.017    632.017
 24.670    651.596    674.506    -22.910    631.667    660.179    646.012    631.667    631.667
 24.770    650.226    688.719    -38.493    631.320    673.679    646.388    631.320    631.320
 24.870    728.000    706.005     21.995    630.977    690.196    646.826    630.977    630.977
 24.970    748.000    721.689     26.311    630.638    705.047    647.331    630.638    630.638
 25.070    726.000    727.990     -1.990    630.304    710.438    647.911    630.304    630.304
 25.170    741.783    720.829     20.954    629.973    702.279    648.573    629.973    629.973
 25.270    737.000    705.571     31.429    629.646    685.928    649.327    629.646    629.646
 25.370    732.200    689.943     42.257    629.323    669.109    650.184    629.323    629.323
 25.470    655.000    677.947    -22.947    629.004    655.812    651.156    629.004    629.004
 25.570    662.000    670.358     -8.358    628.690    646.801    652.257    628.690    628.690
 25.670    645.000    666.390    -21.390    628.379    641.269    653.506    628.379    628.379
 25.770    694.069    664.855     29.215    628.071    638.009    654.921    628.071    628.071
 25.870    645.000    664.790    -19.790    627.768    636.032    656.528    627.768    627.768
 25.970    694.000    665.624     28.376    627.469    634.734    658.360    627.469    627.469
 26.070    655.027    667.059    -12.031    627.173    633.793    660.439    627.173    627.173
 26.170    700.000    669.001     30.999    626.881    633.071    662.811    626.881    626.881
 26.270    651.000    671.434    -20.434    626.593    632.501    665.526    626.593    626.593
 26.370    712.708    674.384     38.324    626.309    632.046    668.646    626.309    626.309
 26.470    654.000    677.906    -23.906    626.028    631.686    672.247    626.028    626.028
 26.570    687.083    682.082      5.002    625.751    631.409    676.422    625.751    625.751
 26.670    671.000    687.024    -16.024    625.478    631.208    681.292    625.478    625.478
 26.770    710.000    692.885     17.115    625.208    631.083    687.008    625.208    625.208
 26.870    705.000    699.865      5.135    624.943    631.036    693.768    624.943    624.943
 26.970    680.984    708.229    -27.245    624.680    631.073    701.832    624.680    624.680
 27.070    705.000    718.337    -13.337    624.422    631.208    711.546    624.422    624.422
 27.170    719.000    730.683    -11.683    624.167    631.458    723.385    624.167    624.167
 27.270    755.000    745.945      9.055    623.915    631.852    738.001    623.915    623.915
 27.370    762.000    765.083     -3.083    623.668    632.427    756.314    623.668    623.668
 27.470    758.290    789.533    -31.243    623.423    633.246    779.698    623.423    623.423
 27.570    810.000    821.593    -11.593    623.182    634.405    810.354    623.182    623.182
 27.670    839.000    865.867    -26.867    622.945    636.098    852.692    622.945    622.945
 27.770    916.000    934.986    -18.986    622.711    638.857    918.807    622.711    622.711
 27.870   1035.000   1068.472    -33.472    622.481    644.338   1046.557    622.481    622.481
 27.970   1391.000   1375.107     15.893    622.254    657.091   1340.145    622.254    622.254
 28.070   2135.928   2077.502     58.426    622.031    686.425   2012.828    622.031    622.031
 28.170   3382.868   3457.502    -74.633    621.811    744.130   3334.627    621.811    621.811
 28.270   5389.000   5584.269   -195.269    621.594    833.127   5371.838    621.594    621.594
 28.370   7827.000   7921.296    -94.296    621.381    931.073   7610.497    621.381    621.381
 28.470   9111.000   9253.875   -142.875    621.171    987.392   8886.726    621.171    621.171
 28.570   8866.000   8663.510    202.490    620.964    964.141   8319.939    620.964    620.964
 28.670   6901.000   6762.742    138.258    620.761    887.850   6495.706    620.761    620.761
 28.770   5001.000   4907.587     93.413    620.561    816.753   4711.595    620.561    620.561
 28.870   3974.000   3977.902     -3.902    620.364    789.229   3809.181    620.364    620.364
 28.970   3981.457   4071.345    -89.888    620.171    809.317   3882.259    620.171    620.171
 29.070   4787.000   4710.538     76.462    619.980    853.185   4477.408    619.980    619.980
 29.170   5205.511   5140.833     64.677    619.793    881.004   4879.839    619.793    619.793
 29.270   4865.800   4812.174     53.625    619.610    863.081   4569.099    619.610    619.610
 29.370   3824.799   3856.496    -31.697    619.429    808.061   3668.320    619.429    619.429
 29.470   2735.000   2771.530    -36.530    619.251    745.271   2645.891    619.251    619.251
 29.570   1894.000   1911.683    -17.683    619.077    695.481   1835.534    619.077    619.077
 29.670   1327.392   1369.363    -41.971    618.906    664.128   1324.285    618.906    618.906
 29.770   1103.000   1077.591     25.409    618.738    647.342   1049.062    618.738    618.738
 29.870    864.215    932.109    -67.894    618.573    639.067    911.653    618.573    618.573
 29.970    814.825    856.626    -41.800    618.411    634.877    840.181    618.411    618.411
 30.070    876.000    811.763     64.237    618.252    632.496    797.532    618.252    618.252
 30.170    797.000    781.169     15.831    618.096    630.993    768.280    618.096    618.096
 30.270    773.000    758.606     14.394    617.943    630.042    746.513    617.943    617.943
 30.370    745.000    741.533      3.467    617.793    629.562    729.768    617.793    617.793
 30.470    726.000    728.884     -2.884    617.646    629.651    716.880    617.646    617.646
 30.570    743.000    720.610     22.390    617.502    630.667    707.443    617.502    617.502
 30.670    750.828    717.785     33.042    617.361    633.375    701.764    617.361    617.361
 30.770    713.853    722.527     -8.674    617.223    638.953    700.782    617.223    617.223
 30.870    735.000    737.011     -2.011    617.088    648.557    705.514    617.088    617.088
 30.970    785.791    761.143     24.648    616.955    662.248    715.806    616.955    616.955
 31.070    761.587    789.384    -27.797    616.826    677.520    728.629    616.826    616.826
 31.170    910.000    808.995    101.005    616.699    688.488    737.138    616.699    616.699
 31.270    802.213    806.325     -4.112    616.576    688.822    734.015    616.576    616.576
 31.370    754.000    780.476    -26.476    616.455    678.142    718.739    616.455    616.455
 31.470    728.000    744.410    -16.410    616.336    662.532    698.182    616.336    616.336
 31.570    691.985    711.230    -19.245    616.221    648.135    679.296    616.221    616.221
 31.670    703.000    686.821     16.179    616.108    637.722    665.195    616.108    616.108
 31.770    692.974    671.302     21.672    615.998    631.367    655.927    615.998    615.998
 31.870    672.687    662.211     10.476    615.891    627.935    650.163    615.891    615.891
 31.970    690.000    656.892     33.108    615.786    626.199    646.477    615.786    615.786
 32.070    617.685    653.535    -35.850    615.685    625.324    643.893    615.685    615.685
 32.170    631.630    651.197    -19.567    615.585    624.880    641.901    615.585    615.585
 32.270    658.161    649.464      8.697    615.489    624.684    640.268    615.489    615.489
 32.370    659.407    648.164     11.242    615.395    624.663    638.894    615.395    615.395
 32.470    651.695    647.224      4.471    615.303    624.794    637.732    615.303    615.303
 32.570    696.080    646.611     49.469    615.215    625.069    636.755    615.215    615.215
 32.670    664.063    646.317     17.746    615.129    625.496    635.948    615.129    615.129
 32.770    688.000    646.352     41.648    615.045    626.091    635.305    615.045    615.045
 32.870    695.000    646.746     48.254    614.964    626.880    634.828    614.964    614.964
 32.970    667.000    647.548     19.452    614.885    627.905    634.527    614.885    614.885
 33.070    642.000    648.837     -6.837    614.809    629.225    634.420    614.809    614.809
 33.170    644.000    650.732     -6.732    614.735    630.925    634.541    614.735    614.735
 33.270    701.216    653.423     47.793    614.664    633.139    634.947    614.664    614.664
 33.370    698.857    657.243     41.614    614.596    636.098    635.738    614.596    614.596
 33.470    695.000    662.880     32.120    614.529    640.277    637.130    614.529    614.529
 33.570    710.000    671.882     38.118    614.465    646.738    639.606    614.465    614.465
 33.670    670.000    687.632    -17.632    614.404    657.800    644.230    614.404    614.404
 33.770    732.397    716.586     15.811    614.345    677.886    653.034    614.345    614.345
 33.870    794.000    768.642     25.358    614.288    713.780    669.132    614.288    614.288
 33.970    835.000    854.559    -19.559    614.234    772.854    695.913    614.234    614.234
 34.070    965.150    978.948    -13.798    614.182    858.270    734.827    614.182    614.182
 34.170   1049.000   1129.720    -80.720    614.132    961.751    782.069    614.132    614.132
 34.270   1254.000   1266.822    -12.822    614.084   1055.864    825.026    614.084    614.084
 34.370   1327.000   1324.923      2.077    614.039   1095.850    843.119    614.039    614.039
 34.470   1264.000   1265.717     -1.717    613.996   1055.457    824.279    613.996    613.996
 34.570   1073.000   1127.752    -54.752    613.955    961.090    780.644    613.955    613.955
 34.670    931.000    976.363    -45.363    613.917    857.511    732.791    613.917    613.917
 34.770    817.000    851.470    -34.470    613.880    772.072    693.293    613.880    613.880
 34.870    788.000    765.056     22.944    613.846    712.985    665.926    613.846    613.846
 34.970    760.561    712.452     48.109    613.814    677.053    649.219    613.814    613.814
 35.070    732.000    682.885     49.115    613.784    656.894    639.778    613.784    613.784
 35.170    678.000    666.462     11.538    613.756    645.732    634.488    613.756    613.756
 35.270    709.194    656.738     52.456    613.731    639.151    631.319    613.731    613.731
 35.370    680.000    650.340     29.660    613.707    634.840    629.207    613.707    613.707
 35.470    668.000    645.719     22.281    613.686    631.738    627.667    613.686    613.686
 35.570    646.000    642.186      3.814    613.666    629.372    626.480    613.666    613.666
 35.670    621.000    639.400    -18.400    613.649    627.509    625.540    613.649    613.649
 35.770    628.000    637.166     -9.166    613.633    626.014    624.786    613.633    613.633
 35.870    622.368    635.356    -12.987    613.620    624.799    624.178    613.620    613.620
 35.970    630.000    633.879     -3.879    613.609    623.800    623.688    613.609    613.609
 36.070    652.881    632.671     20.210    613.599    622.973    623.298    613.599    613.599
 36.170    655.000    631.685     23.315    613.592    622.283    622.994    613.592    613.592
 36.270    618.000    630.887    -12.887    613.586    621.706    622.768    613.586    613.586
 36.370    639.000    630.252      8.748    613.583    621.222    622.613    613.583    613.583
 36.470    614.362    629.764    -15.402    613.581    620.817    622.529    613.581    613.581
 36.570    588.385    629.414    -41.029    613.581    620.480    622.515    613.581    613.581
 36.670    637.000    629.196      7.804    613.583    620.204    622.576    613.583    613.583
 36.770    615.123    629.113    -13.990    613.587    619.983    622.718    613.587    613.587
 36.870    600.000    629.174    -29.174    613.593    619.814    622.954    613.593    613.593
 36.970    649.000    629.397     19.603    613.601    619.699    623.300    613.601    613.601
 37.070    619.000    629.814    -10.814    613.610    619.645    623.780    613.610    613.610
 37.170    658.000    630.480     27.520    613.621    619.670    624.432    613.621    613.621
 37.270    688.000    631.497     56.503    613.634    619.817    625.316    613.634    613.634
 37.370    622.229    633.052    -10.824    613.649    620.157    626.545    613.649    613.649
 37.470    620.241    635.494    -15.253    613.665    620.809    628.351    613.665    613.665
 37.570    656.000    639.457     16.543    613.683    621.916    631.225    613.683    613.683
 37.670    655.000    646.024      8.976    613.703    623.612    636.117    613.703    613.703
 37.770    679.000    656.833     22.167    613.725    625.929    644.630    613.725    613.725
 37.870    669.657    673.872     -4.216    613.748    628.686    658.937    613.748    613.748
 37.970    736.335    698.691     37.644    613.773    631.340    681.127    613.773    613.773
 38.070    696.995    731.032    -34.037    613.799    633.010    711.826    613.799    613.799
 38.170    713.465    767.443    -53.978    613.827    633.003    748.275    613.827    613.827
 38.270    817.000    799.855     17.145    613.857    631.454    782.270    613.857    613.857
 38.370    759.485    815.735    -56.250    613.888    629.055    800.586    613.888    613.888
 38.470    799.000    806.141     -7.141    613.921    626.456    793.628    613.921    613.921
 38.570    774.000    775.589     -1.589    613.956    624.099    765.468    613.956    613.956
 38.670    728.000    737.143     -9.143    613.992    622.227    728.927    613.992    613.992
 38.770    658.000    701.686    -43.686    614.029    620.892    694.837    614.029    614.029
 38.870    668.011    674.321     -6.310    614.068    620.018    668.381    614.068    614.068
 38.970    649.849    655.709     -5.860    614.109    619.481    650.344    614.109    614.109
 39.070    654.539    644.171     10.368    614.151    619.164    639.162    614.151    614.151
 39.170    629.000    637.385     -8.385    614.194    618.981    632.601    614.194    614.194
 39.270    616.000    633.394    -17.394    614.239    618.878    628.756    614.239    614.239
 39.370    613.872    630.914    -17.042    614.285    618.825    626.376    614.285    614.285
 39.470    622.000    629.240     -7.240    614.333    618.803    624.771    614.333    614.333
 39.570    626.000    628.022     -2.022    614.382    618.805    623.600    614.382    614.382
 39.670    585.862    627.092    -41.230    614.432    618.826    622.699    614.432    614.432
 39.770    611.000    626.364    -15.364    614.484    618.863    621.986    614.484    614.484
 39.870    605.000    625.786    -20.786    614.537    618.914    621.411    614.537    614.537
 39.970    640.000    625.326     14.674    614.592    618.977    620.942    614.592    614.592
 40.070    573.057    624.961    -51.904    614.648    619.052    620.557    614.648    614.648
 40.170    598.000    624.672    -26.672    614.705    619.139    620.238    614.705    614.705
 40.270    643.009    624.448     18.562    614.763    619.237    619.974    614.763    614.763
 40.370    596.000    624.276    -28.276    614.823    619.345    619.755    614.823    614.823
 40.470    651.552    624.150     27.402    614.884    619.463    619.572    614.884    614.884
 40.570    655.579    624.070     31.509    614.946    619.596    619.420    614.946    614.946
 40.670    587.000    624.030    -37.030    615.009    619.744    619.295    615.009    615.009
 40.770    617.000    624.025     -7.025    615.074    619.907    619.192    615.074    615.074
 40.870    642.000    624.055     17.945    615.139    620.086    619.109    615.139    615.139
 40.970    629.000    624.120      4.880    615.206    620.284    619.044    615.206    615.206
 41.070    655.023    624.221     30.802    615.274    620.503    618.993    615.274    615.274
 41.170    614.000    624.358    -10.358    615.344    620.747    618.956    615.344    615.344
 41.270    636.000    624.536     11.464    615.414    621.020    618.931    615.414    615.414
 41.370    608.000    624.760    -16.760    615.485    621.328    618.918    615.485    615.485
 41.470    630.000    625.035      4.965    615.558    621.678    618.915    615.558    615.558
 41.570    644.388    625.371     19.017    615.632    622.081    618.923    615.632    615.632
 41.670    616.000    625.781     -9.781    615.706    622.549    618.940    615.706    615.706
 41.770    630.000    626.285      3.715    615.782    623.101    618.968    615.782    615.782
 41.870    652.376    626.912     25.463    615.859    623.767    619.006    615.859    615.859
 41.970    622.000    627.716     -5.716    615.937    624.599    619.057    615.937    615.937
 42.070    607.000    628.801    -21.801    616.015    625.696    619.123    616.015    616.015
 42.170    629.621    630.373     -0.752    616.095    627.259    619.213    616.095    616.095
 42.270    607.000    632.824    -25.824    616.176    629.664    619.341    616.176    616.176
 42.370    610.000    636.823    -26.823    616.258    633.555    619.532    616.258    616.258
 42.470    663.976    643.340     20.636    616.340    639.866    619.824    616.340    616.340
 42.570    617.000    653.498    -36.498    616.424    649.677    620.259    616.424    616.424
 42.670    630.000    668.150    -38.150    616.508    663.808    620.870    616.508    616.508
 42.770    737.012    687.198     49.813    616.594    682.169    621.653    616.594    616.594
 42.870    683.514    708.748    -25.234    616.680    702.933    622.535    616.680    616.680
 42.970    686.000    728.288    -42.288    616.767    721.762    623.343    616.767    616.767
 43.070    767.000    739.149     27.851    616.855    732.241    623.822    616.855    616.855
 43.170    745.000    736.465      8.535    616.944    729.685    623.783    616.944    616.944
 43.270    739.000    721.685     17.315    617.034    715.489    623.283    617.034    617.034
 43.370    653.925    700.986    -47.061    617.124    695.594    622.559    617.124    617.124
 43.470    680.000    680.332     -0.332    617.216    675.741    621.840    617.216    617.216
 43.570    650.000    663.148    -13.148    617.308    659.223    621.255    617.308    617.308
 43.670    663.819    650.536     13.283    617.401    647.103    620.849    617.401    617.401
 43.770    664.000    642.143     21.857    617.494    639.041    620.607    617.494    617.494
 43.870    710.000    636.953     73.047    617.588    634.058    620.490    617.588    617.588
 43.970    618.805    633.876    -15.071    617.684    631.108    620.457    617.684    617.684
 44.070    639.000    632.056      6.944    617.779    629.364    620.474    617.779    617.779
 44.170    644.000    630.940     13.060    617.876    628.297    620.521    617.876    617.876
 44.270    600.739    630.217    -29.478    617.973    627.607    620.585    617.973    617.973
 44.370    634.000    629.728      4.272    618.071    627.140    620.661    618.071    618.071
 44.470    630.000    629.391      0.609    618.169    626.818    620.745    618.169    618.169
 44.570    643.000    629.164     13.836    618.268    626.599    620.835    618.268    618.268
 44.670    611.026    629.020    -17.994    618.368    626.459    620.931    618.368    618.368
 44.770    700.000    628.944     71.056    618.468    626.381    621.032    618.468    618.468
 44.870    626.000    628.924     -2.924    618.569    626.356    621.138    618.569    618.569
 44.970    624.000    628.950     -4.950    618.671    626.373    621.248    618.671    618.671
 45.070    639.259    629.016     10.243    618.773    626.426    621.363    618.773    618.773
 45.170    647.000    629.117     17.883    618.876    626.512    621.482    618.876    618.876
 45.270    613.449    629.251    -15.802    618.979    626.625    621.605    618.979    618.979
 45.370    662.000    629.413     32.587    619.082    626.765    621.732    619.082    619.082
 45.470    690.000    629.603     60.397    619.187    626.928    621.863    619.187    619.187
 45.570    647.000    629.820     17.180    619.291    627.113    621.998    619.291    619.291
 45.670    579.000    630.062    -51.062    619.397    627.320    622.138    619.397    619.397
 45.770    643.088    630.330     12.758    619.502    627.549    622.283    619.502    619.502
 45.870    630.000    630.624     -0.624    619.608    627.799    622.433    619.608    619.608
 45.970    652.000    630.945     21.055    619.715    628.072    622.588    619.715    619.715
 46.070    650.000    631.295     18.705    619.822    628.368    622.749    619.822    619.822
 46.170    619.647    631.675    -12.028    619.929    628.688    622.916    619.929    619.929
 46.270    622.000    632.089    -10.089    620.037    629.036    623.090    620.037    620.037
 46.370    651.307    632.539     18.768    620.146    629.413    623.271    620.146    620.146
 46.470    625.000    633.029     -8.029    620.254    629.823    623.460    620.254    620.254
 46.570    671.783    633.566     38.217    620.363    630.270    623.658    620.363    620.363
 46.670    657.000    634.156     22.844    620.472    630.760    623.867    620.472    620.472
 46.770    663.000    634.807     28.193    620.582    631.301    624.087    620.582    620.582
 46.870    616.000    635.533    -19.533    620.692    631.902    624.321    620.692    620.692
 46.970    668.022    636.349     31.674    620.802    632.579    624.571    620.802    620.802
 47.070    635.000    637.282     -2.282    620.913    633.353    624.840    620.913    620.913
 47.170    597.000    638.380    -41.380    621.024    634.266    625.135    621.024    621.024
 47.270    670.260    639.728     30.532    621.135    635.394    625.467    621.135    621.135
 47.370    617.000    641.484    -24.484    621.246    636.873    625.854    621.246    621.246
 47.470    638.000    643.918     -5.918    621.358    638.942    626.330    621.358    621.358
 47.570    696.907    647.453     49.455    621.470    641.972    626.943    621.470    621.470
 47.670    622.390    652.653    -30.263    621.582    646.463    627.762    621.582    621.582
 47.770    607.577    660.140    -52.563    621.694    652.958    628.861    621.694    621.694
 47.870    676.683    670.372      6.311    621.807    661.864    630.293    621.807    621.807
 47.970    636.540    683.337    -46.798    621.919    673.166    632.061    621.919    621.919
 48.070    700.000    698.170      1.830    622.032    686.098    634.067    622.032    622.032
 48.170    706.310    712.783     -6.473    622.145    698.813    636.070    622.145    622.145
 48.270    707.000    723.826    -16.826    622.258    708.348    637.686    622.258    622.258
 48.370    780.000    727.842     52.158    622.371    711.646    638.517    622.371    622.371
 48.470    720.000    723.752     -3.752    622.485    707.747    638.444    622.485    622.485
 48.570    681.000    713.933    -32.933    622.598    698.742    637.751    622.598    622.598
 48.670    694.000    702.181     -8.181    622.712    687.977    636.886    622.712    622.712
 48.770    721.580    691.475     30.105    622.825    678.069    636.209    622.825    622.825
 48.870    643.481    683.432    -39.951    622.939    670.433    635.922    622.939    622.939
 48.970    626.653    678.605    -51.952    623.053    665.540    636.107    623.053    623.053
 49.070    627.685    676.888    -49.203    623.167    663.270    636.776    623.167    623.167
 49.170    667.348    677.880    -10.533    623.281    663.236    637.918    623.281    623.281
 49.270    713.853    681.208     32.645    623.394    665.057    639.539    623.394    623.394
 49.370    649.000    686.778    -37.778    623.508    668.561    641.719    623.508    623.508
 49.470    654.728    695.093    -40.365    623.622    674.007    644.701    623.622    623.622
 49.570    708.000    707.865      0.135    623.736    682.491    649.101    623.736    623.736
 49.670    712.000    729.279    -17.279    623.850    696.777    656.338    623.850    623.850
 49.770    783.000    768.123     14.877    623.963    722.722    669.340    623.963    623.963
 49.870    809.000    840.243    -31.243    624.077    770.985    693.291    624.077    624.077
 49.970    927.000    970.396    -43.396    624.191    857.855    736.655    624.191    624.191
 50.070   1125.000   1187.813    -62.813    624.304   1002.871    809.124    624.304    624.304
 50.170   1497.000   1515.468    -18.468    624.418   1221.387    918.323    624.418    624.418
 50.270   1865.000   1951.945    -86.945    624.531   1512.476   1063.780    624.531    624.531
 50.370   2433.898   2452.797    -18.899    624.644   1846.529   1230.680    624.644    624.644
 50.470   3028.068   2921.825    106.243    624.757   2159.443   1386.950    624.757    624.757
 50.570   3224.000   3226.712     -2.712    624.870   2363.035   1488.461    624.870    624.870
 50.670   3206.000   3256.828    -50.828    624.983   2383.571   1498.289    624.983    624.983
 50.770   2905.000   3000.059    -95.059    625.096   2212.993   1412.321    625.096    625.096
 50.870   2585.136   2553.843     31.293    625.208   1916.312   1262.950    625.208    625.208
 50.970   2124.122   2053.502     70.620    625.321   1583.835   1095.195    625.321    625.321
 51.070   1514.000   1604.938    -90.938    625.433   1286.269    944.274    625.433    625.433
 51.170   1284.000   1262.386     21.614    625.545   1059.836    828.221    625.545    625.545
 51.270   1123.000   1033.968     89.032    625.656    909.926    749.785    625.656    625.656
 51.370    932.720    899.191     33.530    625.768    822.697    702.321    625.768    625.768
 51.470    845.000    827.763     17.237    625.879    777.554    676.131    625.879    625.879
 51.570    823.000    792.335     30.665    625.990    755.610    662.751    625.990    625.990
 51.670    782.000    773.686      8.314    626.101    743.274    656.544    626.101    626.101
 51.770    710.000    761.176    -51.176    626.211    732.952    654.462    626.211    626.211
 51.870    751.000    750.874      0.126    626.321    722.125    655.090    626.321    626.321
 51.970    759.000    742.403     16.597    626.431    711.128    657.720    626.431    626.431
 52.070    721.000    736.170    -15.170    626.540    701.014    661.702    626.540    626.540
 52.170    766.000    732.028     33.972    626.650    692.593    666.084    626.650    626.650
 52.270    728.000    728.995     -0.995    626.758    686.247    669.502    626.758    626.758
 52.370    681.692    725.629    -43.937    626.867    682.013    670.476    626.867    626.867
 52.470    711.286    721.003     -9.717    626.975    679.721    668.251    626.975    626.975
 52.570    688.000    715.457    -27.457    627.083    679.138    663.397    627.083    627.083
 52.670    735.000    710.199     24.801    627.190    680.101    657.285    627.190    627.190
 52.770    755.681    706.561     49.120    627.297    682.640    651.217    627.297    627.297
 52.870    680.000    705.747    -25.747    627.404    687.109    646.042    627.404    627.404
 52.970    698.937    708.982    -10.046    627.510    694.351    642.142    627.510    627.510
 53.070    774.577    717.827     56.750    627.616    705.902    639.542    627.616    627.616
 53.170    784.166    734.503     49.663    627.721    724.154    638.070    627.721    627.721
 53.270    759.000    762.017     -3.017    627.826    752.346    637.497    627.826    627.826
 53.370    804.000    803.790      0.210    627.931    794.165    637.555    627.931    627.931
 53.470    911.000    863.126     47.874    628.035    852.855    638.305    628.035    628.035
 53.570    940.000    941.253     -1.253    628.138    929.755    639.635    628.138    628.138
 53.670    971.000   1035.715    -64.715    628.241   1022.562    641.396    628.241    628.241
 53.770   1131.000   1138.516     -7.516    628.344   1123.481    643.387    628.344    628.344
 53.870   1264.091   1234.481     29.610    628.446   1217.669    645.274    628.446    628.446
 53.970   1227.000   1301.952    -74.952    628.548   1283.929    646.597    628.548    628.548
 54.070   1257.640   1320.130    -62.490    628.649   1301.901    646.914    628.649    628.649
 54.170   1251.960   1282.400    -30.439    628.749   1265.107    646.085    628.749    628.749
 54.270   1265.010   1201.969     63.041    628.849   1186.479    644.382    628.849    628.849
 54.370   1152.866   1101.666     51.199    628.949   1088.374    642.280    628.949    628.949
 54.470    974.000   1001.302    -27.302    629.047    990.191    640.191    629.047    629.047
 54.570    860.000    913.194    -53.194    629.146    903.994    638.371    629.146    629.146
 54.670    854.744    842.914     11.830    629.243    835.240    636.935    629.243    629.243
 54.770    745.153    791.158    -46.005    629.341    784.614    635.898    629.341    629.341
 54.870    770.000    755.605     14.395    629.437    749.842    635.210    629.437    629.437
 54.970    687.723    732.614    -44.891    629.533    727.359    634.795    629.533    629.533
 55.070    745.981    718.498     27.483    629.628    713.556    634.575    629.628    629.628
 55.170    686.000    710.246    -24.246    629.723    705.485    634.488    629.723    629.723
 55.270    675.465    705.742    -30.277    629.817    701.073    634.489    629.817    629.817
 55.370    724.000    703.670     20.330    629.910    699.031    634.553    629.910    629.910
 55.470    767.000    703.294     63.706    630.003    698.637    634.663    630.003    630.003
 55.570    708.608    704.254      4.354    630.095    699.538    634.814    630.095    630.095
 55.670    731.000    706.419     24.581    630.187    701.603    635.004    630.187    630.187
 55.770    667.610    709.810    -42.200    630.277    704.852    635.237    630.277    630.277
 55.870    733.000    714.594     18.406    630.367    709.443    635.520    630.367    630.367
 55.970    732.000    721.141     10.859    630.457    715.732    635.867    630.457    630.457
 56.070    695.000    730.197    -35.197    630.545    724.438    636.307    630.545    630.545
 56.170    752.000    743.207      8.793    630.633    736.951    636.891    630.633    630.633
 56.270    768.000    762.842      5.158    630.720    755.844    637.718    630.720    630.720
 56.370    820.000    793.700     26.300    630.806    785.550    638.954    630.806    630.806
 56.470    872.246    842.999     29.247    630.892    833.021    640.864    630.892    630.892
 56.570    902.000    920.784    -18.784    630.977    907.937    643.811    630.977    630.977
 56.670   1047.100   1039.031      8.069    631.061   1021.840    648.232    631.061    631.061
 56.770   1137.000   1209.039    -72.039    631.144   1185.619    654.537    631.144    631.144
 56.870   1454.000   1437.057     16.943    631.227   1405.298    662.955    631.227    631.227
 56.970   1716.000   1718.876     -2.876    631.309   1676.823    673.332    631.309    631.309
 57.070   2075.000   2034.585     40.415    631.390   1981.011    684.949    631.390    631.390
 57.170   2301.983   2344.671    -42.688    631.470   2279.787    696.371    631.470    631.470
 57.270   2638.000   2590.422     47.578    631.549   2516.571    705.468    631.549    631.549
 57.370   2811.000   2707.747    103.253    631.628   2629.594    709.916    631.628    631.628
 57.470   2716.000   2659.950     56.050    631.705   2583.472    708.383    631.705    631.705
 57.570   2500.000   2463.644     36.356    631.782   2394.191    701.477    631.782    631.782
 57.670   2186.928   2175.724     11.204    631.858   2116.564    691.267    631.858    631.858
 57.770   1836.515   1859.393    -22.878    631.933   1811.496    680.058    631.933    631.933
 57.870   1532.000   1562.710    -30.710    632.007   1525.296    669.613    632.007    632.007
 57.970   1311.001   1313.768     -2.767    632.081   1285.011    660.987    632.081    632.081
 58.070   1099.000   1123.258    -24.258    632.153   1100.880    654.639    632.153    632.153
 58.170    991.000    989.402      1.598    632.225    971.057    650.642    632.225    632.225
 58.270    933.000    903.614     29.386    632.295    887.044    648.910    632.295    632.295
 58.370    863.000    855.618      7.382    632.365    838.584    649.423    632.365    632.365
 58.470    781.000    836.881    -55.881    632.434    816.983    652.340    632.434    632.434
 58.570    874.000    842.010     31.990    632.502    816.526    657.980    632.502    632.502
 58.670    880.000    868.401     11.599    632.569    834.292    666.659    632.569    632.569
 58.770    882.000    914.817    -32.817    632.635    869.005    678.417    632.635    632.635
 58.870   1035.045    979.580     55.465    632.700    919.516    692.723    632.700    632.700
 58.970   1018.000   1058.898    -40.898    632.764    983.344    708.272    632.764    632.764
 59.070   1091.593   1145.797    -54.204    632.827   1055.626    722.951    632.827    632.827
 59.170   1175.900   1230.501    -54.601    632.889   1129.131    734.220    632.889    632.889
 59.270   1283.000   1303.093    -20.093    632.950   1195.979    740.040    632.950    632.950
 59.370   1427.772   1356.578     71.193    633.010   1249.759    739.823    633.010    633.010
 59.470   1332.415   1386.901    -54.486    633.070   1285.603    734.379    633.070    633.070
 59.570   1454.044   1391.449     62.595    633.128   1299.526    725.079    633.128    633.128
 59.670   1316.104   1370.881    -54.777    633.185   1290.767    713.337    633.185    633.185
 59.770   1346.000   1332.737     13.263    633.241   1265.380    700.633    633.241    633.241
 59.870   1306.000   1290.541     15.459    633.296   1235.466    688.391    633.296    633.296
 59.970   1280.000   1258.445     21.555    633.350   1214.141    677.645    633.350    633.350
 60.070   1343.000   1246.783     96.217    633.404   1211.281    668.858    633.404    633.404
 60.170   1187.927   1261.036    -73.109    633.456   1232.367    662.032    633.456    633.456
 60.270   1344.000   1302.823     41.177    633.507   1279.259    656.930    633.507    633.507
 60.370   1435.000   1370.067     64.933    633.556   1350.181    653.254    633.556    633.556
 60.470   1561.000   1454.998    106.002    633.605   1437.653    650.720    633.605    633.605
 60.570   1567.000   1542.117     24.883    633.653   1526.439    649.071    633.653    633.653
 60.670   1629.178   1608.898     20.280    633.700   1594.236    648.094    633.700    633.700
 60.770   1640.000   1631.528      8.472    633.745   1617.393    647.629    633.745    633.745
 60.870   1654.589   1596.004     58.584    633.790   1582.013    647.570    633.790    633.790
 60.970   1492.709   1506.606    -13.897    633.833   1492.423    647.854    633.833    633.833
 61.070   1338.000   1382.383    -44.383    633.876   1367.688    648.457    633.876    633.876
 61.170   1243.000   1246.393     -3.393    633.917   1230.842    649.393    633.917    633.917
 61.270   1099.000   1117.845    -18.845    633.957   1101.018    650.736    633.957    633.957
 61.370   1044.571   1009.444     35.127    633.996    990.755    652.654    633.996    633.996
 61.470    928.000    927.663      0.337    634.034    906.198    655.475    634.034    634.034
 61.570    855.074    874.350    -19.276    634.070    848.626    659.771    634.070    634.070
 61.670    804.407    848.970    -44.563    634.106    816.585    666.461    634.106    634.106
 61.770    800.000    850.796    -50.796    634.140    808.016    676.878    634.140    634.140
 61.870    823.616    880.349    -56.733    634.173    821.718    692.744    634.173    634.173
 61.970   1001.353    939.617     61.736    634.205    857.770    715.968    634.205    634.205
 62.070    984.026   1030.967    -46.940    634.236    916.876    748.212    634.236    634.236
 62.170   1183.514   1155.030     28.484    634.266    998.892    790.254    634.266    634.266
 62.270   1302.000   1308.154     -6.154    634.294   1101.018    841.246    634.294    634.294
 62.370   1510.000   1480.092     29.908    634.322   1216.145    898.053    634.322    634.322
 62.470   1580.818   1652.526    -71.707    634.348   1331.797    954.842    634.348    634.348
 62.570   1831.000   1799.282     31.718    634.373   1430.232   1003.190    634.373    634.373
 62.670   1877.000   1890.524    -13.524    634.396   1491.249   1033.461    634.396    634.396
 62.770   1865.000   1903.229    -38.229    634.419   1499.263   1038.218    634.419    634.419
 62.870   1798.000   1833.566    -35.566    634.440   1451.659   1016.228    634.440    634.440
 62.970   1674.000   1699.443    -25.443    634.460   1360.524    973.305    634.460    634.460
 63.070   1451.000   1530.066    -79.066    634.479   1245.585    918.919    634.479    634.479
 63.170   1288.000   1353.500    -65.500    634.497   1125.807    862.172    634.497    634.497
 63.270   1160.000   1190.478    -30.478    634.513   1015.195    809.791    634.513    634.513
 63.370    956.000   1053.229    -97.229    634.528    922.012    765.745    634.528    634.528
 63.470    954.000    946.432      7.568    634.542    849.418    731.557    634.542    634.542
 63.570    823.000    869.069    -46.069    634.555    796.721    706.902    634.555    634.555
 63.670    797.000    816.808    -19.808    634.566    760.995    690.376    634.566    634.566
 63.770    790.000    784.030      5.970    634.576    738.444    680.157    634.576    634.576
 63.870    765.000    765.559     -0.559    634.585    725.573    674.562    634.585    634.585
 63.970    741.000    757.601    -16.601    634.592    719.816    672.366    634.592    634.592
 64.070    824.000    758.105     65.895    634.599    719.755    672.934    634.599    634.599
 64.170    788.000    766.765     21.235    634.604    725.081    676.269    634.604    634.604
 64.270    754.000    784.828    -30.828    634.607    736.405    683.005    634.607    634.607
 64.370    834.000    814.765     19.235    634.610    754.957    694.382    634.610    634.610
 64.470    816.581    859.772    -43.192    634.611    782.188    712.147    634.611    634.611
 64.570    973.092    923.031     50.061    634.611    819.264    738.312    634.611    634.611
 64.670   1018.049   1006.678     11.370    634.609    866.468    774.735    634.609    634.609
 64.770   1119.481   1110.574      8.907    634.606    922.578    822.496    634.606    634.606
 64.870   1243.000   1230.999     12.001    634.602    984.299    881.175    634.602    634.602
 64.970   1373.000   1359.558     13.442    634.597   1045.855    948.156    634.597    634.597
 65.070   1442.000   1482.813    -40.813    634.590   1099.137   1018.116    634.590    634.590
 65.170   1551.250   1583.621    -32.371    634.582   1135.213   1082.848    634.582    634.582
 65.270   1619.353   1644.907    -25.554    634.572   1147.442   1131.916    634.572    634.572
 65.370   1761.000   1654.969    106.031    634.561   1134.340   1155.103    634.561    634.561
 65.470   1650.000   1612.123     37.877    634.549   1099.907   1146.716    634.549    634.549
 65.570   1506.000   1525.863    -19.863    634.536   1051.598   1108.787    634.536    634.536
 65.670   1380.000   1412.930    -32.930    634.521    997.613   1049.854    634.521    634.521
 65.770   1261.566   1290.914    -29.348    634.505    944.767    980.687    634.505    634.505
 65.870   1137.373   1173.681    -36.307    634.487    897.445    910.769    634.487    634.487
 65.970   1043.000   1069.864    -26.864    634.468    857.526    846.858    634.468    634.468
 66.070   1045.517    983.306     62.211    634.448    824.962    792.842    634.448    634.448
 66.170    897.000    914.381    -17.381    634.426    798.722    750.131    634.426    634.426
 66.270    821.629    861.465    -39.837    634.403    777.639    718.269    634.403    634.403
 66.370    836.694    822.051     14.643    634.379    760.800    695.661    634.379    634.379
 66.470    773.000    793.412    -20.412    634.353    747.542    680.247    634.353    634.353
 66.570    725.981    773.021    -47.040    634.326    737.353    670.011    634.326    634.326
 66.670    737.395    758.805    -21.410    634.297    729.844    663.271    634.297    634.297
 66.770    720.000    749.245    -29.245    634.267    724.745    658.776    634.267    634.267
 66.870    738.000    743.341     -5.341    634.236    721.901    655.683    634.236    634.236
 66.970    708.000    740.521    -32.521    634.203    721.269    653.461    634.203    634.203
 67.070    713.000    740.575    -27.574    634.169    722.945    651.803    634.169    634.169
 67.170    793.527    743.664     49.863    634.133    727.257    650.544    634.133    634.133
 67.270    763.719    750.431     13.288    634.096    734.921    649.610    634.096    634.096
 67.370    818.358    762.191     56.167    634.058    747.266    648.987    634.058    634.058
 67.470    794.000    781.184     12.816    634.018    766.492    648.713    634.018    634.018
 67.570    809.000    810.814     -1.814    633.977    795.920    648.872    633.977    633.977
 67.670    831.000    855.774    -24.774    633.934    840.111    649.597    633.934    633.934
 67.770    895.194    921.883    -26.690    633.890    904.715    651.057    633.890    633.890
 67.870   1012.941   1015.486     -2.545    633.844    995.889    653.441    633.844    633.844
 67.970   1185.660   1142.298     43.362    633.797   1119.178    656.919    633.797    633.797
 68.070   1252.000   1305.740    -53.740    633.749   1277.907    661.593    633.749    633.749
 68.170   1484.000   1505.004    -21.004    633.699   1471.301    667.429    633.699    633.699
 68.270   1715.068   1733.160    -18.092    633.648   1692.655    674.207    633.648    633.648
 68.370   1937.196   1975.659    -38.463    633.595   1927.882    681.466    633.595    633.595
 68.470   2157.397   2209.523    -52.126    633.541   2154.729    688.481    633.541    633.541
 68.570   2576.000   2404.173    171.827    633.486   2343.577    694.291    633.486    633.486
 68.670   2497.000   2526.222    -29.222    633.429   2462.081    697.845    633.429    633.429
 68.770   2576.000   2550.078     25.922    633.370   2485.441    698.339    633.370    633.370
 68.870   2442.747   2470.084    -27.337    633.310   2408.167    695.593    633.310    633.310
 68.970   2261.327   2303.809    -42.482    633.249   2247.273    690.155    633.249    633.249
 69.070   2123.000   2082.874     40.126    633.186   2033.393    683.016    633.186    633.186
 69.170   1855.726   1840.264     15.463    633.122   1798.486    675.209    633.122    633.122
 69.270   1625.000   1602.730     22.270    633.056   1568.476    667.572    633.056    633.056
 69.370   1414.214   1388.589     25.626    632.989   1361.110    660.679    632.989    632.989
 69.470   1318.000   1208.034    109.966    632.920   1186.270    654.848    632.920    632.920
 69.570   1114.000   1064.398     49.602    632.850   1047.188    650.183    632.850    632.850
 69.670   1030.000    955.895     74.105    632.778    942.134    646.627    632.778    632.778
 69.770    967.000    877.571     89.429    632.705    866.313    644.026    632.705    632.705
 69.870    899.000    823.137     75.863    632.631    813.631    642.181    632.631    632.631
 69.970    847.000    786.362     60.638    632.555    778.053    640.895    632.555    632.555
 70.070    797.000    761.914     35.086    632.477    754.417    639.997    632.477    632.477
 70.170    764.889    745.712     19.177    632.399    738.760    639.368    632.399    632.399
 70.270    697.595    734.875    -37.280    632.318    728.291    638.914    632.318    632.318
 70.370    699.748    727.515    -27.767    632.236    721.184    638.576    632.236    632.236
 70.470    757.000    722.475     34.525    632.153    716.318    638.317    632.153    632.153
 70.570    788.000    719.087     68.913    632.068    713.045    638.116    632.068    632.068
 70.670    719.769    716.995      2.773    631.982    711.019    637.962    631.982    631.982
 70.770    717.163    716.044      1.119    631.894    710.089    637.851    631.894    631.894
 70.870    751.000    716.228     34.772    631.805    710.248    637.785    631.805    631.805
 70.970    773.511    717.689     55.822    631.714    711.631    637.770    631.714    631.714
 71.070    703.115    720.750    -17.635    631.622    714.548    637.821    631.622    631.622
 71.170    724.000    726.002     -2.002    631.528    719.564    637.961    631.528    631.528
 71.270    832.000    734.411     97.589    631.433    727.603    638.231    631.433    631.433
 71.370    739.000    747.451     -8.451    631.336    740.082    638.691    631.336    631.336
 71.470    730.000    767.236    -37.236    631.238    759.022    639.430    631.238    631.238
 71.570    777.000    796.567    -19.567    631.138    787.112    640.563    631.138    631.138
 71.670    887.163    838.865     48.298    631.037    827.629    642.229    631.037    631.037
 71.770    872.949    897.878    -24.929    630.935    884.167    644.585    630.935    630.935
 71.870    915.000    977.132    -62.132    630.830    960.106    647.775    630.830    630.830
 71.970   1126.000   1079.128     46.872    630.725   1057.844    651.903    630.725    630.725
 72.070   1284.000   1204.373     79.627    630.618   1177.866    656.992    630.618    630.618
 72.170   1275.156   1350.387    -75.231    630.509   1317.794    662.942    630.509    630.509
 72.270   1439.000   1510.838    -71.838    630.399   1471.558    669.495    630.399    630.399
 72.370   1672.000   1674.924     -2.924    630.288   1628.797    676.212    630.288    630.288
 72.470   1752.263   1827.202    -74.939    630.175   1774.703    682.463    630.175    630.175
 72.570   1986.000   1948.563     37.437    630.060   1890.951    687.467    630.060    630.060
 72.670   2081.560   2019.631     61.929    629.944   1958.958    690.432    629.944    629.944
 72.770   2029.000   2026.949      2.051    629.827   1965.813    690.811    629.827    629.827
 72.870   1894.000   1968.937    -74.937    629.708   1909.991    688.538    629.708    629.708
 72.970   1903.396   1856.717     46.679    629.587   1802.154    684.069    629.587    629.587
 73.070   1635.164   1708.975    -73.810    629.465   1660.221    678.167    629.465    629.465
 73.170   1500.192   1545.332    -45.140    629.342   1503.016    671.629    629.342    629.342
 73.270   1316.334   1382.209    -65.875    629.217   1346.298    665.114    629.217    629.217
 73.370   1208.000   1231.430    -23.430    629.091   1201.428    659.089    629.091    629.091
 73.470   1161.177   1100.245     60.932    628.963   1075.379    653.830    628.963    628.963
 73.570   1012.000    991.893     20.107    628.834    971.277    649.453    628.834    628.834
 73.670    899.000    906.440     -7.440    628.703    889.192    645.954    628.703    628.703
 73.770    837.000    841.762     -4.762    628.570    827.075    643.260    628.570    628.570
 73.870    838.000    794.532     43.468    628.437    781.710    641.260    628.437    628.437
 73.970    750.498    761.062    -10.564    628.301    749.524    639.840    628.301    628.301
 74.070    745.819    737.903      7.916    628.165    727.169    638.900    628.165    628.165
 74.170    693.853    722.185    -28.332    628.027    711.852    638.360    628.027    628.027
 74.270    745.858    711.732     34.126    627.887    701.448    638.173    627.887    627.887
 74.370    686.000    705.016    -19.016    627.746    694.454    638.312    627.746    627.746
 74.470    744.000    701.034     42.966    627.603    689.875    638.769    627.603    627.603
 74.570    666.000    699.146    -33.146    627.459    687.075    639.540    627.459    627.459
 74.670    694.076    698.934     -4.858    627.314    685.646    640.616    627.314    627.314
 74.770    649.530    700.078    -50.548    627.167    685.294    641.970    627.167    627.167
 74.870    725.000    702.272     22.728    627.018    685.765    643.550    627.018    627.018
 74.970    671.000    705.161    -34.161    626.868    686.786    645.274    626.868    626.868
 75.070    706.000    708.309     -2.309    626.717    688.040    647.021    626.717    626.717
 75.170    691.000    711.188    -20.188    626.564    689.153    648.640    626.564    626.564
 75.270    756.632    713.232     43.400    626.410    689.721    649.966    626.410    626.410
 75.370    751.000    713.968     37.032    626.254    689.404    650.865    626.254    626.254
 75.470    687.672    713.205    -25.533    626.097    688.048    651.300    626.097    626.097
 75.570    694.437    711.161    -16.723    625.938    685.766    651.377    625.938    625.938
 75.670    699.000    708.421     -9.421    625.778    682.903    651.335    625.778    625.778
 75.770    730.000    705.795     24.205    625.616    679.936    651.509    625.616    625.616
 75.870    705.994    704.193      1.802    625.453    677.379    652.294    625.453    625.453
 75.970    753.347    704.565     48.782    625.289    675.738    654.136    625.289    625.289
 76.070    656.299    707.905    -51.606    625.123    675.507    657.532    625.123    625.123
 76.170    718.000    715.230      2.770    624.956    677.164    663.024    624.956    624.956
 76.270    684.000    727.547    -43.547    624.787    681.157    671.171    624.787    624.787
 76.370    734.000    745.763    -11.763    624.617    687.871    682.494    624.617    624.617
 76.470    811.875    770.547     41.328    624.445    697.575    697.393    624.445    624.445
 76.570    748.655    802.157    -53.502    624.272    710.357    716.038    624.272    624.272
 76.670    849.008    840.244      8.763    624.098    726.039    738.259    624.098    624.098
 76.770    940.302    883.674     56.629    623.922    744.108    763.435    623.922    623.922
 76.870    905.000    930.368    -25.368    623.745    763.649    790.402    623.745    623.745
 76.970    894.000    977.211    -83.211    623.566    783.309    817.401    623.566    623.566
 77.070   1068.000   1020.056     47.944    623.386    801.293    842.078    623.386    623.386
 77.170   1026.000   1054.001    -28.001    623.205    815.488    861.647    623.205    623.205
 77.270   1042.000   1074.201    -32.201    623.022    823.808    873.349    623.022    623.022
 77.370   1091.000   1077.248     13.752    622.838    824.785    875.243    622.838    622.838
 77.470   1076.000   1062.500     13.500    622.652    818.139    866.966    622.652    622.652
 77.570    980.000   1032.371    -52.371    622.465    804.901    849.898    622.465    622.465
 77.670    959.602    991.323    -31.721    622.276    786.988    826.584    622.276    622.276
 77.770    918.000    944.353    -26.353    622.086    766.541    799.879    622.086    622.086
 77.870    891.000    895.919     -4.919    621.895    745.472    772.329    621.895    621.895
 77.970    789.183    849.488    -60.305    621.703    725.268    745.914    621.703    621.703
 78.070    808.000    807.449      0.551    621.509    706.954    721.999    621.509    621.509
 78.170    750.000    771.188    -21.188    621.313    691.123    701.376    621.313    621.313
 78.270    752.000    741.234     10.766    621.117    678.001    684.349    621.117    621.117
 78.370    700.000    717.439    -17.439    620.919    667.524    670.833    620.919    620.919
 78.470    685.129    699.193    -14.065    620.719    659.430    660.482    620.719    620.719
 78.570    659.295    685.634    -26.339    620.518    653.348    652.804    620.518    620.518
 78.670    654.000    675.820    -21.820    620.316    648.873    647.263    620.316    620.316
 78.770    713.000    668.865     44.135    620.113    645.622    643.355    620.113    620.113
 78.870    710.000    664.010     45.990    619.908    643.271    640.646    619.908    619.908
 78.970    696.000    660.656     35.344    619.702    641.560    638.797    619.702    619.702
 79.070    656.000    658.362     -2.362    619.494    640.300    637.555    619.494    619.494
 79.170    673.000    656.824     16.176    619.286    639.359    636.749    619.286    619.286
 79.270    684.741    655.845     28.896    619.075    638.651    636.268    619.075    619.075
 79.370    611.078    655.311    -44.233    618.864    638.126    636.047    618.864    618.864
 79.470    643.000    655.169    -12.169    618.651    637.759    636.059    618.651    618.651
 79.570    689.889    655.413     34.476    618.437    637.543    636.306    618.437    618.437
 79.670    625.000    656.080    -31.080    618.222    637.484    636.817    618.222    618.222
 79.770    680.000    657.251     22.749    618.005    637.599    637.655    618.005    618.005
 79.870    659.000    659.063     -0.063    617.787    637.918    638.930    617.787    617.787
 79.970    661.724    661.729     -0.004    617.568    638.480    640.814    617.568    617.568
 80.070    631.894    665.568    -33.674    617.348    639.337    643.574    617.348    617.348
 80.170    684.525    671.046     13.479    617.126    640.563    647.604    617.126    617.126
 80.270    701.000    678.816     22.184    616.903    642.250    653.461    616.903    616.903
 80.370    668.309    689.755    -21.446    616.678    644.525    661.898    616.678    616.678
 80.470    724.000    704.981     19.019    616.453    647.545    673.876    616.453    616.453
 80.570    735.000    725.835      9.165    616.226    651.504    690.540    616.226    616.226
 80.670    743.000    753.798    -10.798    615.998    656.625    713.149    615.998    615.998
 80.770    783.000    790.345     -7.345    615.769    663.150    742.937    615.769    615.769
 80.870    872.000    836.738     35.262    615.538    671.321    780.923    615.538    615.538
 80.970    899.000    893.765      5.235    615.306    681.362    827.673    615.306    615.306
 81.070   1027.275    961.459     65.816    615.073    693.454    883.039    615.073    615.073
 81.170   1088.000   1038.810     49.190    614.839    707.686    945.923    614.839    614.839
 81.270   1210.000   1123.505     86.495    614.604    723.990   1014.081    614.604    614.604
 81.370   1198.048   1211.782    -13.734    614.367    742.080   1084.037    614.367    614.367
 81.470   1275.570   1298.457    -22.887    614.129    761.405   1151.160    614.129    614.129
 81.570   1449.000   1377.283     71.717    613.890    781.157   1210.009    613.890    613.890
 81.670   1499.364   1441.739     57.625    613.650    800.342   1255.059    613.650    613.650
 81.770   1568.000   1486.197     81.803    613.409    817.898   1281.739    613.409    613.409
 81.870   1549.574   1507.105     42.469    613.166    832.890   1287.435    613.166    613.166
 81.970   1596.000   1503.504     92.496    612.922    844.597   1271.902    612.922    612.922
 82.070   1519.731   1476.769     42.963    612.677    852.500   1237.037    612.677    612.677
 82.170   1497.000   1430.304     66.696    612.431    856.390   1186.451    612.431    612.431
 82.270   1410.268   1368.942     41.326    612.184    856.325   1124.916    612.184    612.184
 82.370   1309.000   1298.120     10.880    611.936    852.520   1057.658    611.936    611.936
 82.470   1245.238   1223.009     22.229    611.686    845.224    989.594    611.686    611.686
 82.570   1209.000   1147.935     61.065    611.436    834.743    924.748    611.436    611.436
 82.670   1015.541   1076.214    -60.673    611.184    821.543    865.971    611.184    611.184
 82.770   1054.000   1010.184     43.816    610.931    806.301    814.923    610.931    610.931
 82.870    977.000    951.245     25.755    610.677    789.805    772.216    610.677    610.677
 82.970    934.000    899.906     34.094    610.422    772.780    737.637    610.422    610.422
 83.070    839.000    855.964    -16.964    610.166    755.792    710.417    610.166    610.166
 83.170    780.987    818.785    -37.799    609.909    739.277    689.487    609.909    609.909
 83.270    811.913    787.609     24.304    609.651    723.616    673.703    609.651    609.651
 83.370    720.757    761.746    -40.990    609.391    709.182    662.005    609.391    609.391
 83.470    731.000    740.647     -9.647    609.131    696.325    653.493    609.131    609.131
 83.570    653.000    723.893    -70.893    608.870    685.335    647.457    608.870    608.870
 83.670    680.000    711.156    -31.156    608.607    676.413    643.371    608.607    608.607
 83.770    642.000    702.166    -60.166    608.344    669.663    640.857    608.344    608.344
 83.870    713.171    696.662     16.509    608.079    665.090    639.652    608.079    608.079
 83.970    645.000    694.359    -49.359    607.814    662.607    639.558    607.814    607.814
 84.070    702.000    694.902      7.098    607.547    662.028    640.404    607.547    607.547
 84.170    734.771    697.841     36.930    607.279    663.080    642.016    607.279    607.279
 84.270    659.000    702.610    -43.610    607.011    665.399    644.188    607.011    607.011
 84.370    682.000    708.520    -26.520    606.741    668.544    646.677    606.741    606.741
 84.470    765.467    714.774     50.693    606.471    672.006    649.192    606.471    606.471
 84.570    744.368    720.493     23.875    606.199    675.232    651.409    606.199    606.199
 84.670    741.141    724.780     16.361    605.927    677.663    652.991    605.927    605.927
 84.770    677.214    726.845    -49.631    605.654    678.808    653.637    605.654    605.654
 84.870    671.000    726.161    -55.161    605.379    678.338    653.150    605.379    605.379
 84.970    648.000    722.597    -74.597    605.104    676.163    651.489    605.104    605.104
 85.070    707.339    716.439     -9.100    604.828    672.442    648.781    604.828    604.828
 85.170    635.000    708.286    -73.286    604.551    667.521    645.277    604.551    604.551
 85.270    642.000    698.876    -56.876    604.273    661.828    641.287    604.273    604.273
 85.370    655.000    688.950    -33.950    603.994    655.790    637.125    603.994    603.994
 85.470    695.520    679.162     16.358    603.714    649.779    633.073    603.714    603.714
 85.570    647.000    670.050    -23.050    603.433    644.092    629.371    603.433    603.433
 85.670    713.194    662.020     51.173    603.152    638.943    626.212    603.152    603.152
 85.770    601.000    655.350    -54.350    602.870    634.464    623.741    602.870    602.870
 85.870    695.801    650.201     45.600    602.586    630.711    622.063    602.586    602.586
 85.970    674.000    646.642     27.358    602.302    627.684    621.248    602.302    602.302
 86.070    622.000    644.671    -22.671    602.017    625.344    621.331    602.017    602.017
 86.170    597.947    644.227    -46.280    601.732    623.623    622.321    601.732    601.732
 86.270    676.682    645.214     31.468    601.445    622.449    624.195    601.445    601.445
 86.370    658.000    647.512     10.488    601.158    621.755    626.896    601.158    601.158
 86.470    637.000    650.976    -13.976    600.870    621.497    630.329    600.870    600.870
 86.570    706.623    655.444     51.179    600.581    621.653    634.348    600.581    600.581
 86.670    713.000    660.729     52.271    600.291    622.234    638.759    600.291    600.291
 86.770    657.000    666.618     -9.618    600.001    623.279    643.309    600.001    600.001
 86.870    682.000    672.876      9.124    599.710    624.861    647.690    599.710    599.710
 86.970    673.000    679.247     -6.247    599.418    627.076    651.550    599.418    599.418
 87.070    662.000    685.478    -23.478    599.125    630.039    654.520    599.125    599.125
 87.170    654.176    691.358    -37.181    598.832    633.874    656.267    598.832    598.832
 87.270    729.000    696.778     32.222    598.538    638.697    656.565    598.538    598.538
 87.370    717.000    701.771     15.229    598.243    644.599    655.356    598.243    598.243
 87.470    755.000    706.506     48.494    597.947    651.627    652.760    597.947    597.947
 87.570    742.723    711.215     31.508    597.651    659.759    649.032    597.651    597.651
 87.670    762.400    716.108     46.292    597.355    668.882    644.497    597.355    597.355
 87.770    695.557    721.284    -25.728    597.057    678.775    639.474    597.057    597.057
 87.870    722.000    726.690     -4.690    596.759    689.093    634.254    596.759    596.759
 87.970    744.000    732.096     11.904    596.460    699.366    629.080    596.460    596.460
 88.070    756.000    737.102     18.898    596.161    708.997    624.146    596.161    596.161
 88.170    751.397    741.163     10.235    595.861    717.302    619.597    595.861    595.861
 88.270    736.000    743.672     -7.672    595.561    723.583    615.523    595.561    595.561
 88.370    757.000    744.092     12.908    595.260    727.260    611.966    595.260    595.260
 88.470    726.584    742.118    -15.533    594.958    728.028    608.927    594.958    594.958
 88.570    753.000    737.778     15.222    594.656    725.944    606.377    594.656    594.656
 88.670    766.000    731.434     34.566    594.353    721.417    604.269    594.353    594.353
 88.770    743.000    723.674     19.326    594.050    715.092    602.543    594.050    594.050
 88.870    734.000    715.183     18.817    593.746    707.711    601.143    593.746    593.746
 88.970    707.000    706.648      0.352    593.442    700.016    600.014    593.442    593.442
 89.070    691.000    698.695     -7.695    593.137    692.678    599.107    593.137    593.137
 89.170    706.000    691.855     14.145    592.831    686.271    598.382    592.831    592.831
 89.270    642.221    686.536    -44.315    592.526    681.235    597.806    592.526    592.526
 89.370    626.000    682.999    -56.999    592.219    677.859    597.351    592.219    592.219
 89.470    644.000    681.347    -37.347    591.913    676.267    596.995    591.913    591.913
 89.570    681.000    681.518     -0.518    591.606    676.420    596.715    591.606    591.606
 89.670    691.802    683.296      8.505    591.298    678.122    596.494    591.298    591.298
 89.770    699.000    686.327     12.673    590.990    681.036    596.312    590.990    590.990
 89.870    715.823    690.133     25.690    590.682    684.706    596.148    590.682    590.682
 89.970    646.365    694.144    -47.779    590.373    688.582    595.981    590.373    590.373
 90.070    665.893    697.732    -31.838    590.064    692.059    595.790    590.064    590.064
 90.170    738.000    700.271     37.729    589.754    694.531    595.553    589.754    589.754
 90.270    784.000    701.225     82.775    589.444    695.479    595.253    589.444    589.444
 90.370    706.000    700.244      5.756    589.134    694.566    594.879    589.134    589.134
 90.470    749.653    697.239     52.414    588.824    691.701    594.428    588.824    588.824
 90.570    653.000    692.380    -39.380    588.513    687.049    593.909    588.513    588.513
 90.670    707.367    686.034     21.332    588.202    680.962    593.335    588.202    588.202
 90.770    628.680    678.667    -49.987    587.890    673.888    592.725    587.890    587.890
 90.870    643.000    670.757    -27.757    587.579    666.289    592.097    587.579    587.579
 90.970    643.000    662.738    -19.738    587.267    658.583    591.466    587.267    587.267
 91.070    684.000    654.973     29.027    586.955    651.120    590.846    586.955    586.955
 91.170    641.000    647.745     -6.745    586.642    644.172    590.247    586.642    586.642
 91.270    630.000    641.253    -11.253    586.330    637.931    589.677    586.330    586.330
 91.370    628.000    635.618     -7.618    586.017    632.514    589.141    586.017    586.017
 91.470    674.674    630.891     43.783    585.704    627.972    588.639    585.704    585.704
 91.570    588.366    627.070    -38.704    585.391    624.300    588.172    585.391    585.391
 91.670    583.198    624.113    -40.915    585.077    621.459    587.739    585.077    585.077
 91.770    608.000    621.954    -13.954    584.764    619.386    587.337    584.764    584.764
 91.870    601.469    620.523    -19.054    584.450    618.013    586.964    584.450    584.450
 91.970    584.719    619.759    -35.040    584.137    617.279    586.617    584.137    584.137
 92.070    584.000    619.617    -35.617    583.823    617.145    586.295    583.823    583.823
 92.170    635.660    620.085     15.575    583.509    617.594    585.998    583.509    583.509
 92.270    591.502    621.180    -29.678    583.195    618.645    585.726    583.195    583.195
 92.370    609.000    622.956    -13.956    582.881    620.349    585.482    582.881    582.881
 92.470    631.000    625.499      5.501    582.567    622.789    585.269    582.567    582.567
 92.570    583.000    628.931    -45.931    582.253    626.083    585.091    582.253    582.253
 92.670    637.000    633.393      3.607    581.939    630.366    584.953    581.939    581.939
 92.770    658.000    639.041     18.959    581.625    635.788    584.861    581.625    581.625
 92.870    619.796    646.032    -26.237    581.311    642.502    584.820    581.311    581.311
 92.970    633.000    654.512    -21.512    580.997    650.649    584.834    580.997    580.997
 93.070    682.000    664.595     17.405    580.683    660.342    584.906    580.683    580.683
 93.170    678.000    676.353      1.647    580.369    671.649    585.037    580.369    580.369
 93.270    680.762    689.798     -9.036    580.055    684.584    585.226    580.055    580.055
 93.370    735.000    704.869     30.131    579.741    699.090    585.471    579.741    579.741
 93.470    719.000    721.423     -2.423    579.428    715.027    585.768    579.428    579.428
 93.570    704.101    739.228    -35.128    579.114    732.169    586.110    579.114    579.114
 93.670    767.000    757.961      9.039    578.801    750.197    586.495    578.801    578.801
 93.770    740.000    777.215    -37.215    578.488    768.708    586.920    578.488    578.488
 93.870    817.000    796.536     20.464    578.175    787.242    587.388    578.175    578.175
 93.970    796.000    815.478    -19.478    577.862    805.344    587.912    577.862    577.862
 94.070    880.149    833.704     46.445    577.550    822.649    588.518    577.550    577.550
 94.170    782.000    851.075    -69.075    577.237    838.973    589.251    577.237    577.237
 94.270    845.000    867.695    -22.695    576.925    854.356    590.175    576.925    576.925
 94.370    862.000    883.873    -21.873    576.613    869.029    591.368    576.613    576.613
 94.470    842.540    900.008    -57.468    576.302    883.302    592.919    576.302    576.302
 94.570    928.000    916.457     11.543    575.990    897.450    594.909    575.990    575.990
 94.670    895.000    933.430    -38.430    575.679    911.614    597.407    575.679    575.679
 94.770    954.000    950.953      3.047    575.369    925.778    600.458    575.369    575.369
 94.870    980.000    968.896     11.104    575.058    939.803    604.067    575.058    575.058
 94.970   1008.000    987.032     20.968    574.748    953.499    608.199    574.748    574.748
 95.070    974.811   1005.086    -30.275    574.439    966.676    612.769    574.439    574.439
 95.170   1036.000   1022.718     13.282    574.130    979.131    617.639    574.130    574.130
 95.270   1040.000   1039.447      0.553    573.821    990.573    622.622    573.821    573.821
 95.370   1059.000   1054.576      4.424    573.513   1000.543    627.478    573.513    573.513
 95.470   1064.030   1067.195     -3.165    573.205   1008.405    631.933    573.205    573.205
 95.570   1127.000   1076.127     50.873    572.897   1013.281    635.690    572.897    572.897
 95.670   1147.000   1080.135     66.865    572.590   1014.225    638.456    572.590    572.590
 95.770   1104.000   1078.143     25.857    572.284   1010.409    639.983    572.284    572.284
 95.870   1104.000   1069.495     34.505    571.978   1001.333    640.115    571.978    571.978
 95.970   1024.291   1054.170    -29.879    571.673    987.013    638.814    571.673    571.673
 96.070   1062.471   1032.859     29.612    571.368    968.046    636.174    571.368    571.368
 96.170    952.923   1006.864    -53.941    571.063    945.525    632.402    571.063    571.063
 96.270   1002.000    977.883     24.117    570.760    920.877    627.770    570.760    570.760
 96.370    938.096    947.793     -9.696    570.457    895.678    622.579    570.457    570.457
 96.470    948.000    918.478     29.522    570.154    871.519    617.122    570.154    570.154
 96.570    952.000    891.732     60.268    569.852    849.929    611.662    569.852    569.852
 96.670    835.000    869.192    -34.192    569.551    832.325    606.423    569.551    569.551
 96.770    882.000    852.314     29.686    569.251    819.988    601.577    569.251    569.251
 96.870    830.000    842.346    -12.346    568.951    814.043    597.248    568.951    568.951
 96.970    818.000    840.317    -22.317    568.652    815.447    593.511    568.652    568.652
 97.070    896.906    847.035     49.871    568.354    824.975    590.395    568.354    568.354
 97.170    901.000    863.069     37.931    568.056    843.203    587.895    568.056    568.056
 97.270    934.000    888.740     45.260    567.759    870.484    585.979    567.759    567.759
 97.370    995.000    924.100     70.900    567.463    906.920    584.598    567.463    567.463
 97.470    996.000    968.895     27.105    567.168    952.315    583.694    567.168    567.168
 97.570   1040.000   1022.491     17.509    566.874   1006.099    583.201    566.874    566.874
 97.670   1111.000   1083.999     27.001    566.580   1067.449    583.058    566.580    566.580
 97.770   1168.059   1151.999     16.059    566.288   1135.011    583.197    566.288    566.288
 97.870   1240.000   1224.619     15.381    565.996   1206.981    583.549    565.996    565.996
 97.970   1257.145   1299.511    -42.366    565.705   1281.086    584.043    565.705    565.705
 98.070   1286.000   1373.830    -87.830    565.415   1354.555    584.603    565.415    565.415
 98.170   1505.000   1444.289     60.711    565.126   1424.179    585.151    565.126    565.126
 98.270   1546.000   1507.262     38.738    564.838   1486.417    585.606    564.838    564.838
 98.370   1603.477   1559.038     44.438    564.551   1537.636    585.887    564.551    564.551
 98.470   1621.136   1596.214     24.922    564.265   1574.505    585.923    564.265    564.265
 98.570   1700.135   1616.220     83.915    563.980   1594.506    585.661    563.980    563.980
 98.670   1703.000   1617.803     85.197    563.696   1596.413    585.072    563.696    563.696
 98.770   1650.389   1601.282     49.107    563.413   1580.537    584.164    563.413    563.413
 98.870   1619.175   1568.452     50.722    563.132   1548.637    582.971    563.132    563.132
 98.970   1571.845   1522.213     49.632    562.851   1503.555    581.548    562.851    562.851
 99.070   1518.000   1466.083     51.917    562.572   1448.740    579.964    562.572    562.572
 99.170   1341.299   1403.779    -62.481    562.293   1387.841    578.289    562.293    562.293
 99.270   1291.000   1338.917    -47.917    562.016   1324.404    576.590    562.016    562.016
 99.370   1271.000   1274.824     -3.824    561.740   1261.698    574.928    561.740    561.740
 99.470   1239.020   1214.445     24.575    561.465   1202.614    573.355    561.465    561.465
 99.570   1206.000   1160.300     45.700    561.192   1149.631    571.916    561.192    561.192
 99.670   1121.000   1114.481      6.519    560.919   1104.805    570.643    560.919    560.919
 99.770   1069.395   1078.668     -9.273    560.648   1069.793    569.563    560.648    560.648
 99.870   1081.577   1054.159     27.418    560.379   1045.876    568.692    560.379    560.379
 99.970   1057.000   1041.895     15.105    560.110   1033.989    568.039    560.110    560.110
100.070   1040.000   1042.483     -2.483    559.843   1034.737    567.603    559.843    559.843
100.170   1010.022   1056.209    -46.187    559.578   1048.415    567.378    559.578    559.578
100.270   1033.326   1083.050    -49.724    559.313   1075.011    567.353    559.313    559.313
100.370   1143.000   1122.677     20.323    559.050   1114.217    567.507    559.050    559.050
100.470   1228.102   1174.458     53.644    558.789   1165.422    567.819    558.789    558.789
100.570   1268.674   1237.444     31.230    558.529   1227.708    568.260    558.529    558.529
100.670   1287.000   1310.358    -23.358    558.270   1299.829    568.797    558.270    558.270
100.770   1424.000   1391.571     32.429    558.013   1380.193    569.395    558.013    558.013
100.870   1551.000   1479.084     71.916    557.758   1466.841    570.014    557.758    557.758
100.970   1501.654   1570.521    -68.867    557.504   1557.438    570.612    557.504    557.504
101.070   1683.000   1663.154     19.846    557.251   1649.302    571.145    557.251    557.251
101.170   1759.000   1754.073      4.927    557.000   1739.562    571.572    557.000    557.000
101.270   1760.443   1840.298    -79.855    556.751   1825.276    571.856    556.751    556.751
101.370   1916.000   1919.071     -3.071    556.504   1903.709    571.972    556.504    556.504
101.470   1978.000   1988.103    -10.103    556.258   1972.584    571.907    556.258    556.258
101.570   2069.000   2045.704     23.296    556.013   2030.204    571.668    556.013    556.013
101.670   2107.992   2090.728     17.263    555.771   2075.403    571.274    555.771    555.771
101.770   2050.000   2122.397    -72.397    555.530   2107.366    570.759    555.530    555.530
101.870   2209.696   2140.093     69.603    555.291   2125.439    570.161    555.291    555.291
101.970   2150.271   2143.286      6.985    555.053   2129.051    569.520    555.053    555.053
102.070   2163.174   2131.635     31.539    554.818   2117.822    568.874    554.818    554.818
102.170   2035.000   2105.262    -70.262    554.584   2091.842    568.256    554.584    554.584
102.270   2074.000   2065.056      8.944    554.352   2051.972    567.692    554.352    554.352
102.370   2021.000   2012.841      8.159    554.122   2000.015    567.204    554.122    554.122
102.470   1993.000   1951.301     41.699    553.894   1938.641    566.806    553.894    553.894
102.570   1871.387   1883.665    -12.279    553.668   1871.077    566.501    553.668    553.668
102.670   1812.000   1813.292     -1.292    553.443   1800.682    566.288    553.443    553.443
102.770   1706.350   1743.273    -36.922    553.221   1730.561    566.155    553.221    553.221
102.870   1650.000   1676.161    -26.161    553.001   1663.286    566.085    553.001    553.001
102.970   1669.910   1613.836     56.074    552.782   1600.759    566.054    552.782    552.782
103.070   1506.851   1557.455    -50.604    552.566   1544.166    566.038    552.566    552.566
103.170   1504.931   1507.483     -2.552    552.352   1493.993    566.011    552.352    552.352
103.270   1388.633   1463.734    -75.101    552.139   1450.082    565.951    552.139    552.139
103.370   1353.211   1425.452    -72.241    551.929   1411.695    565.836    551.929    551.929
103.470   1466.458   1391.407     75.051    551.721   1377.625    565.646    551.721    551.721
103.570   1262.000   1360.039    -98.039    551.515   1346.327    565.365    551.515    551.515
103.670   1266.384   1329.649    -63.265    551.312   1316.118    564.976    551.312    551.312
103.770   1266.000   1298.632    -32.632    551.110   1285.402    564.470    551.110    551.110
103.870   1307.027   1265.709     41.317    550.911   1252.906    563.842    550.911    550.911
103.970   1264.000   1230.099     33.901    550.714   1217.841    563.097    550.714    550.714
104.070   1188.000   1191.579     -3.579    550.519   1179.971    562.249    550.519    550.519
104.170   1170.000   1150.421     19.579    550.327   1139.547    561.317    550.327    550.327
104.270   1160.360   1107.257     53.104    550.137   1097.178    560.327    550.137    550.137
104.370    993.000   1062.916    -69.916    549.949   1053.666    559.305    549.949    549.949
104.470   1011.000   1018.295     -7.295    549.764   1009.884    558.273    549.764    549.764
104.570   1038.000    974.263     63.737    549.581    966.680    557.255    549.581    549.581
104.670    941.284    931.609      9.675    549.400    924.824    556.269    549.400    549.400
104.770    928.860    891.012     37.848    549.222    884.982    555.328    549.222    549.222
104.870    848.000    853.024     -5.024    549.046    847.693    554.445    549.046    549.046
104.970    809.142    818.059     -8.917    548.873    813.366    553.625    548.873    548.873
105.070    785.000    786.394     -1.394    548.703    782.274    552.875    548.703    548.703
105.170    758.000    758.169     -0.169    548.535    754.555    552.193    548.535    548.535
105.270    735.000    733.394      1.606    548.369    730.224    551.577    548.369    548.369
105.370    702.000    711.985     -9.985    548.207    709.201    551.023    548.207    548.207
105.470    773.000    693.808     79.192    548.046    691.342    550.539    548.046    548.046
105.570    663.425    678.612    -15.187    547.889    676.409    550.113    547.889    547.889
105.670    716.564    666.122     50.442    547.734    664.136    549.738    547.734    547.734
105.770    675.000    656.071     18.929    547.582    654.258    549.409    547.582    547.582
105.870    684.000    648.176     35.824    547.433    646.499    549.120    547.433    547.433
105.970    692.000    642.179     49.821    547.286    640.607    548.866    547.286    547.286
106.070    698.000    637.856     60.144    547.142    636.360    548.643    547.142    547.142
106.170    648.000    635.016     12.984    547.001    633.573    548.447    547.001    547.001
106.270    662.000    633.510     28.490    546.863    632.099    548.274    546.863    546.863
106.370    608.594    633.230    -24.636    546.728    631.832    548.124    546.728    546.728
106.470    688.000    634.100     53.900    546.596    632.698    547.993    546.596    546.596
106.570    595.429    636.081    -40.652    546.466    634.659    547.881    546.466    546.466
106.670    677.000    639.153     37.847    546.340    637.696    547.787    546.340    546.340
106.770    692.952    643.317     49.636    546.217    641.809    547.711    546.217    546.217
106.870    621.838    648.581    -26.744    546.096    647.009    547.653    546.096    546.096
106.970    675.000    654.957     20.043    545.979    653.305    547.612    545.979    545.979
107.070    669.000    662.448      6.552    545.865    660.702    547.589    545.865    545.865
107.170    722.014    671.040     50.974    545.753    669.186    547.583    545.753    545.753
107.270    710.000    680.697     29.303    545.645    678.721    547.593    545.645    545.645
107.370    676.000    691.348    -15.348    545.540    689.237    547.619    545.540    545.540
107.470    754.000    702.882     51.118    545.439    700.626    547.659    545.439    545.439
107.570    686.000    715.145    -29.145    545.340    712.736    547.711    545.340    545.340
107.670    776.372    727.934     48.438    545.245    725.366    547.771    545.245    545.245
107.770    733.301    741.001     -7.700    545.153    738.272    547.837    545.153    545.153
107.870    739.000    754.050    -15.050    545.064    751.164    547.904    545.064    545.064
107.970    806.411    766.751     39.660    544.979    763.714    547.967    544.979    544.979
108.070    765.000    778.742    -13.742    544.897    775.567    548.022    544.897    544.897
108.170    808.000    789.653     18.347    544.819    786.359    548.062    544.819    544.819
108.270    752.000    799.134    -47.134    544.743    795.745    548.083    544.743    544.743
108.370    824.000    806.893     17.107    544.672    803.437    548.080    544.672    544.672
108.470    870.968    812.736     58.232    544.603    809.244    548.050    544.603    544.603
108.570    793.000    816.606    -23.606    544.539    813.111    547.992    544.539    544.539
108.670    824.000    818.596      5.404    544.478    815.129    547.906    544.478    544.478
108.770    869.000    818.941     50.059    544.420    815.532    547.796    544.420    544.420
108.870    794.000    817.987    -23.987    544.366    814.660    547.664    544.366    544.366
108.970    771.099    816.139    -45.040    544.316    812.912    547.517    544.316    544.316
109.070    771.000    813.815    -42.815    544.269    810.703    547.361    544.269    544.269
109.170    766.000    811.406    -45.406    544.226    808.416    547.200    544.226    544.226
109.270    739.000    809.243    -70.243    544.186    806.378    547.040    544.186    544.186
109.370    775.000    807.580    -32.580    544.151    804.839    546.885    544.151    544.151
109.470    732.000    806.581    -74.581    544.119    803.959    546.739    544.119    544.119
109.570    741.000    806.316    -65.316    544.091    803.804    546.604    544.091    544.091
109.670    815.000    806.753      8.247    544.067    804.343    546.482    544.067    544.067
109.770    770.000    807.767    -37.767    544.046    805.449    546.373    544.046    544.046
109.870    781.000    809.142    -28.142    544.030    806.906    546.278    544.030    544.030
109.970    806.000    810.582     -4.582    544.018    808.419    546.196    544.018    544.018
110.070    804.570    811.730     -7.160    544.009    809.633    546.125    544.009    544.009
110.170    819.000    812.201      6.799    544.005    810.166    546.062    544.005    544.005
110.270    849.000    811.618     37.382    544.004    809.640    546.007    544.004    544.004
110.370    828.000    809.656     18.344    544.008    807.735    545.955    544.008    544.008
110.470    750.640    806.086    -55.447    544.015    804.223    545.907    544.015    544.015
110.570    804.000    800.806      3.194    544.027    799.004    545.859    544.027    544.027
110.670    788.000    793.834     -5.834    544.043    792.107    545.802    544.043    544.043
110.770    782.000    785.347     -3.347    544.063    783.689    545.752    544.063    544.063
110.870    785.000    775.586      9.414    544.087    773.995    545.709    544.087    544.087
110.970    752.000    764.844    -12.844    544.116    763.321    545.669    544.116    544.116
111.070    780.000    753.442     26.558    544.149    751.986    545.633    544.149    544.149
111.170    741.000    741.694     -0.694    544.186    740.304    545.602    544.186    544.186
111.270    690.893    729.895    -39.002    544.227    728.569    545.578    544.227    544.227
111.370    692.000    718.310    -26.310    544.273    717.044    545.561    544.273    544.273
111.470    718.000    707.167     10.833    544.323    705.958    545.553    544.323    544.323
111.570    702.000    696.656      5.344    544.378    695.498    545.553    544.378    544.378
111.670    642.083    686.928    -44.845    544.437    685.816    545.564    544.437    544.437
111.770    685.000    678.094      6.906    544.501    677.023    545.585    544.501    544.501
111.870    656.000    670.224    -14.224    544.569    669.187    545.616    544.569    544.569
111.970    669.336    663.371      5.965    544.642    662.362    545.658    544.642    544.642
112.070    628.000    657.544    -29.544    544.719    656.557    545.711    544.719    544.719
112.170    672.000    652.721     19.279    544.801    651.751    545.775    544.801    544.801
112.270    642.000    648.864     -6.864    544.888    647.905    545.849    544.888    544.888
112.370    668.000    645.916     22.084    544.979    644.963    545.932    544.979    544.979
112.470    627.631    643.809    -16.178    545.075    642.858    546.025    545.075    545.075
112.570    626.000    642.466    -16.466    545.176    641.513    546.126    545.176    545.176
112.670    626.000    641.808    -15.808    545.282    640.849    546.236    545.282    545.282
112.770    665.000    641.756     23.244    545.393    640.790    546.353    545.393    545.393
112.870    615.000    642.236    -27.236    545.508    641.260    546.476    545.508    545.508
112.970    631.000    643.179    -12.179    545.628    642.193    546.606    545.628    545.628
113.070    644.135    644.527     -0.392    545.753    643.530    546.742    545.753    545.753
113.170    643.000    646.231     -3.231    545.884    645.222    546.884    545.884    545.884
113.270    651.000    648.257      2.743    546.019    647.235    547.030    546.019    546.019
113.370    683.000    650.582     32.418    546.159    649.549    547.182    546.159    546.159
113.470    652.442    653.203     -0.761    546.304    652.157    547.340    546.304    546.304
113.570    706.082    656.130     49.952    546.455    655.071    547.503    546.455    546.455
113.670    668.000    659.390      8.610    546.610    658.316    547.673    546.610    546.610
113.770    712.431    663.030     49.401    546.771    661.940    547.850    546.771    546.771
113.870    662.000    667.116     -5.116    546.937    666.005    548.036    546.937    546.937
113.970    628.000    671.737    -43.737    547.108    670.602    548.231    547.108    547.108
114.070    697.000    677.012     19.988    547.285    675.846    548.437    547.285    547.285
114.170    689.000    683.092      5.908    547.467    681.888    548.655    547.467    547.467
114.270    660.000    690.173    -30.173    547.654    688.923    548.887    547.654    547.654
114.370    731.528    698.504     33.024    547.846    697.197    549.135    547.846    547.846
114.470    704.353    708.398     -4.045    548.044    707.021    549.401    548.044    548.044
114.570    750.000    720.247     29.753    548.248    718.784    549.688    548.248    548.248
114.670    704.000    734.537    -30.537    548.457    732.970    549.997    548.457    548.457
114.770    705.000    751.865    -46.865    548.671    750.173    550.332    548.671    548.671
114.870    755.000    772.955    -17.955    548.891    771.114    550.695    548.891    548.891
114.970    797.000    798.676     -1.676    549.117    796.657    551.091    549.117    549.117
115.070    783.860    830.053    -46.193    549.348    827.826    551.522    549.348    549.348
115.170    903.552    868.287     35.265    549.585    865.816    551.992    549.585    549.585
115.270    954.948    914.753     40.196    549.828    911.998    552.504    549.828    549.828
115.370    952.883    971.005    -18.121    550.076    967.924    553.063    550.076    550.076
115.470   1019.000   1038.766    -19.766    550.330   1035.311    553.672    550.330    550.330
115.570   1144.000   1119.909     24.091    550.590   1116.029    554.334    550.590    550.590
115.670   1192.000   1216.419    -24.419    550.856   1212.060    555.054    550.856    550.856
115.770   1344.000   1330.353     13.647    551.128   1325.457    555.833    551.128    551.128
115.870   1538.930   1463.767     75.163    551.406   1458.275    556.675    551.406    551.406
115.970   1652.000   1618.644     33.356    551.689   1612.493    557.580    551.689    551.689
116.070   1713.559   1796.796    -83.237    551.979   1789.925    558.549    551.979    551.979
116.170   1993.510   1999.757     -6.248    552.275   1992.106    559.582    552.275    552.275
116.270   2169.189   2228.671    -59.482    552.576   2220.180    560.677    552.576    552.576
116.370   2584.000   2484.166     99.834    552.884   2474.782    561.831    552.884    552.884
116.470   2741.692   2766.239    -24.548    553.198   2755.914    563.037    553.198    553.198
116.570   3100.000   3074.144     25.856    553.519   3062.837    564.290    553.519    553.519
116.670   3444.000   3406.290     37.710    553.845   3393.973    565.581    553.845    553.845
116.770   3857.789   3760.174     97.615    554.178   3746.828    566.899    554.178    554.178
116.870   4118.000   4132.319    -14.319    554.517   4117.939    568.233    554.517    554.517
116.970   4504.717   4518.256    -13.540    554.862   4502.851    569.570    554.862    554.862
117.070   4889.000   4912.532    -23.532    555.214   4896.125    570.899    555.214    555.214
117.170   5268.000   5308.735    -40.735    555.572   5291.365    572.205    555.572    555.572
117.270   5542.852   5699.602   -156.750    555.937   5681.321    573.477    555.937    555.937
117.370   6111.000   6077.189     33.811    556.308   6058.062    574.703    556.308    556.308
117.470   6553.710   6432.867    120.843    556.686   6412.972    575.871    556.686    556.686
117.570   6694.000   6757.685    -63.685    557.070   6737.115    576.967    557.070    557.070
117.670   7183.000   7042.664    140.336    557.461   7021.526    577.979    557.461    557.461
117.770   7068.000   7279.218   -211.218    557.859   7257.628    578.894    557.859    557.859
117.870   7525.000   7459.667     65.333    558.263   7437.755    579.701    558.263    558.263
117.970   7764.000   7577.823    186.177    558.674   7555.724    580.389    558.674    558.674
118.070   7666.000   7629.536     36.464    559.092   7607.390    580.953    559.092    559.092
118.170   7696.718   7613.114     83.604    559.516   7591.058    581.390    559.516    559.516
118.270   7675.000   7529.493    145.507    559.948   7507.663    581.699    559.948    559.948
118.370   7520.471   7382.137    138.334    560.386   7360.657    581.886    560.386    560.386
118.470   7054.000   7176.673   -122.673    560.831   7155.657    581.959    560.831    560.831
118.570   6858.402   6920.360    -61.958    561.283   6899.908    581.927    561.283    561.283
118.670   6260.000   6621.511   -361.511    561.742   6601.712    581.803    561.742    561.742
118.770   6111.000   6288.949   -177.949    562.209   6269.876    581.599    562.209    562.209
118.870   5803.000   5931.554   -128.554    562.682   5913.267    581.328    562.682    562.682
118.970   5477.000   5557.918    -80.918    563.162   5540.466    581.003    563.162    563.162
119.070   5136.597   5176.089    -39.492    563.650   5159.507    580.639    563.650    563.650
119.170   4756.000   4793.394    -37.394    564.145   4777.704    580.247    564.145    564.145
119.270   4419.000   4416.305      2.695    564.647   4401.517    579.843    564.647    564.647
119.370   3967.188   4050.365    -83.177    565.156   4036.477    579.439    565.156    565.156
119.470   3817.000   3700.140    116.860    565.673   3687.139    579.048    565.673    565.673
119.570   3361.000   3369.211     -8.211    566.197   3357.074    578.682    566.197    566.197
119.670   3112.953   3060.205     52.749    566.729   3048.898    578.353    566.729    566.729
119.770   2784.000   2774.847      9.153    567.268   2764.329    578.069    567.268    567.268
119.870   2540.000   2514.047     25.953    567.814   2504.272    577.839    567.814    567.814
119.970   2348.000   2278.003     69.997    568.368   2268.917    577.670    568.368    568.368
120.070   2047.000   2066.308    -19.308    568.930   2057.854    577.567    568.930    568.930
120.170   1903.000   1878.069     24.931    569.499   1870.186    577.534    569.499    569.499
120.270   1792.000   1712.019     79.981    570.076   1704.642    577.575    570.076    570.076
120.370   1541.182   1566.619    -25.437    570.660   1559.684    577.693    570.660    570.660
120.470   1387.786   1440.158    -52.372    571.252   1433.597    577.888    571.252    571.252
120.570   1363.280   1330.831     32.448    571.853   1324.577    578.162    571.853    571.853
120.670   1250.414   1236.820     13.594    572.460   1230.803    578.516    572.460    572.460
120.770   1112.240   1156.343    -44.103    573.076   1150.495    578.950    573.076    573.076
120.870   1028.376   1087.710    -59.334    573.700   1081.961    579.464    573.700    573.700
120.970   1013.850   1029.351    -15.501    574.332   1023.630    580.058    574.332    574.332
121.070   1004.440    979.840     24.600    574.971    974.077    580.734    574.971    574.971
121.170    982.000    937.905     44.095    575.619    932.028    581.492    575.619    575.619
121.270    899.000    902.433     -3.433    576.275    896.368    582.332    576.275    576.275
121.370    865.000    872.460     -7.460    576.939    866.133    583.257    576.939    576.939
121.470    868.000    847.169     20.831    577.611    840.502    584.268    577.611    577.611
121.570    813.023    825.869    -12.846    578.291    818.784    585.368    578.291    578.291
121.670    803.000    807.984     -4.984    578.979    800.399    586.557    578.979    578.979
121.770    777.000    793.039    -16.039    579.676    784.870    587.839    579.676    579.676
121.870    776.000    780.641     -4.641    580.381    771.801    589.216    580.381    580.381
121.970    727.000    770.470    -43.470    581.095    760.870    590.691    581.095    581.095
122.070    737.000    762.259    -25.259    581.817    751.808    592.266    581.817    581.817
122.170    727.000    755.791    -28.791    582.547    744.395    593.943    582.547    582.547
122.270    762.988    750.883     12.105    583.286    738.449    595.722    583.286    583.286
122.370    797.290    747.383     49.907    584.034    733.814    597.606    584.034    584.034
122.470    741.000    745.156     -4.156    584.790    730.358    599.593    584.790    584.790
122.570    709.000    744.087    -35.087    585.555    727.965    601.684    585.555    585.555
122.670    719.000    744.068    -25.068    586.328    726.530    603.875    586.328    586.328
122.770    721.000    745.002    -24.002    587.111    725.959    606.164    587.111    587.111
122.870    720.000    746.791    -26.791    587.902    726.161    608.544    587.902    587.902
122.970    681.000    749.342    -68.342    588.701    727.049    611.009    588.701    588.701
123.070    730.595    752.558    -21.962    589.510    728.536    613.549    589.510    589.510
123.170    714.000    756.339    -42.339    590.328    730.536    616.151    590.328    590.328
123.270    739.000    760.582    -21.582    591.154    732.961    618.798    591.154    591.154
123.370    774.853    765.176      9.677    591.990    735.719    621.472    591.990    591.990
123.470    791.799    770.007     21.792    592.835    738.719    624.151    592.835    592.835
123.570    759.560    774.953    -15.393    593.688    741.862    626.810    593.688    593.688
123.670    765.000    779.886    -14.886    594.551    745.051    629.421    594.551    594.551
123.770    747.000    784.674    -37.674    595.423    748.182    631.954    595.423    595.423
123.870    780.000    789.182     -9.182    596.305    751.152    634.376    596.305    596.305
123.970    791.160    793.273     -2.113    597.195    753.859    636.654    597.195    597.195
124.070    832.264    796.815     35.448    598.095    756.203    638.756    598.095    598.095
124.170    782.000    799.682    -17.682    599.004    758.088    640.649    599.004    599.004
124.270    778.346    801.761    -23.415    599.923    759.432    642.306    599.923    599.923
124.370    818.000    802.959     15.041    600.851    760.164    643.703    600.851    600.851
124.470    805.288    803.209      2.079    601.789    760.233    644.824    601.789    601.789
124.570    783.475    802.473    -18.998    602.736    759.611    645.659    602.736    602.736
124.670    845.000    800.745     44.255    603.693    758.292    646.208    603.693    603.693
124.770    845.000    798.052     46.948    604.659    756.293    646.482    604.659    604.659
124.870    870.000    794.434     75.566    605.636    753.638    646.495    605.636    605.636
124.970    740.248    789.982    -49.734    606.621    750.394    646.273    606.621    606.621
