neutron_powder_diffraction_0018
R_wp: 3.602
Temperature (K): 487.604
Counts: 83495.00
Wavelength (Ã…): 2.52098
COMMENTS
Test file for demonstrating the .xyy file format in Reel1.0
END OF HEADER
   tth       Y_obs     Y_calc      Y_res    Background    Phase_1_Nuc    Phase_1_Mag    Phase_2_Nuc    Phase_2_Mag
  9.970    749.000    727.038     21.962    725.255    726.365    725.927    725.255    725.255
 10.070    733.000    726.024      6.976    724.145    725.344    724.824    724.145    724.145
 10.170    721.000    725.028     -4.028    723.040    724.341    723.727    723.040    723.040
 10.270    697.445    724.052    -26.607    721.941    723.358    722.635    721.941    721.941
 10.370    764.000    723.100     40.900    720.847    722.398    721.548    720.847    720.847
 10.470    703.000    722.174    -19.174    719.759    721.464    720.468    719.759    719.759
 10.570    736.000    721.280     14.720    718.676    720.562    719.393    718.676    718.676
 10.670    719.000    720.424     -1.424    717.599    719.698    718.324    717.599    717.599
 10.770    733.000    719.614     13.386    716.528    718.880    717.260    716.528    716.528
 10.870    765.000    718.862     46.138    715.462    718.120    716.203    715.462    715.462
 10.970    714.000    718.181     -4.181    714.401    717.430    715.151    714.401    714.401
 11.070    772.000    717.590     54.410    713.346    716.831    714.104    713.346    713.346
 11.170    765.000    717.118     47.882    712.297    716.350    713.063    712.297    712.297
 11.270    719.000    716.807      2.193    711.253    716.030    712.027    711.253    711.253
 11.370    691.919    716.726    -24.807    710.214    715.939    710.998    710.214    710.214
 11.470    763.000    717.002     45.998    709.181    716.205    709.974    709.181    709.181
 11.570    745.921    717.903     28.018    708.153    717.097    708.955    708.153    708.153
 11.670    759.000    720.008     38.992    707.131    719.190    707.942    707.131    707.131
 11.770    758.000    724.434     33.566    706.114    723.604    706.935    706.114    706.114
 11.870    773.936    732.941     40.996    705.103    732.096    705.933    705.103    705.103
 11.970    694.916    747.538    -52.623    704.097    746.675    704.937    704.097    704.097
 12.070    889.000    769.141    119.859    703.096    768.256    703.946    703.096    703.096
 12.170    855.000    795.142     59.858    702.101    794.232    702.961    702.101    702.101
 12.270    876.000    816.777     59.223    701.111    815.843    701.981    701.111    701.111
 12.370    855.000    821.223     33.777    700.126    820.276    701.007    700.126    700.126
 12.470    839.830    804.338     35.492    699.147    803.389    700.039    699.147    699.147
 12.570    819.000    776.674     42.326    698.174    775.729    699.076    698.174    698.174
 12.670    708.000    750.299    -42.299    697.205    749.357    698.119    697.205    697.205
 12.770    714.000    730.479    -16.479    696.242    729.536    697.167    696.242    696.242
 12.870    685.000    717.488    -32.488    695.284    716.541    696.221    695.284    695.284
 12.970    691.000    709.550    -18.550    694.332    708.594    695.280    694.332    694.332
 13.070    684.833    704.661    -19.828    693.384    703.695    694.344    693.384    693.384
 13.170    685.000    701.392    -16.392    692.442    700.415    693.415    692.442    692.442
 13.270    671.000    698.948    -27.948    691.506    697.960    692.490    691.506    691.506
 13.370    715.342    696.965     18.377    690.574    695.964    691.572    690.574    690.574
 13.470    681.000    695.258    -14.258    689.648    694.245    690.659    689.648    689.648
 13.570    723.885    693.724     30.162    688.727    692.698    689.751    688.727    688.727
 13.670    638.000    692.323    -54.323    687.812    691.284    688.849    687.812    687.812
 13.770    667.000    691.025    -24.025    686.901    689.973    687.952    686.901    686.901
 13.870    674.000    689.806    -15.806    685.996    688.740    687.061    685.996    685.996
 13.970    662.000    688.650    -26.650    685.096    687.569    686.175    685.096    685.096
 14.070    691.000    687.543      3.457    684.201    686.448    685.295    684.201    684.201
 14.170    667.205    686.478    -19.273    683.311    685.368    684.420    683.311    683.311
 14.270    669.000    685.446    -16.446    682.427    684.322    683.551    682.427    682.427
 14.370    661.000    684.444    -23.444    681.548    683.304    682.687    681.548    681.548
 14.470    690.194    683.468      6.726    680.673    682.312    681.828    680.673    680.673
 14.570    690.232    682.515      7.717    679.804    681.343    680.976    679.804    679.804
 14.670    680.000    681.577     -1.577    678.940    680.389    680.128    678.940    678.940
 14.770    658.000    680.656    -22.656    678.082    679.451    679.286    678.082    678.082
 14.870    654.000    679.749    -25.749    677.228    678.527    678.449    677.228    677.228
 14.970    717.848    678.856     38.992    676.379    677.617    677.618    676.379    676.379
 15.070    658.156    677.976    -19.820    675.536    676.719    676.793    675.536    675.536
 15.170    643.000    677.107    -34.107    674.697    675.832    675.972    674.697    674.697
 15.270    675.000    676.249     -1.249    673.864    674.955    675.158    673.864    673.864
 15.370    706.637    675.401     31.236    673.035    674.088    674.348    673.035    673.035
 15.470    687.000    674.562     12.438    672.212    673.229    673.545    672.212    672.212
 15.570    660.000    673.733    -13.733    671.394    672.380    672.746    671.394    671.394
 15.670    679.000    672.912      6.088    670.580    671.539    671.953    670.580    670.580
 15.770    702.731    672.103     30.628    669.772    670.708    671.166    669.772    669.772
 15.870    687.000    671.302     15.698    668.969    669.887    670.384    668.969    668.969
 15.970    677.000    670.506      6.494    668.171    669.068    669.608    668.171    668.171
 16.070    637.000    669.716    -32.716    667.377    668.256    668.837    667.377    667.377
 16.170    622.283    668.934    -46.651    666.589    667.451    668.072    666.589    666.589
 16.270    651.000    668.161    -17.161    665.805    666.654    667.312    665.805    665.805
 16.370    681.801    667.406     14.395    665.027    665.876    666.557    665.027    665.027
 16.470    640.000    666.646    -26.646    664.253    665.091    665.808    664.253    664.253
 16.570    641.949    665.892    -23.943    663.485    664.311    665.065    663.485    663.485
 16.670    639.050    665.146    -26.095    662.721    663.539    664.327    662.721    662.721
 16.770    687.000    664.425     22.575    661.962    662.791    663.595    661.962    661.962
 16.870    615.449    663.781    -48.332    661.208    662.119    662.870    661.208    661.208
 16.970    649.394    663.063    -13.669    660.459    661.372    662.150    660.459    660.459
 17.070    617.625    662.342    -44.718    659.714    660.622    661.435    659.714    659.714
 17.170    723.000    661.628     61.372    658.975    659.878    660.725    658.975    658.975
 17.270    598.000    660.919    -62.919    658.240    659.139    660.020    658.240    658.240
 17.370    631.000    660.217    -29.217    657.510    658.406    659.321    657.510    657.510
 17.470    708.000    659.521     48.479    656.785    657.678    658.628    656.785    656.785
 17.570    695.887    658.831     37.056    656.065    656.956    657.940    656.065    656.065
 17.670    644.000    658.148    -14.148    655.350    656.240    657.258    655.350    655.350
 17.770    654.809    657.471     -2.662    654.639    655.528    656.582    654.639    654.639
 17.870    662.000    656.800      5.200    653.933    654.822    655.911    653.933    653.933
 17.970    692.200    656.136     36.064    653.232    654.121    655.246    653.232    653.232
 18.070    634.000    655.478    -21.478    652.535    653.426    654.587    652.535    652.535
 18.170    599.000    654.827    -55.827    651.844    652.737    653.934    651.844    651.844
 18.270    690.000    654.193     35.807    651.157    652.063    653.286    651.157    651.157
 18.370    680.000    653.555     26.445    650.474    651.385    652.645    650.474    650.474
 18.470    622.563    652.922    -30.359    649.797    650.710    652.009    649.797    649.797
 18.570    657.402    652.295      5.106    649.124    650.040    651.379    649.124    649.124
 18.670    625.143    651.676    -26.533    648.455    649.376    650.755    648.455    648.455
 18.770    670.000    651.064     18.936    647.792    648.719    650.137    647.792    647.792
 18.870    664.721    650.458     14.263    647.133    648.066    649.525    647.133    647.133
 18.970    660.000    649.869     10.131    646.478    647.428    648.919    646.478    646.478
 19.070    629.000    649.290    -20.290    645.829    646.799    648.319    645.829    645.829
 19.170    669.069    648.705     20.364    645.183    646.163    647.726    645.183    645.183
 19.270    685.573    648.129     37.444    644.543    645.533    647.138    644.543    644.543
 19.370    617.000    647.560    -30.560    643.907    644.908    646.558    643.907    643.907
 19.470    624.000    647.040    -23.040    643.275    644.317    645.998    643.275    643.275
 19.570    620.350    646.510    -26.161    642.648    643.719    645.439    642.648    642.648
 19.670    604.000    645.960    -41.960    642.026    643.108    644.878    642.026    642.026
 19.770    619.000    645.418    -26.418    641.408    642.501    644.325    641.408    641.408
 19.870    600.955    644.912    -43.957    640.795    641.915    643.791    640.795    640.795
 19.970    608.000    644.463    -36.463    640.186    641.389    643.260    640.186    640.186
 20.070    633.000    643.985    -10.985    639.581    640.836    642.730    639.581    639.581
 20.170    648.730    643.478      5.253    638.982    640.257    642.202    638.982    638.982
 20.270    606.000    643.005    -37.005    638.386    639.709    641.683    638.386    638.386
 20.370    641.000    642.525     -1.525    637.795    639.151    641.169    637.795    637.795
 20.470    627.000    642.064    -15.064    637.209    638.610    640.663    637.209    637.209
 20.570    623.564    641.594    -18.030    636.626    638.052    640.168    636.626    636.626
 20.670    618.000    641.127    -23.127    636.049    637.497    639.679    636.049    636.049
 20.770    635.000    640.666     -5.666    635.475    636.947    639.195    635.475    635.475
 20.870    660.118    640.210     19.909    634.906    636.398    638.718    634.906    634.906
 20.970    633.000    639.761     -6.761    634.342    635.854    638.249    634.342    634.342
 21.070    665.000    639.322     25.678    633.782    635.315    637.789    633.782    633.782
 21.170    608.000    638.893    -30.893    633.226    634.782    637.336    633.226    633.226
 21.270    615.000    638.473    -23.473    632.674    634.255    636.892    632.674    632.674
 21.370    599.104    638.065    -38.960    632.127    633.735    636.457    632.127    632.127
 21.470    620.000    637.677    -17.677    631.584    633.229    636.031    631.584    631.584
 21.570    629.000    637.292     -8.292    631.045    632.723    635.614    631.045    631.045
 21.670    621.443    636.916    -15.472    630.511    632.220    635.206    630.511    630.511
 21.770    589.000    636.553    -47.553    629.981    631.725    634.808    629.981    629.981
 21.870    665.000    636.202     28.798    629.455    631.237    634.420    629.455    629.455
 21.970    594.367    635.865    -41.498    628.933    630.756    634.043    628.933    628.933
 22.070    667.000    635.541     31.459    628.416    630.281    633.676    628.416    628.416
 22.170    615.354    635.231    -19.877    627.903    629.814    633.320    627.903    627.903
 22.270    671.019    634.936     36.083    627.394    629.354    632.975    627.394    627.394
 22.370    603.000    634.657    -31.657    626.889    628.904    632.643    626.889    626.889
 22.470    629.000    634.396     -5.396    626.389    628.462    632.323    626.389    626.389
 22.570    613.482    634.154    -20.672    625.892    628.031    632.016    625.892    625.892
 22.670    631.000    633.932     -2.932    625.400    627.610    631.722    625.400    625.400
 22.770    660.000    633.733     26.267    624.912    627.202    631.443    624.912    624.912
 22.870    620.000    633.564    -13.564    624.428    626.811    631.180    624.428    624.428
 22.970    632.000    633.418     -1.418    623.948    626.433    630.933    623.948    623.948
 23.070    630.000    633.299     -3.299    623.472    626.070    630.701    623.472    623.472
 23.170    613.268    633.212    -19.944    623.000    625.727    630.486    623.000    623.000
 23.270    670.813    633.162     37.651    622.532    625.406    630.289    622.532    622.532
 23.370    597.694    633.155    -35.461    622.069    625.113    630.111    622.069    622.069
 23.470    619.844    633.197    -13.353    621.609    624.853    629.954    621.609    621.609
 23.570    635.000    633.297      1.703    621.154    624.634    629.818    621.154    621.154
 23.670    644.000    633.467     10.533    620.702    624.464    629.706    620.702    620.702
 23.770    625.508    633.721     -8.213    620.254    624.359    629.618    620.254    620.254
 23.870    604.000    634.081    -30.081    619.811    624.337    629.557    619.811    619.811
 23.970    610.000    634.580    -24.580    619.371    624.429    629.524    619.371    619.371
 24.070    651.000    635.263     15.737    618.936    624.680    629.522    618.936    618.936
 24.170    595.000    636.224    -41.224    618.504    625.179    629.552    618.504    618.504
 24.270    651.000    637.652     13.348    618.076    626.115    629.617    618.076    618.076
 24.370    627.987    639.945    -11.958    617.652    627.882    629.721    617.652    617.652
 24.470    653.000    643.852      9.148    617.232    631.226    629.866    617.232    617.232
 24.570    673.000    650.531     22.469    616.816    637.303    630.057    616.816    616.816
 24.670    625.000    661.269    -36.269    616.404    647.396    630.297    616.404    616.404
 24.770    706.000    676.641     29.359    615.996    662.077    630.591    615.996    615.996
 24.870    692.000    695.016     -3.016    615.591    679.707    630.945    615.591    615.591
 24.970    730.122    710.853     19.269    615.191    694.735    631.364    615.191    615.191
 25.070    698.168    715.838    -17.670    614.794    698.835    631.856    614.794    614.794
 25.170    785.000    706.674     78.326    614.401    688.698    632.428    614.401    614.401
 25.270    710.554    689.830     20.724    614.011    670.791    633.090    614.011    614.011
 25.370    630.321    673.389    -43.068    613.626    653.190    633.851    613.626    613.626
 25.470    630.000    661.167    -31.167    613.244    639.703    634.725    613.244    613.244
 25.570    618.000    653.631    -35.631    612.866    630.782    635.726    612.866    612.866
 25.670    636.763    649.757    -12.994    612.492    625.386    636.870    612.492    612.492
 25.770    654.000    648.253      5.747    612.122    622.202    638.177    612.122    612.122
 25.870    630.218    648.143    -17.925    611.755    620.230    639.670    611.755    611.755
 25.970    618.502    648.874    -30.372    611.392    618.891    641.377    611.392    611.392
 26.070    658.000    650.196      7.804    611.033    617.898    643.332    611.033    611.033
 26.170    641.000    652.021    -11.021    610.677    617.122    645.577    610.677    610.677
 26.270    683.367    654.338     29.029    610.325    616.502    648.161    610.325    610.325
 26.370    676.000    657.157     18.843    609.976    615.996    651.137    609.976    609.976
 26.470    621.000    660.538    -39.538    609.632    615.586    654.583    609.632    609.632
 26.570    668.730    664.566      4.164    609.291    615.261    658.594    609.291    609.291
 26.670    672.000    669.353      2.647    608.953    615.017    663.287    608.953    608.953
 26.770    675.000    675.048     -0.048    608.619    614.852    668.813    608.619    608.619
 26.870    680.000    681.850     -1.850    608.289    614.770    675.366    608.289    608.289
 26.970    625.000    690.025    -65.025    607.962    614.778    683.204    607.962    607.962
 27.070    681.000    699.929    -18.929    607.638    614.892    692.671    607.638    607.638
 27.170    715.254    712.052      3.202    607.319    615.131    704.234    607.319    607.319
 27.270    717.961    727.074     -9.113    607.002    615.526    718.544    607.002    607.002
 27.370    763.000    745.968     17.032    606.689    616.121    736.527    606.689    606.689
 27.470    786.000    770.177     15.823    606.380    616.986    759.560    606.380    606.380
 27.570    792.000    802.008    -10.008    606.074    618.226    789.842    606.074    606.074
 27.670    870.710    846.150     24.560    605.772    620.061    831.843    605.772    605.772
 27.770    919.000    915.545      3.455    605.473    623.092    897.897    605.473    605.473
 27.870   1039.596   1050.586    -10.990    605.178    629.192   1026.520    605.178    605.178
 27.970   1388.258   1361.356     26.902    604.885    643.452   1322.677    604.885    604.885
 28.070   1985.000   2068.859    -83.859    604.597    676.092   1997.113    604.597    604.597
 28.170   3299.000   3441.254   -142.254    604.311    739.516   3305.553    604.311    604.311
 28.270   5560.553   5514.709     45.844    604.029    835.430   5282.513    604.029    604.029
 28.370   7564.000   7714.146   -150.146    603.751    937.356   7379.578    603.751    603.751
 28.470   8747.000   8822.910    -75.910    603.476    989.297   8436.319    603.476    603.476
 28.570   8201.000   8033.073    167.927    603.204    954.435   7681.581    603.204    603.204
 28.670   6214.105   6124.936     89.169    602.935    869.878   5858.134    602.935    602.935
 28.770   4429.000   4428.199      0.801    602.670    798.766   4232.352    602.670    602.670
 28.870   3782.000   3677.544    104.456    602.408    776.661   3503.464    602.408    602.408
 28.970   3792.000   3867.250    -75.250    602.149    802.948   3666.531    602.149    602.149
 29.070   4555.730   4495.221     60.509    601.894    849.820   4247.376    601.894    601.894
 29.170   4923.613   4840.995     82.618    601.641    874.769   4568.070    601.641    601.641
 29.270   4527.000   4435.673     91.327    601.392    849.573   4187.851    601.392    601.392
 29.370   3498.000   3491.863      6.137    601.147    788.892   3304.527    601.147    601.147
 29.470   2335.000   2492.717   -157.717    600.904    724.391   2369.572    600.904    600.904
 29.570   1629.000   1731.611   -102.611    600.665    675.235   1657.271    600.665    600.665
 29.670   1322.000   1263.744     58.256    600.428    645.060   1219.245    600.428    600.428
 29.770   1078.000   1015.207     62.793    600.195    629.098    986.373    600.195    600.195
 29.870    946.366    890.492     55.874    599.965    621.168    869.325    599.965    599.965
 29.970    838.000    824.030     13.970    599.738    617.029    806.760    599.738    599.738
 30.070    786.911    783.259      3.652    599.515    614.586    768.200    599.515    599.515
 30.170    773.000    754.894     18.106    599.294    613.003    741.193    599.294    599.294
 30.270    745.000    733.814     11.186    599.077    611.987    720.910    599.077    599.077
 30.370    781.000    717.875     63.125    598.862    611.479    705.261    598.862    598.862
 30.470    724.129    706.208     17.921    598.651    611.607    693.251    598.651    598.651
 30.570    730.397    698.928     31.469    598.442    612.783    684.584    598.442    598.442
 30.670    766.000    697.230     68.770    598.237    615.830    679.629    598.237    598.237
 30.770    689.716    703.212    -13.496    598.035    621.937    679.292    598.035    598.035
 30.870    700.000    718.742    -18.742    597.835    632.137    684.409    597.835    597.835
 30.970    745.713    743.130      2.583    597.639    646.197    694.524    597.639    597.639
 31.070    772.000    770.104      1.896    597.445    661.177    706.309    597.445    597.445
 31.170    819.000    786.543     32.457    597.255    670.822    712.906    597.255    597.255
 31.270    798.000    780.220     17.780    597.068    669.293    707.931    597.068    597.068
 31.370    740.000    752.931    -12.931    596.883    657.491    692.275    596.883    596.883
 31.470    704.000    717.911    -13.911    596.701    641.814    672.767    596.701    596.701
 31.570    758.000    686.748     71.252    596.522    627.865    655.387    596.522    596.522
 31.670    723.000    664.152     58.848    596.347    617.931    642.557    596.347    596.347
 31.770    628.367    649.810    -21.444    596.174    611.879    634.098    596.174    596.174
 31.870    717.000    641.323     75.677    596.003    608.570    628.752    596.003    596.003
 31.970    623.059    636.262    -13.203    595.836    606.848    625.248    595.836    595.836
 32.070    612.382    633.009    -20.627    595.671    605.943    622.734    595.671    595.671
 32.170    677.000    630.718     46.282    595.510    605.462    620.764    595.510    595.510
 32.270    680.000    629.016     50.984    595.351    605.232    619.133    595.351    595.351
 32.370    623.000    627.743     -4.743    595.195    605.186    617.750    595.195    595.195
 32.470    647.000    626.831     20.169    595.041    605.302    616.569    595.041    595.041
 32.570    641.000    626.253     14.747    594.891    605.576    615.566    594.891    594.891
 32.670    651.000    626.002     24.998    594.743    606.016    614.727    594.743    594.743
 32.770    642.000    626.094     15.906    594.597    606.643    614.047    594.597    594.597
 32.870    623.000    626.561     -3.561    594.455    607.487    613.527    594.455    594.455
 32.970    580.018    627.461    -47.443    594.315    608.597    613.178    594.315    594.315
 33.070    655.561    628.882     26.678    594.178    610.041    613.018    594.178    594.178
 33.170    613.208    630.960    -17.753    594.043    611.920    613.082    594.043    594.043
 33.270    675.000    633.915     41.085    593.912    614.396    613.429    593.912    593.912
 33.370    667.000    638.153     28.847    593.782    617.763    614.170    593.782    593.782
 33.470    638.575    644.521     -5.946    593.656    622.631    615.543    593.656    593.656
 33.570    692.000    654.873     37.127    593.532    630.330    618.069    593.532    593.532
 33.670    704.000    673.018     30.982    593.410    643.593    622.827    593.410    593.410
 33.770    667.189    705.696    -38.507    593.292    667.252    631.722    593.292    593.292
 33.870    780.000    762.371     17.629    593.175    708.090    647.435    593.175    593.175
 33.970    871.000    852.085     18.915    593.062    772.591    672.525    593.062    593.062
 34.070    982.038    976.451      5.587    592.950    861.914    707.448    592.950    592.950
 34.170   1067.248   1119.702    -52.454    592.842    964.764    747.739    592.842    592.842
 34.270   1235.072   1239.842     -4.770    592.735   1051.045    781.503    592.735    592.735
 34.370   1337.332   1278.289     59.043    592.632   1078.769    792.144    592.632    592.632
 34.470   1207.093   1209.688     -2.595    592.530   1029.753    772.475    592.530    592.530
 34.570   1121.897   1074.884     47.012    592.432    933.269    734.063    592.432    592.432
 34.670    906.000    932.669    -26.669    592.335    831.456    693.563    592.335    592.335
 34.770    855.000    817.093     37.907    592.241    748.725    660.620    592.241    592.241
 34.870    714.000    737.337    -23.337    592.150    691.659    637.835    592.150    592.150
 34.970    650.240    688.422    -38.182    592.061    656.688    623.798    592.061    592.061
 35.070    710.000    660.473     49.527    591.974    636.736    615.712    591.974    591.974
 35.170    704.000    644.602     59.398    591.890    625.433    611.059    591.890    591.890
 35.270    655.930    635.001     20.929    591.807    618.616    608.193    591.807    591.807
 35.370    646.000    628.586     17.414    591.728    614.072    606.241    591.728    591.728
 35.470    648.000    623.909     24.091    591.650    610.766    604.793    591.650    591.650
 35.570    589.406    620.310    -30.904    591.575    608.223    603.662    591.575    591.575
 35.670    602.011    617.455    -15.445    591.503    606.204    602.754    591.503    591.503
 35.770    625.000    615.153      9.847    591.432    604.569    602.015    591.432    591.432
 35.870    588.849    613.274    -24.425    591.364    603.228    601.410    591.364    591.364
 35.970    598.000    611.731    -13.731    591.298    602.114    600.914    591.298    591.298
 36.070    619.000    610.458      8.542    591.234    601.181    600.511    591.234    591.234
 36.170    610.000    609.409      0.591    591.172    600.393    600.189    591.172    591.172
 36.270    563.147    608.551    -45.403    591.113    599.724    599.940    591.113    591.113
 36.370    600.000    607.858     -7.858    591.056    599.153    599.761    591.056    591.056
 36.470    600.000    607.314     -7.314    591.001    598.666    599.649    591.001    591.001
 36.570    562.688    606.911    -44.222    590.948    598.252    599.607    590.948    590.948
 36.670    587.000    606.643    -19.643    590.897    597.901    599.639    590.897    590.897
 36.770    642.000    606.513     35.487    590.849    597.609    599.753    590.849    590.849
 36.870    632.000    606.532     25.468    590.802    597.373    599.962    590.802    590.802
 36.970    595.209    606.717    -11.508    590.758    597.192    600.282    590.758    590.758
 37.070    613.000    607.101      5.899    590.716    597.075    600.742    590.716    590.716
 37.170    614.000    607.741      6.259    590.676    597.039    601.378    590.676    590.676
 37.270    622.000    608.744     13.256    590.638    597.125    602.257    590.638    590.638
 37.370    659.000    610.313     48.687    590.601    597.415    603.500    590.601    590.601
 37.470    589.000    612.833    -23.833    590.567    598.042    605.359    590.567    590.567
 37.570    672.000    617.002     54.998    590.535    599.188    608.350    590.535    590.535
 37.670    608.000    623.975    -15.975    590.505    601.023    613.458    590.505    590.505
 37.770    610.000    635.407    -25.407    590.477    603.601    622.283    590.477    590.477
 37.870    675.000    653.151     21.849    590.451    606.697    636.905    590.451    590.451
 37.970    693.107    678.362     14.745    590.427    609.610    659.179    590.427    590.427
 38.070    740.021    710.164     29.858    590.405    611.200    689.368    590.405    590.405
 38.170    738.092    744.607     -6.515    590.385    610.702    724.290    590.385    590.385
 38.270    790.581    773.501     17.080    590.366    608.531    755.338    590.366    590.366
 38.370    766.793    784.622    -17.829    590.350    605.648    769.329    590.350    590.350
 38.470    811.653    770.702     40.951    590.335    602.762    758.285    590.335    590.335
 38.570    744.000    738.634      5.366    590.322    600.294    728.673    590.322    590.322
 38.670    671.077    701.677    -30.599    590.311    598.427    693.572    590.311    590.311
 38.770    657.000    669.139    -12.139    590.302    597.140    662.310    590.302    590.302
 38.870    631.000    644.728    -13.728    590.295    596.304    638.725    590.295    590.295
 38.970    631.016    628.415      2.600    590.290    595.780    622.930    590.290    590.290
 39.070    597.000    618.374    -21.374    590.286    595.451    613.212    590.286    590.286
 39.170    621.000    612.432      8.568    590.284    595.241    607.477    590.284    590.284
 39.270    586.000    608.860    -22.860    590.284    595.102    604.044    590.284    590.284
 39.370    579.000    606.571    -27.571    590.286    595.009    601.849    590.286    590.286
 39.470    618.000    604.976     13.024    590.289    594.946    600.320    590.289    590.289
 39.570    654.000    603.787     50.213    590.294    594.907    599.175    590.294    590.294
 39.670    611.000    602.862      8.138    590.301    594.887    598.277    590.301    590.301
 39.770    577.173    602.126    -24.954    590.310    594.883    597.554    590.310    590.310
 39.870    641.000    601.535     39.465    590.320    594.894    596.961    590.320    590.320
 39.970    613.000    601.056     11.944    590.332    594.918    596.470    590.332    590.332
 40.070    610.311    600.668      9.644    590.345    594.955    596.059    590.345    590.345
 40.170    585.000    600.354    -15.354    590.361    595.004    595.712    590.361    590.361
 40.270    623.000    600.104     22.896    590.377    595.065    595.417    590.377    590.377
 40.370    610.000    599.908     10.092    590.396    595.139    595.165    590.396    590.396
 40.470    613.000    599.759     13.241    590.416    595.226    594.949    590.416    590.416
 40.570    591.000    599.653     -8.653    590.437    595.327    594.764    590.437    590.437
 40.670    593.000    599.586     -6.586    590.460    595.443    594.604    590.460    590.460
 40.770    570.000    599.554    -29.554    590.485    595.573    594.467    590.485    590.485
 40.870    594.000    599.556     -5.556    590.511    595.719    594.349    590.511    590.511
 40.970    612.985    599.597     13.387    590.539    595.889    594.248    590.539    590.539
 41.070    574.000    599.677    -25.677    590.568    596.084    594.162    590.568    590.568
 41.170    603.000    599.797      3.203    590.599    596.306    594.090    590.599    590.599
 41.270    638.368    599.960     38.408    590.631    596.561    594.031    590.631    590.631
 41.370    598.000    600.172     -2.172    590.664    596.855    593.983    590.664    590.664
 41.470    605.000    600.441      4.559    590.700    597.196    593.946    590.700    590.700
 41.570    595.000    600.778     -5.778    590.736    597.596    593.919    590.736    590.736
 41.670    646.007    601.197     44.810    590.774    598.069    593.903    590.774    590.774
 41.770    618.000    601.720     16.280    590.813    598.637    593.898    590.813    590.813
 41.870    618.000    602.382     15.618    590.854    599.334    593.904    590.854    590.854
 41.970    633.428    603.245     30.184    590.896    600.220    593.924    590.896    590.896
 42.070    600.000    604.427     -4.427    590.939    601.409    593.961    590.939    590.939
 42.170    636.183    606.165     30.018    590.984    603.129    594.024    590.984    590.984
 42.270    622.000    608.904     13.096    591.030    605.810    594.130    591.030    591.030
 42.370    601.000    613.388    -12.388    591.078    610.166    594.307    591.078    591.078
 42.470    627.000    620.673      6.327    591.127    617.214    594.596    591.127    591.127
 42.570    614.000    631.933    -17.933    591.177    628.084    595.041    591.177    591.177
 42.670    655.000    647.978      7.022    591.228    643.555    595.673    591.228    591.228
 42.770    638.000    668.507    -30.507    591.280    663.340    596.480    591.280    591.280
 42.870    703.769    691.180     12.590    591.334    685.184    597.373    591.334    591.334
 42.970    637.000    710.729    -73.729    591.389    704.022    598.150    591.389    591.389
 43.070    681.000    719.758    -38.758    591.446    712.737    598.527    591.446    591.446
 43.170    670.000    713.843    -43.843    591.503    707.072    598.335    591.503    591.503
 43.270    710.887    696.131     14.755    591.562    690.052    597.694    591.562    591.562
 43.370    668.035    673.847     -5.811    591.622    668.630    596.881    591.622    591.622
 43.470    633.000    652.809    -19.809    591.683    648.404    596.119    591.683    591.683
 43.570    627.000    635.925     -8.925    591.745    632.173    595.518    591.745    591.745
 43.670    640.000    623.863     16.137    591.808    620.580    595.105    591.808    591.808
 43.770    603.426    615.989    -12.563    591.872    613.016    594.855    591.872    591.872
 43.870    582.853    611.166    -28.313    591.938    608.386    594.725    591.938    591.938
 43.970    563.000    608.292    -45.292    592.004    605.630    594.672    592.004    592.004
 44.070    601.000    606.555     -5.555    592.072    603.966    594.665    592.072    592.072
 44.170    637.099    605.453     31.646    592.141    602.912    594.685    592.141    592.141
 44.270    598.000    604.712     -6.712    592.211    602.203    594.721    592.211    592.211
 44.370    622.000    604.191     17.809    592.282    601.705    594.769    592.282    592.282
 44.470    630.000    603.819     26.181    592.353    601.349    594.825    592.353    592.353
 44.570    637.872    603.557     34.314    592.426    601.097    594.888    592.426    592.426
 44.670    612.000    603.381      8.619    592.500    600.925    594.957    592.500    592.500
 44.770    609.402    603.273      6.129    592.575    600.817    595.032    592.575    592.575
 44.870    597.000    603.223     -6.223    592.651    600.763    595.111    592.651    592.651
 44.970    616.000    603.220     12.780    592.727    600.753    595.195    592.727    592.727
 45.070    650.000    603.260     46.740    592.805    600.781    595.284    592.805    592.805
 45.170    646.465    603.336     43.128    592.884    600.843    595.378    592.884    592.884
 45.270    631.000    603.446     27.554    592.963    600.934    595.475    592.963    592.963
 45.370    633.293    603.586     29.707    593.044    601.053    595.577    593.044    593.044
 45.470    565.000    603.755    -38.755    593.125    601.196    595.684    593.125    593.125
 45.570    637.000    603.952     33.048    593.207    601.363    595.796    593.207    593.207
 45.670    654.000    604.176     49.824    593.290    601.554    595.912    593.290    593.290
 45.770    612.000    604.427      7.573    593.374    601.768    596.033    593.374    593.374
 45.870    612.000    604.706      7.294    593.459    602.005    596.159    593.459    593.459
 45.970    590.184    605.013    -14.829    593.544    602.266    596.291    593.544    593.544
 46.070    589.000    605.351    -16.351    593.631    602.552    596.429    593.631    593.631
 46.170    613.000    605.721      7.279    593.718    602.865    596.574    593.718    593.718
 46.270    626.000    606.127     19.873    593.806    603.206    596.725    593.806    593.806
 46.370    569.000    606.571    -37.571    593.894    603.580    596.885    593.894    593.894
 46.470    593.000    607.060    -14.060    593.984    603.990    597.052    593.984    593.984
 46.570    646.000    607.597     38.403    594.074    604.441    597.229    594.074    594.074
 46.670    641.180    608.192     32.988    594.165    604.939    597.417    594.165    594.165
 46.770    586.000    608.853    -22.853    594.256    605.492    597.617    594.256    594.256
 46.870    639.000    609.595     29.405    594.348    606.112    597.830    594.348    594.348
 46.970    626.000    610.436     15.564    594.441    606.815    598.060    594.441    594.441
 47.070    601.897    611.406     -9.509    594.535    607.628    598.311    594.535    594.535
 47.170    623.000    612.559     10.441    594.629    608.597    598.589    594.629    594.629
 47.270    597.308    613.995    -16.686    594.724    609.810    598.906    594.724    594.724
 47.370    591.000    615.892    -24.892    594.820    611.425    599.282    594.820    594.820
 47.470    591.000    618.558    -27.558    594.916    613.714    599.754    594.916    594.916
 47.570    611.000    622.462    -11.462    595.013    617.093    600.374    595.013    595.013
 47.670    611.963    628.218    -16.255    595.110    622.104    601.212    595.110    595.110
 47.770    651.503    636.469     15.035    595.208    629.318    602.342    595.208    595.208
 47.870    657.000    647.639      9.361    595.306    639.108    603.813    595.306    595.306
 47.970    649.000    661.582    -12.582    595.405    651.344    605.611    595.405    595.405
 48.070    718.882    677.155     41.727    595.505    665.008    607.611    595.505    595.505
 48.170    691.000    691.828     -0.828    595.605    677.851    609.533    595.605    595.605
 48.270    723.868    701.844     22.024    595.705    686.533    610.962    595.705    595.705
 48.370    681.000    703.937    -22.937    595.807    688.152    611.539    595.807    595.807
 48.470    688.064    697.887     -9.823    595.908    682.506    611.243    595.908    595.908
 48.570    693.000    686.769      6.231    596.010    672.315    610.426    596.010    596.010
 48.670    667.000    674.497     -7.497    596.113    661.048    609.533    596.113    596.113
 48.770    658.656    663.862     -5.205    596.215    651.170    608.886    596.215    596.215
 48.870    627.676    656.236    -28.561    596.319    643.886    608.655    596.319    596.319
 48.970    609.757    651.966    -42.209    596.423    639.484    608.894    596.423    596.423
 49.070    636.000    650.805    -14.805    596.527    637.722    609.602    596.527    596.527
 49.170    641.000    652.299    -11.299    596.631    638.162    610.762    596.631    596.631
 49.270    603.000    656.085    -53.085    596.736    640.431    612.385    596.736    596.736
 49.370    659.000    662.140     -3.140    596.842    644.415    614.560    596.842    596.842
 49.470    672.000    671.106      0.894    596.947    650.493    617.554    596.947    596.947
 49.570    665.000    684.987    -19.987    597.053    660.001    622.031    597.053    597.053
 49.670    679.687    708.573    -28.886    597.160    676.208    629.512    597.160    597.160
 49.770    735.077    751.792    -16.715    597.266    705.918    643.118    597.266    597.266
 49.870    854.733    832.312     22.421    597.373    761.269    668.376    597.373    597.373
 49.970    948.281    976.115    -27.833    597.480    860.213    713.311    597.480    597.480
 50.070   1168.000   1213.400    -45.400    597.588   1023.227    787.646    597.588    597.588
 50.170   1585.070   1564.366     20.705    597.696   1264.287    897.610    597.696    597.696
 50.270   1975.000   2020.434    -45.434    597.804   1577.538   1040.496    597.804    597.804
 50.370   2473.009   2526.054    -53.044    597.912   1924.859   1198.896    597.912    597.912
 50.470   2868.000   2972.860   -104.860    598.020   2231.872   1338.844    598.020    598.020
 50.570   3220.000   3223.118     -3.118    598.129   2404.032   1417.160    598.129    598.129
 50.670   3125.534   3180.988    -55.454    598.238   2375.546   1403.761    598.238    598.238
 50.770   2773.344   2865.445    -92.101    598.347   2159.461   1304.519    598.347    598.347
 50.870   2483.117   2393.195     89.922    598.456   1835.972   1155.912    598.456    598.456
 50.970   1947.000   1898.020     48.980    598.566   1497.052    999.756    598.566    598.566
 51.070   1389.000   1474.290    -85.290    598.675   1207.629    865.519    598.675    598.675
 51.170   1135.000   1163.387    -28.387    598.785    996.203    766.102    598.785    598.785
 51.270   1018.556    963.830     54.726    598.895    861.733    701.083    598.895    598.895
 51.370    807.450    850.516    -43.066    599.005    786.759    662.825    599.005    599.005
 51.470    840.863    792.642     48.220    599.115    749.631    642.173    599.115    599.115
 51.570    736.506    764.338    -27.832    599.225    731.797    631.806    599.225    599.225
 51.670    768.000    748.291     19.709    599.335    720.518    627.142    599.335    599.335
 51.770    775.000    735.703     39.297    599.446    709.352    625.825    599.446    599.446
 51.870    693.240    724.214    -30.974    599.556    697.010    626.781    599.556    599.556
 51.970    723.000    714.424      8.576    599.666    684.682    629.422    599.666    599.666
 52.070    656.697    707.106    -50.409    599.777    673.773    633.115    599.777    599.777
 52.170    656.707    702.148    -45.441    599.887    665.121    636.914    599.887    599.887
 52.270    728.000    698.525     29.475    599.998    658.983    639.535    599.998    599.998
 52.370    685.000    694.861     -9.861    600.108    655.222    639.741    600.108    600.108
 52.470    717.000    690.395     26.605    600.219    653.505    637.103    600.219    600.219
 52.570    696.000    685.520     10.480    600.329    653.499    632.345    600.329    600.329
 52.670    678.000    681.319     -3.319    600.439    655.010    626.745    600.439    600.439
 52.770    685.000    678.952      6.048    600.550    658.098    621.402    600.550    600.550
 52.870    660.000    679.522    -19.522    600.660    663.200    616.982    600.660    600.660
 52.970    658.833    684.275    -25.443    600.770    671.302    613.743    600.770    600.770
 53.070    687.000    694.939     -7.939    600.880    684.159    611.660    600.880    600.880
 53.170    729.397    714.051     15.346    600.990    704.473    610.568    600.990    600.990
 53.270    765.154    745.045     20.109    601.100    735.858    610.286    601.100    601.100
 53.370    811.000    791.823     19.177    601.210    782.345    610.685    601.210    601.210
 53.470    860.869    857.659      3.210    601.319    847.287    611.688    601.319    601.319
 53.570    921.901    943.467    -21.567    601.429    931.679    613.215    601.429    601.429
 53.670   1059.654   1045.625     14.029    601.538   1032.118    615.045    601.538    601.538
 53.770   1090.322   1154.169    -63.847    601.647   1138.669    617.151    601.647    601.647
 53.870   1219.000   1250.544    -31.544    601.756   1233.248    619.063    601.756    601.756
 53.970   1374.851   1310.244     64.607    601.865   1291.890    620.240    601.865    601.865
 54.070   1281.000   1313.553    -32.553    601.973   1295.294    620.265    601.973    601.973
 54.170   1259.097   1259.369     -0.271    602.082   1242.377    619.112    602.082    602.082
 54.270   1155.000   1166.170    -11.170    602.190   1151.236    617.162    602.190    602.190
 54.370   1011.127   1058.683    -47.557    602.298   1046.086    614.930    602.298    602.298
 54.470    923.000    956.166    -33.166    602.405    945.786    612.814    602.405    602.405
 54.570    890.000    869.502     20.498    602.512    860.997    611.040    602.512    602.512
 54.670    773.465    802.678    -29.214    602.620    795.624    609.690    602.620    602.620
 54.770    780.276    755.002     25.274    602.726    748.991    608.749    602.726    602.726
 54.870    742.706    723.195     19.511    602.833    717.888    608.148    602.833    602.833
 54.970    713.000    703.152      9.848    602.939    698.295    607.801    602.939    602.939
 55.070    641.127    691.119    -49.992    603.045    686.538    607.630    603.045    603.045
 55.170    636.000    684.244    -48.244    603.150    679.824    607.574    603.150    603.150
 55.270    681.000    680.642      0.358    603.256    676.304    607.596    603.256    603.256
 55.370    719.000    679.198     39.802    603.360    674.890    607.671    603.360    603.360
 55.470    699.192    679.326     19.866    603.465    675.003    607.789    603.465    603.465
 55.570    642.014    680.757    -38.743    603.569    676.384    607.944    603.569    603.569
 55.670    726.000    683.420     42.580    603.673    678.958    608.136    603.673    603.673
 55.770    734.671    687.383     47.289    603.776    682.792    608.368    603.776    603.776
 55.870    649.000    692.863    -43.863    603.879    688.096    608.647    603.879    603.879
 55.970    689.085    700.316    -11.230    603.982    695.309    608.988    603.982    603.982
 56.070    708.476    710.636     -2.160    604.084    705.300    609.419    604.084    604.084
 56.170    674.000    725.530    -51.530    604.185    719.722    609.991    604.185    604.185
 56.270    790.593    748.086     42.506    604.286    741.568    610.799    604.286    604.286
 56.370    753.272    783.505    -30.233    604.387    775.880    612.002    604.387    604.387
 56.470    887.220    839.710     47.509    604.487    830.340    613.839    604.487    604.487
 56.570    890.628    927.363    -36.735    604.587    915.284    616.637    604.587    604.587
 56.670   1027.879   1058.590    -30.711    604.687   1042.472    620.763    604.687    604.687
 56.770   1298.414   1243.948     54.466    604.785   1222.142    626.540    604.785    604.785
 56.870   1427.000   1487.726    -60.726    604.884   1458.457    634.099    604.884    604.884
 56.970   1744.000   1782.463    -38.463    604.982   1744.187    643.213    604.982    604.982
 57.070   2064.000   2103.859    -39.859    605.079   2055.776    653.147    605.079    605.079
 57.170   2453.230   2407.224     46.006    605.175   2349.895    662.543    605.175    605.175
 57.270   2547.000   2629.464    -82.464    605.272   2565.362    669.487    605.272    605.272
 57.370   2793.000   2707.399     85.601    605.367   2640.895    672.060    605.367    605.367
 57.470   2633.000   2614.719     18.281    605.462   2550.956    669.464    605.462    605.462
 57.570   2414.000   2382.858     31.142    605.557   2326.009    662.659    605.557    605.557
 57.670   1991.155   2076.850    -85.694    605.651   2029.109    653.627    605.651    605.651
 57.770   1802.000   1758.710     43.290    605.744   1720.392    644.262    605.744    605.744
 57.870   1403.637   1471.113    -67.475    605.836   1441.223    635.883    605.836    605.836
 57.970   1253.154   1236.582     16.572    605.928   1213.409    629.217    605.928    605.928
 58.070   1045.000   1061.477    -16.477    606.020   1043.035    624.542    606.020    606.020
 58.170    985.000    941.323     43.677    606.111    925.604    621.880    606.111    606.111
 58.270    895.000    866.456     28.544    606.201    851.477    621.210    606.201    606.201
 58.370    800.000    826.764    -26.764    606.290    810.437    622.632    606.290    606.290
 58.470    785.000    814.569    -29.569    606.379    794.512    626.439    606.379    606.379
 58.570    823.468    825.484     -2.016    606.467    798.900    633.042    606.467    606.467
 58.670    856.000    857.647     -1.647    606.554    821.427    642.756    606.554    606.554
 58.770    874.594    910.050    -35.456    606.641    861.184    655.477    606.641    606.641
 58.870    954.000    980.653    -26.653    606.727    916.943    670.398    606.727    606.727
 58.970   1058.000   1064.754     -6.754    606.812    985.697    685.826    606.812    606.812
 59.070   1192.829   1154.109     38.721    606.897   1061.709    699.256    606.897    606.897
 59.170   1197.000   1237.939    -40.939    606.981   1136.934    707.957    606.981    606.981
 59.270   1261.161   1306.531    -45.370    607.064   1203.378    710.204    607.064    607.064
 59.370   1293.624   1354.134    -60.510    607.146   1255.098    706.190    607.146    607.146
 59.470   1362.964   1377.542    -14.578    607.228   1287.287    697.510    607.228    607.228
 59.570   1307.000   1374.552    -67.552    607.308   1295.850    686.052    607.308    607.308
 59.670   1325.803   1347.317    -21.514    607.388   1281.246    673.506    607.388    607.388
 59.770   1385.000   1305.882     79.118    607.468   1252.047    661.342    607.468    607.468
 59.870   1268.000   1265.131      2.869    607.546   1222.040    650.654    607.546    607.546
 59.970   1305.054   1238.538     66.516    607.624   1204.174    641.970    607.624    607.624
 60.070   1250.264   1234.799     15.466    607.700   1207.140    635.297    607.700    607.700
 60.170   1241.659   1258.023    -16.364    607.776   1235.346    630.344    607.776    607.776
 60.270   1364.000   1308.997     55.003    607.851   1289.944    626.748    607.851    607.851
 60.370   1446.000   1384.628     61.372    607.926   1368.152    624.203    607.926    607.926
 60.470   1483.000   1475.339      7.661    607.999   1460.638    622.469    607.999    607.999
 60.570   1598.009   1563.176     34.833    608.072   1549.637    621.365    608.072    608.072
 60.670   1657.000   1623.328     33.672    608.143   1610.483    620.750    608.143    608.143
 60.770   1592.339   1631.634    -39.295    608.214   1619.112    620.527    608.214    608.214
 60.870   1516.004   1577.507    -61.503    608.284   1564.991    620.630    608.284    608.284
 60.970   1474.000   1471.055      2.945    608.353   1458.258    621.021    608.353    608.353
 61.070   1329.548   1335.499     -5.951    608.421   1322.135    621.692    608.421    608.421
 61.170   1197.000   1194.744      2.256    608.488   1180.501    622.668    608.488    608.488
 61.270   1068.000   1066.833      1.167    608.555   1051.315    624.028    608.555    608.555
 61.370    979.069    962.689     16.381    608.620    945.324    625.952    608.620    608.620
 61.470    857.000    887.067    -30.067    608.684    866.952    628.771    608.684    608.684
 61.570    787.549    840.522    -52.973    608.748    816.185    633.054    608.748    608.748
 61.670    825.000    821.807      3.193    608.810    790.891    639.690    608.810    608.810
 61.770    836.000    830.007      5.993    608.872    788.902    649.929    608.872    608.872
 61.870    836.000    865.701    -29.701    608.932    809.243    665.324    608.932    608.932
 61.970    921.000    930.836     -9.836    608.992    852.230    687.507    608.992    608.992
 62.070   1001.000   1027.333    -26.333    609.050    918.504    717.758    609.050    609.050
 62.170   1073.000   1154.848    -81.848    609.108   1007.378    756.419    609.108    609.108
 62.270   1257.000   1308.289    -51.289    609.165   1114.996    802.261    609.165    609.165
 62.370   1494.200   1475.730     18.471    609.220   1232.766    851.955    609.220    609.220
 62.470   1684.000   1637.204     46.796    609.275   1346.462    899.767    609.275    609.275
 62.570   1749.000   1765.566    -16.566    609.328   1436.798    937.849    609.328    609.328
 62.670   1853.563   1832.322     21.241    609.381   1483.541    957.938    609.381    609.381
 62.770   1782.000   1819.720    -37.720    609.432   1474.084    954.889    609.432    609.432
 62.870   1745.000   1731.146     13.854    609.482   1410.803    929.698    609.482    609.482
 62.970   1638.200   1588.791     49.409    609.532   1309.418    888.824    609.532    609.532
 63.070   1357.310   1421.497    -64.187    609.580   1190.368    840.663    609.580    609.580
 63.170   1280.000   1254.406     25.594    609.627   1071.475    792.537    609.627    609.627
 63.270   1095.642   1104.849     -9.207    609.673    965.023    749.492    609.673    609.673
 63.370    918.000    982.106    -64.106    609.718    877.588    714.235    609.718    609.718
 63.470    885.000    888.716     -3.716    609.762    810.966    687.511    609.762    609.762
 63.570    772.998    822.466    -49.468    609.805    763.588    668.680    609.805    609.805
 63.670    785.597    778.608      6.989    609.847    732.086    656.364    609.847    609.847
 63.770    737.834    751.796    -13.962    609.887    712.670    649.005    609.887    609.887
 63.870    696.000    737.446    -41.446    609.927    702.090    645.272    609.927    609.927
 63.970    722.000    732.442    -10.442    609.965    698.123    644.269    609.965    609.965
 64.070    753.000    735.357     17.643    610.002    699.707    645.632    610.002    610.002
 64.170    749.000    746.384      2.616    610.038    706.846    649.549    610.038    610.038
 64.270    772.000    767.170      4.830    610.073    720.431    656.776    610.073    610.073
 64.370    801.000    800.349      0.651    610.107    741.833    668.574    610.107    610.107
 64.470    809.000    849.071    -40.071    610.139    772.525    686.619    610.139    610.139
 64.570    932.000    916.186     15.814    610.171    813.526    712.744    610.171    610.171
 64.670   1017.000   1003.181     13.819    610.201    864.767    748.504    610.201    610.201
 64.770   1080.362   1108.950    -28.588    610.230    924.464    794.581    610.230    610.230
 64.870   1304.000   1228.556     75.444    610.258    988.538    850.120    610.258    610.258
 64.970   1418.585   1352.284     66.301    610.284   1050.270    912.127    610.284    610.284
 65.070   1503.752   1465.626     38.125    610.310   1100.704    975.058    610.310    610.310
 65.170   1583.000   1551.328     31.672    610.334   1130.745   1030.753    610.334    610.334
 65.270   1655.000   1593.902     61.098    610.357   1134.806   1069.313    610.357    610.357
 65.370   1611.000   1585.012     25.988    610.379   1113.372   1081.913    610.379    610.379
 65.470   1505.000   1527.138    -22.138    610.399   1072.326   1065.140    610.399    610.399
 65.570   1513.000   1433.027     79.973    610.418   1020.196   1023.210    610.418    610.418
 65.670   1332.000   1320.253     11.747    610.437    965.291    965.386    610.437    610.437
 65.770   1147.000   1204.877    -57.877    610.453    913.784    901.553    610.453    610.453
 65.870   1065.000   1098.129    -33.129    610.469    869.038    839.580    610.469    610.469
 65.970    940.000   1005.986    -65.986    610.483    831.856    784.642    610.483    610.483
 66.070    953.000    930.221     22.779    610.496    801.360    739.388    610.496    610.496
 66.170    882.000    870.058     11.942    610.508    776.194    704.403    610.508    610.508
 66.270    771.000    823.637    -52.637    610.518    755.368    678.814    610.518    610.518
 66.370    764.000    788.768    -24.768    610.527    738.364    660.952    610.527    610.527
 66.470    713.000    763.223    -50.223    610.535    724.860    648.914    610.535    610.535
 66.570    752.000    744.967      7.033    610.542    714.559    640.960    610.542    610.542
 66.670    735.297    732.341      2.956    610.547    707.190    635.705    610.547    610.547
 66.770    694.612    724.128    -29.516    610.551    702.522    632.162    610.551    610.551
 66.870    691.000    719.513    -28.513    610.554    700.387    629.683    610.554    610.554
 66.970    731.950    718.025     13.925    610.555    700.710    627.873    610.555    610.555
 67.070    699.000    719.525    -20.525    610.555    703.572    626.510    610.555    610.555
 67.170    705.000    724.277    -19.277    610.554    709.354    625.480    610.554    610.554
 67.270    717.000    733.096    -16.096    610.551    718.914    624.736    610.551    610.551
 67.370    742.909    747.568     -4.659    610.547    733.835    624.283    610.547    610.547
 67.470    787.000    770.301     16.699    610.542    756.676    624.168    610.542    610.542
 67.570    781.000    805.132    -24.132    610.535    791.187    624.481    610.535    610.535
 67.670    850.000    857.169     -7.169    610.527    842.345    625.350    610.527    610.527
 67.770    961.000    932.494     28.506    610.518    916.075    626.935    610.518    610.518
 67.870    962.000   1037.385    -75.385    610.507   1018.488    629.402    610.507    610.507
 67.970   1075.000   1176.990   -101.990    610.495   1154.598    632.887    610.495    610.495
 68.070   1296.000   1353.551    -57.551    610.481   1326.593    637.447    610.481    610.481
 68.170   1516.000   1564.460    -48.460    610.466   1531.945    643.004    610.466    610.466
 68.270   1822.000   1800.455     21.545    610.450   1761.658    649.293    610.450    610.450
 68.370   2046.000   2044.226      1.774    610.432   1998.912    655.828    610.432    610.432
 68.470   2223.987   2269.855    -45.868    610.413   2218.516    661.880    610.413    610.413
 68.570   2412.145   2444.576    -32.431    610.393   2388.624    666.530    610.393    610.393
 68.670   2540.000   2535.761      4.239    610.371   2477.515    668.862    610.371    610.371
 68.770   2548.000   2523.428     24.572    610.348   2465.756    668.316    610.348    610.348
 68.870   2350.079   2410.484    -60.405    610.323   2356.163    664.971    610.323    610.323
 68.970   2289.000   2221.010     67.990    610.297   2172.141    659.498    610.297    610.297
 69.070   1959.000   1988.491    -29.491    610.270   1946.241    652.833    610.270    610.270
 69.170   1755.000   1744.407     10.593    610.241   1709.071    645.854    610.241    610.241
 69.270   1556.000   1512.719     43.281    610.210   1483.932    639.232    610.210    610.210
 69.370   1358.000   1308.813     49.187    610.178   1285.785    633.396    610.178    610.178
 69.470   1139.000   1140.297     -1.297    610.145   1122.031    628.558    610.145    610.145
 69.570   1032.207   1008.504     23.704    610.111    993.969    624.755    610.111    610.111
 69.670    964.575    910.353     54.222    610.074    898.606    621.900    610.074    610.074
 69.770    935.000    840.285     94.715    610.037    830.541    619.837    610.037    610.037
 69.870    866.000    791.946     74.054    609.998    783.595    618.388    609.998    609.998
 69.970    806.000    759.385     46.615    609.957    751.983    617.387    609.957    609.957
 70.070    824.000    737.699     86.301    609.916    730.939    616.695    609.916    609.916
 70.170    765.000    723.233     41.767    609.872    716.908    616.211    609.872    609.872
 70.270    758.760    713.471     45.289    609.827    707.444    615.864    609.827    609.827
 70.370    720.000    706.796     13.204    609.781    700.975    615.609    609.781    609.781
 70.470    709.000    702.232      6.768    609.733    696.553    615.418    609.733    609.733
 70.570    666.622    699.219    -32.598    609.684    693.636    615.271    609.684    609.684
 70.670    684.000    697.483    -13.483    609.633    691.947    615.170    609.633    609.633
 70.770    651.010    696.914    -45.904    609.581    691.384    615.112    609.581    609.581
 70.870    750.000    697.551     52.449    609.528    691.982    615.095    609.528    609.528
 70.970    705.000    699.587      5.413    609.472    693.927    615.129    609.472    609.472
 71.070    671.259    703.427    -32.167    609.416    697.608    615.229    609.416    609.416
 71.170    708.366    709.772     -1.407    609.358    703.700    615.421    609.358    609.358
 71.270    734.000    719.749     14.251    609.298    713.287    615.747    609.298    609.298
 71.370    733.436    735.042     -1.606    609.237    727.991    616.270    609.237    609.237
 71.470    718.623    758.008    -39.385    609.174    750.080    617.077    609.174    609.174
 71.570    842.874    791.696     51.178    609.110    782.490    618.280    609.110    609.110
 71.670    787.502    839.709    -52.206    609.045    828.690    620.013    609.045    609.045
 71.770    878.000    905.830    -27.830    608.977    892.322    622.415    608.977    608.977
 71.870   1042.000    993.376     48.624    608.909    976.581    625.611    608.909    608.909
 71.970   1091.000   1104.322    -13.322    608.839   1083.368    629.672    608.839    608.839
 72.070   1287.000   1238.299     48.701    608.767   1212.326    634.589    608.767    608.767
 72.170   1428.570   1391.614     36.957    608.694   1359.900    640.225    608.694    608.694
 72.270   1609.467   1556.430     53.037    608.619   1518.542    646.296    608.619    608.619
 72.370   1717.000   1720.201     -3.201    608.543   1676.168    652.342    608.543    608.543
 72.470   1912.604   1865.672     46.932    608.465   1816.162    657.733    608.465    608.465
 72.570   1922.264   1972.513    -50.249    608.386   1918.939    661.722    608.386    608.386
 72.670   2075.047   2022.024     53.023    608.305   1966.488    663.626    608.305    608.305
 72.770   1977.658   2004.291    -26.633    608.223   1949.250    663.083    608.223    608.223
 72.870   1894.000   1922.989    -28.989    608.139   1870.760    660.230    608.139    608.139
 72.970   1733.592   1793.429    -59.837    608.054   1745.755    655.629    608.054    608.054
 73.070   1666.000   1635.823     30.177    607.967   1593.706    650.019    607.967    607.967
 73.170   1465.000   1469.189     -4.189    607.878   1432.938    644.090    607.878    607.878
 73.270   1328.000   1308.391     19.609    607.788   1277.785    638.373    607.788    607.788
 73.370   1158.284   1163.490     -5.206    607.697   1137.960    633.218    607.697    607.697
 73.470    987.000   1040.084    -53.084    607.604   1018.879    628.806    607.604    607.604
 73.570    978.974    940.030     38.943    607.509    922.348    625.192    607.509    607.509
 73.670    901.278    862.382     38.896    607.413    847.458    622.338    607.413    607.413
 73.770    841.765    804.404     37.361    607.316    791.554    620.165    607.316    607.316
 73.870    755.000    762.518     -7.518    607.216    751.160    618.574    607.216    607.216
 73.970    770.373    733.059     37.313    607.116    722.705    617.469    607.116    607.116
 74.070    758.609    712.769     45.840    607.013    703.010    616.772    607.013    607.013
 74.170    710.672    699.039     11.633    606.910    689.522    616.426    606.910    606.910
 74.270    700.000    689.954     10.046    606.804    680.360    616.399    606.804    606.804
 74.370    658.882    684.208    -25.325    606.697    674.232    616.676    606.697    606.697
 74.470    710.000    680.958     29.042    606.589    670.296    617.257    606.589    606.589
 74.570    645.203    679.671    -34.468    606.479    668.021    618.138    606.479    606.479
 74.670    628.000    679.979    -51.979    606.367    667.053    619.308    606.367    606.367
 74.770    641.000    681.578    -40.578    606.254    667.119    620.733    606.254    606.254
 74.870    681.000    684.144     -3.144    606.140    667.956    622.353    606.140    606.140
 74.970    692.147    687.282      4.865    606.024    669.263    624.074    606.024    606.024
 75.070    674.000    690.500    -16.500    605.906    670.677    625.765    605.906    605.906
 75.170    722.000    693.218     28.782    605.787    671.778    627.267    605.787    605.787
 75.270    670.998    694.847    -23.849    605.666    672.140    628.418    605.666    605.666
 75.370    713.000    694.967     18.033    605.543    671.449    629.109    605.543    605.543
 75.470    738.000    693.519     44.481    605.420    669.637    629.347    605.420    605.420
 75.570    702.000    690.880     11.120    605.294    666.932    629.283    605.294    605.294
 75.670    716.000    687.761     28.239    605.167    663.778    629.187    605.167    605.167
 75.770    637.341    685.039    -47.698    605.039    660.710    629.397    605.039    605.039
 75.870    718.000    683.641     34.359    604.909    658.271    630.299    604.909    604.909
 75.970    707.250    684.514     22.736    604.777    656.987    632.318    604.777    604.777
 76.070    707.000    688.630     18.370    604.644    657.358    635.920    604.644    604.644
 76.170    717.000    696.967     20.033    604.509    659.867    641.604    604.509    604.509
 76.270    779.000    710.459     68.541    604.373    664.952    649.866    604.373    604.373
 76.370    683.482    729.903    -46.421    604.235    672.968    661.145    604.235    604.235
 76.470    797.000    755.811     41.189    604.096    684.133    675.737    604.096    604.096
 76.570    769.000    788.237    -19.237    603.955    698.444    693.699    603.955    603.955
 76.670    796.958    826.593    -29.635    603.813    715.604    714.741    603.813    603.813
 76.770    855.368    869.478    -14.110    603.669    734.938    738.134    603.669    603.669
 76.870    919.576    914.541      5.035    603.523    755.342    762.637    603.523    603.523
 76.970    918.000    958.400    -40.400    603.376    775.233    786.448    603.376    603.376
 77.070   1013.000    996.701     16.299    603.228    792.588    807.240    603.228    603.228
 77.170   1079.000   1024.559     54.441    603.078    805.139    822.396    603.078    603.078
 77.270   1025.000   1037.613    -12.613    602.926    810.863    829.579    602.926    602.926
 77.370   1088.000   1033.515     54.485    602.773    808.669    827.531    602.773    602.773
 77.470   1025.014   1012.921     12.093    602.618    798.857    816.606    602.618    602.618
 77.570    972.466    979.181     -6.715    602.462    782.974    798.606    602.462    602.462
 77.670    899.000    936.996    -37.996    602.305    763.193    776.058    602.305    602.305
 77.770    836.000    891.060    -55.060    602.145    741.681    751.486    602.145    602.145
 77.870    814.927    845.292    -30.366    601.985    720.255    726.994    601.985    601.985
 77.970    804.000    802.569      1.431    601.822    700.242    704.129    601.822    601.822
 78.070    815.397    764.743     50.655    601.659    682.497    683.889    601.659    601.659
 78.170    729.350    732.755     -3.405    601.494    667.457    666.781    601.494    601.494
 78.270    688.269    706.795    -18.526    601.327    655.207    652.908    601.327    601.327
 78.370    702.000    686.500     15.500    601.159    645.579    642.074    601.159    601.159
 78.470    666.000    671.152     -5.152    600.989    638.240    633.897    600.989    600.989
 78.570    653.000    659.875     -6.875    600.817    632.783    627.906    600.817    600.817
 78.670    682.000    651.782     30.218    600.645    628.799    623.625    600.645    600.645
 78.770    633.000    646.074    -13.074    600.470    625.915    620.627    600.470    600.470
 78.870    648.619    642.095      6.524    600.295    623.828    618.559    600.295    600.295
 78.970    656.000    639.342     16.658    600.118    622.303    617.154    600.118    600.118
 79.070    679.957    637.455     42.502    599.939    621.174    616.217    599.939    599.939
 79.170    620.000    636.193    -16.193    599.759    620.326    615.622    599.759    599.759
 79.270    615.000    635.404    -20.404    599.577    619.690    615.289    599.577    599.577
 79.370    635.000    635.008     -0.008    599.394    619.225    615.174    599.394    599.394
 79.470    633.000    634.972     -1.972    599.209    618.913    615.265    599.209    599.209
 79.570    682.689    635.306     47.383    599.023    618.754    615.572    599.023    599.023
 79.670    615.504    636.061    -20.557    598.835    618.760    616.134    598.835    598.835
 79.770    658.178    637.332     20.846    598.646    618.954    617.020    598.646    598.646
 79.870    666.000    639.270     26.730    598.456    619.374    618.348    598.456    598.456
 79.970    629.000    642.110    -13.110    598.264    620.067    620.303    598.264    598.264
 80.070    608.000    646.197    -38.197    598.071    621.099    623.163    598.071    598.071
 80.170    669.278    652.024     17.254    597.876    622.553    627.339    597.876    597.876
 80.270    665.446    660.278      5.169    597.679    624.543    633.404    597.679    597.679
 80.370    635.000    671.865    -36.865    597.482    627.211    642.123    597.482    597.482
 80.470    705.000    687.925     17.075    597.283    630.736    654.454    597.283    597.283
 80.570    696.000    709.790    -13.790    597.082    635.334    671.516    597.082    597.082
 80.670    767.000    738.893     28.107    596.880    641.244    694.501    596.880    596.880
 80.770    767.000    776.604     -9.604    596.677    648.722    724.524    596.677    596.677
 80.870    810.024    824.016    -13.992    596.472    658.019    762.427    596.472    596.472
 80.970    870.741    881.687    -10.946    596.265    669.363    808.540    596.265    596.265
 81.070    984.000    949.361     34.639    596.058    682.924    862.440    596.058    596.058
 81.170   1064.000   1025.685     38.315    595.849    698.750    922.725    595.849    595.849
 81.270   1147.000   1107.981     39.019    595.638    716.694    986.866    595.638    595.638
 81.370   1286.000   1192.128     93.872    595.426    736.342   1051.156    595.426    595.426
 81.470   1360.000   1272.691     87.309    595.213    756.987   1110.868    595.213    595.213
 81.570   1368.000   1343.407     24.593    594.998    777.656   1160.714    594.998    594.998
 81.670   1425.463   1398.162     27.301    594.782    797.227   1195.701    594.782    594.782
 81.770   1377.779   1432.203    -54.424    594.565    814.574   1212.199    594.565    594.565
 81.870   1563.000   1443.191    119.809    594.346    828.811   1208.753    594.346    594.346
 81.970   1559.000   1431.226    127.774    594.126    839.274   1186.128    594.126    594.126
 82.070   1491.000   1398.516     92.484    593.904    845.571   1146.918    593.904    593.904
 82.170   1424.000   1348.935     75.065    593.682    847.633   1095.069    593.682    593.682
 82.270   1358.000   1287.379     70.621    593.457    845.631   1035.301    593.457    593.457
 82.370   1285.000   1218.945     66.055    593.232    839.844    972.435    593.232    593.232
 82.470   1177.094   1148.200     28.895    593.005    830.588    910.721    593.005    593.005
 82.570   1063.731   1078.809    -15.078    592.777    818.272    853.417    592.777    592.777
 82.670   1024.538   1013.491     11.047    592.547    803.503    802.635    592.547    592.547
 82.770    955.000    954.062      0.938    592.316    787.053    759.418    592.316    592.316
 82.870    887.099    901.461    -14.361    592.084    769.715    723.915    592.084    592.084
 82.970    845.000    855.837    -10.837    591.851    752.142    695.623    591.851    591.851
 83.070    791.000    816.776    -25.776    591.616    734.818    673.642    591.616    591.616
 83.170    754.000    783.608    -29.608    591.380    718.138    656.910    591.380    591.380
 83.270    726.112    755.673    -29.561    591.143    702.483    644.384    591.143    591.143
 83.370    689.000    732.444    -43.444    590.904    688.242    635.148    590.904    590.904
 83.470    719.000    713.531      5.469    590.664    675.767    628.462    590.664    590.664
 83.570    678.386    698.644    -20.258    590.423    665.331    623.760    590.423    590.423
 83.670    727.952    687.548     40.404    590.181    657.110    620.634    590.181    590.181
 83.770    639.000    680.030    -41.030    589.937    651.175    618.798    589.937    589.937
 83.870    703.008    675.855     27.153    589.692    647.494    618.051    589.692    589.692
 83.970    702.000    674.736     27.264    589.446    645.936    618.233    589.446    589.446
 84.070    632.134    676.292    -44.158    589.199    646.272    619.198    589.199    589.199
 84.170    677.839    680.033     -2.193    588.950    648.171    620.782    588.950    588.950
 84.270    655.000    685.342    -30.342    588.700    651.216    622.788    588.700    588.700
 84.370    671.000    691.483    -20.483    588.449    654.904    624.983    588.449    588.449
 84.470    644.000    697.615    -53.615    588.197    658.668    627.092    588.197    588.197
 84.570    655.000    702.831    -47.831    587.944    661.905    628.815    587.944    587.944
 84.670    636.000    706.254    -70.254    587.689    664.032    629.855    587.689    587.689
 84.770    730.316    707.176     23.139    587.433    664.581    629.973    587.433    587.433
 84.870    625.000    705.232    -80.232    587.177    663.305    629.050    587.177    587.177
 84.970    660.828    700.488    -39.660    586.918    660.237    627.119    586.918    586.918
 85.070    639.000    693.399    -54.399    586.659    655.659    624.355    586.659    586.659
 85.170    671.000    684.656    -13.656    586.399    650.002    621.014    586.399    586.399
 85.270    647.621    675.014    -27.393    586.137    643.738    617.380    586.137    586.137
 85.370    627.000    665.180    -38.180    585.875    637.304    613.723    585.875    585.875
 85.470    647.000    655.753     -8.753    585.611    631.065    610.276    585.611    585.611
 85.570    601.000    647.203    -46.203    585.346    625.295    607.235    585.346    585.346
 85.670    607.000    639.866    -32.866    585.080    620.178    604.752    585.080    585.080
 85.770    600.249    633.956    -33.707    584.813    615.814    602.941    584.813    584.813
 85.870    594.080    629.582    -35.503    584.545    612.231    601.882    584.545    584.545
 85.970    599.996    626.771    -26.774    584.276    609.405    601.628    584.276    584.276
 86.070    625.000    625.482     -0.482    584.006    607.272    602.202    584.006    584.006
 86.170    609.000    625.637    -16.637    583.734    605.753    603.603    583.734    583.734
 86.270    632.000    627.126      4.874    583.462    604.769    605.801    583.462    583.462
 86.370    612.000    629.820    -17.820    583.188    604.255    608.733    583.188    583.188
 86.470    621.000    633.573    -12.573    582.914    604.171    612.293    582.914    582.914
 86.570    643.818    638.218      5.600    582.639    604.503    616.326    582.639    582.639
 86.670    628.505    643.566    -15.062    582.362    605.270    620.627    582.362    582.362
 86.770    682.276    649.408     32.868    582.085    606.525    624.932    582.085    582.085
 86.870    628.000    655.511    -27.511    581.806    608.350    628.927    581.806    581.806
 86.970    625.000    661.630    -36.630    581.527    610.850    632.261    581.527    581.527
 87.070    664.000    667.540     -3.540    581.246    614.149    634.587    581.246    581.246
 87.170    643.000    673.086    -30.086    580.965    618.373    635.621    580.965    580.965
 87.270    692.127    678.236     13.891    580.683    623.640    635.217    580.683    580.683
 87.370    662.000    683.105    -21.105    580.399    630.034    633.402    580.399    580.399
 87.470    677.944    687.914     -9.970    580.115    637.586    630.367    580.115    580.115
 87.570    732.000    692.899     39.101    579.830    646.247    626.398    579.830    579.830
 87.670    703.000    698.226      4.774    579.544    655.865    621.812    579.544    579.544
 87.770    688.994    703.920    -14.926    579.257    666.169    616.905    579.257    579.257
 87.870    682.000    709.834    -27.834    578.970    676.756    611.936    578.970    578.970
 87.970    673.725    715.634    -41.908    578.681    687.081    607.113    578.681    578.681
 88.070    679.055    720.813    -41.758    578.391    696.479    602.598    578.391    578.391
 88.170    683.459    724.742    -41.283    578.101    704.210    598.501    578.101    578.101
 88.270    718.325    726.780     -8.456    577.810    709.573    594.885    577.810    577.810
 88.370    720.000    726.440     -6.440    577.518    712.062    591.768    577.518    577.518
 88.470    773.302    723.548     49.754    577.225    711.517    589.135    577.225    577.225
 88.570    732.000    718.304     13.696    576.931    708.180    586.945    576.931    576.931
 88.670    752.000    711.220     40.780    576.637    702.611    585.148    576.637    576.637
 88.770    667.701    702.978    -35.278    576.342    695.549    583.687    576.342    576.342
 88.870    692.000    694.304     -2.304    576.046    687.773    582.508    576.046    576.046
 88.970    690.000    685.888      4.112    575.749    680.022    581.561    575.749    575.749
 89.070    671.828    678.343     -6.515    575.451    672.951    580.804    575.451    575.451
 89.170    660.000    672.170    -12.170    575.153    667.095    580.202    575.153    575.153
 89.270    705.000    667.730     37.270    574.854    662.843    579.727    574.854    574.854
 89.370    652.199    665.219    -13.020    574.554    660.415    579.356    574.554    574.554
 89.470    624.524    664.666    -40.142    574.254    659.861    579.067    574.254    574.254
 89.570    714.291    665.929     48.362    573.953    661.057    578.843    573.953    573.953
 89.670    672.000    668.711      3.289    573.651    663.725    578.664    573.651    573.651
 89.770    669.000    672.574     -3.574    573.349    667.447    578.512    573.349    573.349
 89.870    712.982    676.968     36.014    573.046    671.691    578.367    573.046    573.046
 89.970    637.482    681.254    -43.772    572.742    675.840    578.208    572.742    572.742
 90.070    709.000    684.754     24.246    572.438    679.239    578.011    572.438    572.438
 90.170    683.460    686.832     -3.371    572.133    681.270    577.758    572.133    572.133
 90.270    739.000    686.994     52.006    571.827    681.455    577.432    571.827    571.827
 90.370    696.152    685.001     11.152    571.521    679.562    577.027    571.521    571.521
 90.470    700.000    680.903     19.097    571.215    675.638    576.547    571.215    571.215
 90.570    696.543    675.011     21.532    570.907    669.980    576.004    570.907    570.907
 90.670    620.000    667.790    -47.790    570.600    663.036    575.413    570.600    570.600
 90.770    703.000    659.755     43.245    570.291    655.306    574.795    570.291    570.291
 90.870    661.000    651.395      9.605    569.983    647.259    574.167    569.983    569.983
 90.970    632.934    643.133    -10.198    569.673    639.305    573.543    569.673    569.673
 91.070    594.014    635.306    -41.292    569.364    631.769    572.937    569.364    569.364
 91.170    629.000    628.164      0.836    569.053    624.892    572.355    569.053    569.053
 91.270    590.875    621.870    -30.994    568.743    618.831    571.805    568.743    568.743
 91.370    619.850    616.508      3.342    568.431    613.669    571.289    568.431    568.431
 91.470    626.000    612.099     13.901    568.120    609.425    570.808    568.120    568.120
 91.570    635.000    608.614     26.386    567.808    606.070    570.361    567.808    567.808
 91.670    640.482    605.990     34.492    567.495    603.546    569.946    567.495    567.495
 91.770    589.000    604.153    -15.153    567.183    601.779    569.560    567.183    567.183
 91.870    638.000    603.029     34.971    566.869    600.699    569.201    566.869    566.869
 91.970    658.000    602.560     55.440    566.556    600.249    568.867    566.556    566.556
 92.070    611.000    602.714      8.286    566.242    600.398    568.556    566.242    566.242
 92.170    608.000    603.489      4.511    565.928    601.143    568.270    565.928    565.928
 92.270    640.000    604.920     35.080    565.613    602.519    568.009    565.613    565.613
 92.370    612.000    607.077      4.923    565.299    604.593    567.775    565.299    565.299
 92.470    587.143    610.065    -22.922    564.983    607.464    567.574    564.983    564.983
 92.570    633.000    614.015     18.985    564.668    611.261    567.410    564.668    564.668
 92.670    666.000    619.079     46.921    564.353    616.130    567.286    564.353    564.353
 92.770    616.000    625.419     -9.419    564.037    622.226    567.210    564.037    564.037
 92.870    664.893    633.188     31.705    563.721    629.700    567.185    563.721    563.721
 92.970    680.237    642.522     37.715    563.404    638.684    567.214    563.404    563.404
 93.070    699.000    653.520     45.480    563.088    649.273    567.300    563.088    563.088
 93.170    682.610    666.227     16.383    562.771    661.515    567.442    562.771    562.771
 93.270    656.000    680.623    -24.623    562.455    675.392    567.638    562.455    562.455
 93.370    708.000    696.610     11.390    562.138    690.810    567.884    562.138    562.138
 93.470    729.610    714.002     15.607    561.821    707.590    568.173    561.821    561.821
 93.570    726.000    732.519     -6.519    561.504    725.457    568.498    561.504    561.504
 93.670    789.000    751.788     37.212    561.186    744.045    568.855    561.186    561.186
 93.770    777.000    771.359      5.641    560.869    762.908    569.241    560.869    560.869
 93.870    763.787    790.757    -26.971    560.552    781.566    569.660    560.552    560.552
 93.970    815.000    809.560      5.440    560.234    799.581    570.127    560.234    560.234
 94.070    776.581    827.503    -50.922    559.917    816.659    570.673    559.917    559.917
 94.170    848.000    844.559      3.441    559.600    832.720    571.349    559.600    559.600
 94.270    874.453    860.943     13.510    559.282    847.911    572.224    559.282    559.282
 94.370    899.174    877.026     22.148    558.965    862.522    573.379    558.965    558.965
 94.470    842.000    893.196    -51.196    558.648    876.856    574.899    558.648    558.648
 94.570    853.328    909.723    -56.396    558.331    891.106    576.860    558.331    558.331
 94.670    923.372    926.682     -3.310    558.013    905.288    579.320    558.013    558.013
 94.770   1029.000    943.984     85.016    557.696    919.287    582.308    557.696    557.696
 94.870    951.000    961.438    -10.438    557.380    932.919    585.814    557.380    557.380
 94.970    988.000    978.785      9.215    557.063    945.979    589.786    557.063    557.063
 95.070    981.800    995.766    -13.966    556.746    958.311    594.122    556.746    556.746
 95.170    984.000   1012.053    -28.053    556.430    969.738    598.667    556.430    556.430
 95.270   1024.000   1027.136     -3.136    556.114    979.955    603.221    556.114    556.114
 95.370   1021.000   1040.246    -19.246    555.798    988.435    607.541    555.798    555.798
 95.470   1042.000   1050.341     -8.341    555.482    994.410    611.351    555.482    555.482
 95.570   1107.000   1056.199     50.801    555.166    996.945    614.365    555.166    555.166
 95.670   1095.000   1056.633     38.367    554.851    995.112    616.326    554.851    554.851
 95.770   1131.000   1050.736     80.264    554.536    988.199    617.037    554.536    554.536
 95.870   1057.000   1038.162     18.838    554.221    975.952    616.405    554.221    554.221
 95.970   1051.524   1019.276     32.248    553.907    958.702    614.465    553.907    553.907
 96.070   1024.000    995.131     28.869    553.593    937.347    611.368    553.593    553.593
 96.170    993.738    967.281     26.457    553.280    913.207    607.351    553.280    553.280
 96.270    958.578    937.552     21.026    552.966    887.829    602.692    552.966    552.966
 96.370    891.000    907.841    -16.841    552.654    862.826    597.673    552.654    552.654
 96.470    937.000    879.985     57.015    552.341    839.773    592.559    552.341    552.341
 96.570    861.000    855.683      5.317    552.029    820.140    587.576    552.029    552.029
 96.670    926.000    836.456     89.544    551.718    805.266    582.909    551.718    551.718
 96.770    870.019    823.621     46.398    551.407    796.332    578.691    551.407    551.407
 96.870    820.000    818.276      1.724    551.096    794.350    575.011    551.096    551.096
 96.970    823.609    821.298      2.311    550.786    800.155    571.911    550.786    550.786
 97.070    892.000    833.333     58.667    550.477    814.385    569.397    550.477    550.477
 97.170    926.000    854.791     71.209    550.168    837.475    567.447    550.168    550.168
 97.270    925.009    885.828     39.180    549.860    869.623    566.018    549.860    549.860
 97.370    930.000    926.326      3.674    549.552    910.764    565.057    549.552    549.552
 97.470   1031.000    975.857     55.143    549.245    960.528    564.506    549.245    549.245
 97.570   1054.000   1033.640     20.360    548.939   1018.197    564.305    548.939    548.939
 97.670   1080.000   1098.498    -18.498    548.633   1082.656    564.390    548.633    548.633
 97.770   1147.000   1168.802    -21.802    548.328   1152.339    564.699    548.328    548.328
 97.870   1273.276   1242.463     30.812    548.024   1225.224    565.166    548.024    548.024
 97.970   1323.468   1316.836      6.632    547.720   1298.738    565.720    547.720    547.720
 98.070   1448.000   1388.964     59.036    547.417   1369.994    566.290    547.417    547.417
 98.170   1397.000   1455.311    -58.311    547.115   1435.537    566.797    547.115    547.115
 98.270   1521.575   1512.166      9.409    546.814   1491.735    567.162    546.814    546.814
 98.370   1565.000   1555.937      9.063    546.514   1535.071    567.310    546.514    546.514
 98.470   1598.000   1583.629     14.371    546.214   1562.610    567.180    546.214    546.214
 98.570   1630.000   1593.366     36.634    545.916   1572.514    566.733    545.916    545.916
 98.670   1608.768   1584.773     23.995    545.618   1564.414    565.962    545.618    545.618
 98.770   1598.000   1559.034     38.966    545.321   1539.470    564.889    545.321    545.321
 98.870   1533.239   1518.626     14.613    545.025   1500.109    563.562    545.025    545.025
 98.970   1432.000   1466.852    -34.852    544.730   1449.570    562.044    544.730    544.730
 99.070   1434.000   1407.376     26.624    544.436   1391.448    560.405    544.436    544.436
 99.170   1350.000   1343.855      6.145    544.143   1329.332    558.713    544.143    544.143
 99.270   1254.000   1279.712    -25.712    543.851   1266.583    557.029    543.851    543.851
 99.370   1167.000   1218.000    -51.000    543.560   1206.201    555.407    543.560    543.560
 99.470   1139.000   1161.356    -22.356    543.270   1150.778    553.893    543.270    543.270
 99.570   1155.905   1111.984     43.922    542.982   1102.482    552.522    542.982    542.982
 99.670   1033.000   1071.684    -38.684    542.694   1063.087    551.322    542.694    542.694
 99.770   1033.000   1041.884     -8.884    542.408   1034.004    550.310    542.408    542.408
 99.870   1053.000   1023.675     29.325    542.122   1016.315    549.497    542.122    542.122
 99.970    998.000   1017.832    -19.832    541.838   1010.793    548.885    541.838    541.838
100.070   1009.960   1024.825    -14.865    541.555   1017.911    548.470    541.555    541.555
100.170    968.000   1044.825    -76.825    541.274   1037.852    548.240    541.274    541.274
100.270   1044.000   1077.706    -33.706    540.993   1070.506    548.183    540.993    540.993
100.370   1164.000   1123.049     40.951    540.714   1115.473    548.276    540.714    540.714
100.470   1157.783   1180.130    -22.347    540.436   1172.055    548.498    540.436    540.436
100.570   1266.613   1247.908     18.705    540.160   1239.236    548.820    540.160    540.160
100.670   1388.099   1324.999     63.100    539.885   1315.664    549.213    539.885    539.885
100.770   1394.726   1409.646    -14.920    539.611   1399.617    549.642    539.611    539.611
100.870   1537.000   1499.707     37.293    539.339   1488.985    550.073    539.339    539.339
100.970   1576.696   1592.654    -15.958    539.068   1581.280    550.469    539.068    539.068
101.070   1690.000   1685.648      4.352    538.798   1673.697    550.794    538.798    538.798
101.170   1708.761   1775.675    -66.914    538.530   1763.258    551.014    538.530    538.530
101.270   1931.120   1859.867     71.253    538.264   1847.116    551.103    538.264    538.264
101.370   2025.000   1935.628     89.372    537.999   1922.692    551.046    537.999    537.999
101.470   2047.411   2000.916     46.495    537.736   1987.943    550.843    537.736    537.736
101.570   2064.823   2054.250     10.573    537.474   2041.373    550.508    537.474    537.474
101.670   2051.000   2094.566    -43.566    537.214   2081.892    550.064    537.214    537.214
101.770   2122.000   2121.000      1.000    536.956   2108.606    549.544    536.956    536.956
101.870   2174.253   2132.750     41.503    536.699   2120.675    548.983    536.699    536.699
101.970   2192.000   2129.124     62.876    536.444   2117.376    548.414    536.444    536.444
102.070   2128.912   2109.799     19.113    536.190   2098.355    547.866    536.190    536.190
102.170   2039.000   2075.188    -36.188    535.939   2064.000    547.363    535.939    535.939
102.270   2011.256   2026.730    -15.475    535.689   2015.731    546.926    535.689    535.689
102.370   1938.467   1966.923    -28.456    535.441   1956.033    546.565    535.441    535.441
102.470   1896.161   1899.061     -2.901    535.194   1888.197    546.287    535.194    535.194
102.570   1821.740   1826.786     -5.046    534.950   1815.866    546.089    534.950    534.950
102.670   1702.275   1753.607    -51.332    534.708   1742.561    545.962    534.708    534.708
102.770   1688.000   1682.547      5.453    534.467   1671.320    545.889    534.467    534.467
102.870   1654.240   1615.937     38.303    534.228   1604.496    545.850    534.228    534.228
102.970   1516.000   1555.339    -39.339    533.992   1543.677    545.821    533.992    533.992
103.070   1496.494   1501.556     -5.063    533.757   1489.688    545.781    533.757    533.757
103.170   1439.000   1454.669    -15.669    533.524   1442.630    545.708    533.524    533.524
103.270   1430.000   1414.109     15.891    533.293   1401.954    545.584    533.293    533.293
103.370   1437.195   1378.747     58.449    533.065   1366.548    545.393    533.065    533.065
103.470   1358.000   1347.027     10.973    532.838   1334.868    545.121    532.838    532.838
103.570   1342.000   1317.149     24.851    532.614   1305.128    544.755    532.614    532.614
103.670   1317.876   1287.307     30.569    532.392   1275.531    544.286    532.392    532.392
103.770   1179.000   1255.954    -76.954    532.172   1244.534    543.709    532.172    532.172
103.870   1190.000   1222.022    -32.022    531.954   1211.065    543.026    531.954    531.954
103.970   1128.743   1185.039    -56.295    531.739   1174.642    542.248    531.739    531.739
104.070   1123.640   1145.104    -21.465    531.525   1135.347    541.392    531.525    531.525
104.170   1090.289   1102.761    -12.472    531.314   1093.700    540.480    531.314    531.314
104.270   1024.000   1058.816    -34.816    531.106   1050.487    539.535    531.106    531.106
104.370   1021.000   1014.191      6.809    530.899   1006.605    538.578    530.899    530.899
104.470    953.000    969.798    -16.798    530.695    962.949    537.631    530.695    530.695
104.570    917.674    926.489     -8.815    530.494    920.352    536.710    530.494    530.494
104.670    898.025    885.008     13.017    530.295    879.546    535.828    530.295    530.295
104.770    828.000    845.966    -17.966    530.098    841.133    534.996    530.098    530.098
104.870    760.828    809.837    -49.009    529.904    805.578    534.220    529.904    529.904
104.970    813.000    776.953     36.047    529.713    773.210    533.505    529.713    529.713
105.070    698.860    747.505    -48.646    529.524    744.219    532.853    529.524    529.524
105.170    764.000    721.555     42.445    529.338    718.667    532.262    529.338    529.338
105.270    718.000    699.048     18.952    529.154    696.503    531.730    529.154    529.154
105.370    715.000    679.836     35.164    528.973    677.580    531.254    528.973    528.973
105.470    622.476    663.681    -41.205    528.795    661.674    530.823    528.795    528.795
105.570    696.000    650.355     45.645    528.619    648.549    530.442    528.619    528.619
105.670    632.843    639.580     -6.737    528.446    637.932    530.106    528.446    528.446
105.770    691.000    631.058     59.942    528.276    629.535    529.808    528.276    528.276
105.870    663.000    624.520     38.480    528.109    623.093    529.543    528.109    528.109
105.970    608.000    619.727    -11.727    527.944    618.370    529.305    527.944    527.944
106.070    668.000    616.475     51.525    527.783    615.166    529.093    527.783    527.783
106.170    648.000    614.599     33.401    527.624    613.319    528.903    527.624    527.624
106.270    617.955    613.977      3.978    527.468    612.709    528.734    527.468    527.468
106.370    638.000    614.523     23.477    527.316    613.250    528.583    527.316    527.316
106.470    620.000    616.185      3.815    527.166    614.893    528.450    527.166    527.166
106.570    609.000    618.937     -9.937    527.019    617.611    528.335    527.019    527.019
106.670    629.000    622.773      6.227    526.876    621.400    528.236    526.876    526.876
106.770    643.000    627.701     15.299    526.735    626.267    528.154    526.735    526.735
106.870    661.000    633.733     27.267    526.598    632.223    528.089    526.598    526.598
106.970    667.174    640.877     26.297    526.463    639.277    528.041    526.463    526.463
107.070    675.000    649.129     25.871    526.332    647.427    528.010    526.332    526.332
107.170    668.000    658.466      9.534    526.205    656.647    527.995    526.205    526.205
107.270    709.489    668.832     40.657    526.080    666.884    527.996    526.080    526.080
107.370    680.000    680.134     -0.134    525.959    678.047    528.011    525.959    525.959
107.470    711.966    692.234     19.732    525.841    689.998    528.039    525.841    525.841
107.570    715.853    704.945     10.908    525.726    702.553    528.076    525.726    525.726
107.670    698.000    718.031    -20.031    525.615    715.481    528.120    525.615    525.615
107.770    705.000    731.208    -26.208    525.508    728.501    528.167    525.508    525.508
107.870    740.473    744.148     -3.675    525.403    741.290    528.212    525.403    525.403
107.970    714.440    756.490    -42.050    525.303    753.492    528.251    525.303    525.303
108.070    765.562    767.855     -2.293    525.205    764.734    528.277    525.205    525.205
108.170    716.000    777.872    -61.872    525.112    774.650    528.285    525.112    525.112
108.270    792.226    786.217      6.009    525.022    782.920    528.271    525.022    525.022
108.370    743.124    792.656    -49.531    524.935    789.315    528.230    524.935    524.935
108.470    804.920    797.084      7.836    524.853    793.732    528.162    524.853    524.853
108.570    723.000    799.554    -76.554    524.773    796.223    528.065    524.773    524.773
108.670    805.000    800.274      4.726    524.698    796.995    527.943    524.698    524.698
108.770    783.000    799.581    -16.581    524.627    796.379    527.798    524.627    524.627
108.870    770.000    797.891    -27.891    524.559    794.787    527.636    524.559    524.559
108.970    825.331    795.647     29.684    524.495    792.657    527.463    524.495    524.495
109.070    819.000    793.274     25.726    524.435    790.407    527.284    524.435    524.435
109.170    773.561    791.140    -17.579    524.379    788.401    527.104    524.379    524.379
109.270    838.717    789.535     49.183    524.327    786.923    526.929    524.327    524.327
109.370    772.000    788.652    -16.652    524.279    786.164    526.761    524.279    524.279
109.470    766.000    788.586    -22.586    524.235    786.214    526.605    524.235    524.235
109.570    818.447    789.323     29.123    524.195    787.058    526.461    524.195    524.195
109.670    746.935    790.746    -43.810    524.159    788.578    526.331    524.159    524.159
109.770    739.000    792.634    -53.634    524.127    790.553    526.216    524.127    524.127
109.870    802.208    794.678      7.531    524.099    792.675    526.114    524.099    524.099
109.970    749.999    796.496    -46.497    524.076    794.563    526.024    524.076    524.076
110.070    762.000    797.660    -35.660    524.057    795.791    525.944    524.057    524.057
110.170    743.000    797.741    -54.741    524.042    795.932    525.872    524.042    524.042
110.270    801.754    796.354      5.400    524.031    794.602    525.807    524.031    524.031
110.370    719.000    793.213    -74.213    524.025    791.519    525.745    524.025    524.025
110.470    757.000    788.170    -31.170    524.023    786.535    525.687    524.023    524.023
110.570    814.815    781.233     33.582    524.026    779.657    525.630    524.026    524.026
110.670    774.000    772.553      1.447    524.033    771.039    525.576    524.033    524.033
110.770    723.000    762.394    -39.394    524.044    760.944    525.524    524.044    524.044
110.870    717.000    751.085    -34.085    524.060    749.701    525.473    524.060    524.060
110.970    729.000    738.975     -9.975    524.081    737.669    525.414    524.081    524.081
111.070    739.236    726.453     12.783    524.106    725.211    525.374    524.106    524.106
111.170    711.000    713.840     -2.840    524.136    712.658    525.342    524.136    524.136
111.270    664.043    701.432    -37.389    524.171    700.308    525.317    524.171    524.171
111.370    710.524    689.487     21.037    524.210    688.416    525.301    524.210    524.210
111.470    691.584    678.218     13.365    524.255    677.195    525.295    524.255    524.255
111.570    636.043    667.794    -31.751    524.304    666.814    525.298    524.304    524.304
111.670    631.000    658.338    -27.338    524.357    657.396    525.311    524.357    524.357
111.770    685.000    649.933     35.067    524.416    649.024    525.335    524.416    524.416
111.870    666.000    642.622     23.378    524.480    641.739    525.370    524.480    524.480
111.970    640.000    636.411      3.589    524.548    635.549    525.415    524.548    524.548
112.070    626.000    631.276     -5.276    524.622    630.430    525.471    524.622    524.622
112.170    615.544    627.163    -11.619    524.701    626.328    525.536    524.701    524.701
112.270    606.000    624.025    -18.025    524.784    623.197    525.612    524.784    524.784
112.370    654.000    621.774     32.226    524.873    620.949    525.697    524.873    524.873
112.470    637.481    620.325     17.156    524.967    619.498    525.791    524.967    524.967
112.570    658.736    619.588     39.148    525.066    618.757    525.893    525.066    525.066
112.670    633.586    619.475     14.110    525.171    618.639    526.002    525.171    525.171
112.770    605.984    619.906    -13.922    525.281    619.061    526.119    525.281    525.281
112.870    628.059    620.805      7.253    525.396    619.952    526.242    525.396    525.396
112.970    651.771    622.109     29.662    525.516    621.245    526.372    525.516    525.516
113.070    660.578    623.763     36.816    525.642    622.889    526.507    525.642    525.642
113.170    609.000    625.728    -16.728    525.774    624.845    526.648    525.774    525.774
113.270    597.566    627.980    -30.414    525.910    627.086    526.794    525.910    525.910
113.370    603.000    630.507    -27.507    526.053    629.603    526.947    526.053    526.053
113.470    634.694    633.315      1.379    526.201    632.400    527.105    526.201    526.201
113.570    644.000    636.429      7.571    526.354    635.502    527.271    526.354    526.354
113.670    602.000    639.887    -37.887    526.514    638.947    527.443    526.514    526.514
113.770    635.000    643.747     -8.747    526.678    642.791    527.623    526.678    526.678
113.870    647.000    648.087     -1.087    526.849    647.111    527.813    526.849    526.849
113.970    699.815    653.011     46.804    527.026    652.011    528.013    527.026    527.026
114.070    664.000    658.655      5.345    527.208    657.626    528.224    527.208    527.208
114.170    640.000    665.192    -25.192    527.396    664.126    528.448    527.396    527.396
114.270    677.000    672.845      4.155    527.590    671.733    528.686    527.590    527.590
114.370    660.000    681.894    -21.894    527.790    680.726    528.941    527.790    527.790
114.470    664.980    692.695    -27.715    527.996    691.458    529.213    527.996    527.996
114.570    752.000    705.691     46.309    528.208    704.369    529.506    528.208    528.208
114.670    715.000    721.429     -6.429    528.426    720.007    529.821    528.426    528.426
114.770    758.087    740.581     17.506    528.651    739.037    530.162    528.651    528.651
114.870    790.000    763.958     26.042    528.881    762.270    530.530    528.881    528.881
114.970    739.740    792.529    -52.789    529.118    790.670    530.928    529.118    529.118
115.070    797.000    827.433    -30.433    529.361    825.375    531.360    529.361    529.361
115.170    897.000    869.995     27.005    529.610    867.705    531.829    529.610    529.610
115.270    876.823    921.722    -44.898    529.866    919.164    532.338    529.866    529.866
115.370    922.000    984.304    -62.304    530.127    981.440    532.889    530.127    530.127
115.470   1040.000   1059.599    -19.599    530.396   1056.386    533.486    530.396    530.396
115.570   1113.000   1149.599    -36.599    530.671   1145.992    534.131    530.671    530.671
115.670   1298.000   1256.395     41.605    530.952   1252.346    534.827    530.952    530.952
115.770   1426.000   1382.110     43.890    531.240   1377.570    535.575    531.240    531.240
115.870   1471.441   1528.828    -57.387    531.535   1523.746    536.377    531.535    531.535
115.970   1693.000   1698.500     -5.500    531.836   1692.825    537.234    531.836    531.836
116.070   1923.000   1892.836     30.164    532.144   1886.518    538.144    532.144    532.144
116.170   2140.000   2113.188     26.812    532.459   2106.179    539.107    532.459    532.459
116.270   2351.000   2360.425     -9.425    532.780   2352.680    540.119    532.780    532.780
116.370   2691.000   2634.806     56.194    533.109   2626.287    541.177    533.109    533.109
116.470   2991.000   2935.859     55.141    533.444   2926.533    542.274    533.444    533.444
116.570   3221.000   3262.274    -41.274    533.786   3252.117    543.404    533.786    533.786
116.670   3529.000   3611.811    -82.811    534.135   3600.808    544.558    534.135    534.135
116.770   3891.000   3981.236    -90.236    534.492   3969.386    545.726    534.492    534.492
116.870   4395.000   4366.292     28.708    534.855   4353.603    546.900    534.855    534.855
116.970   4654.971   4761.689   -106.718    535.225   4748.183    548.067    535.225    535.225
117.070   5287.285   5161.144    126.142    535.603   5146.852    549.220    535.603    535.603
117.170   5426.000   5557.442   -131.442    535.988   5542.408    550.347    535.988    535.988
117.270   5802.469   5942.550   -140.082    536.380   5926.829    551.439    536.380    536.380
117.370   6387.000   6307.771     79.229    536.779   6291.428    552.488    536.779    536.779
117.470   6831.000   6643.939    187.061    537.186   6627.049    553.482    537.186    537.186
117.570   6945.000   6941.843      3.157    537.600   6924.492    554.414    537.600    537.600
117.670   7362.000   7192.527    169.473    538.022   7174.808    555.274    538.022    538.022
117.770   7356.551   7387.811    -31.261    538.451   7369.826    556.053    538.451    538.451
117.870   7533.000   7520.949     12.051    538.887   7502.805    556.742    538.887    538.887
117.970   7702.000   7587.193    114.807    539.332   7569.001    557.336    539.332    539.332
118.070   7498.000   7584.273    -86.273    539.784   7566.141    557.831    539.784    539.784
118.170   7590.000   7512.626     77.374    540.243   7494.661    558.227    540.243    540.243
118.270   7400.000   7375.353     24.647    540.710   7357.653    558.527    540.710    540.710
118.370   7178.000   7177.877      0.123    541.186   7160.532    558.737    541.186    541.186
118.470   6836.232   6927.420    -91.188    541.668   6910.510    558.863    541.668    541.668
118.570   6599.000   6632.395    -33.395    542.159   6615.990    558.913    542.159    542.159
118.670   6411.623   6301.827    109.796    542.658   6285.987    558.898    542.658    542.658
118.770   5763.000   5944.860   -181.860    543.165   5929.636    558.826    543.165    543.165
118.870   5478.000   5570.381    -92.381    543.680   5555.813    558.707    543.680    543.680
118.970   5020.000   5186.736   -166.736    544.203   5172.856    558.553    544.203    544.203
119.070   4787.576   4801.536    -13.959    544.734   4788.365    558.373    544.734    544.734
119.170   4439.177   4421.511     17.666    545.273   4409.063    558.178    545.273    545.273
119.270   4022.532   4052.428    -29.897    545.820   4040.705    557.980    545.820    545.820
119.370   3750.000   3699.037     50.963    546.376   3688.033    557.790    546.376    546.376
119.470   3581.000   3365.063    215.937    546.940   3354.764    557.617    546.940    546.940
119.570   3152.028   3053.234     98.793    547.513   3043.616    557.472    547.513    547.513
119.670   2718.516   2765.339    -46.824    548.094   2756.372    557.364    548.094    548.094
119.770   2590.048   2502.321     87.727    548.683   2493.970    557.299    548.683    548.683
119.870   2316.000   2264.382     51.618    549.281   2256.605    557.285    549.281    549.281
119.970   2158.000   2051.102    106.898    549.887   2043.854    557.326    549.887    549.887
120.070   1866.377   1861.563      4.814    550.503   1854.796    557.427    550.503    550.503
120.170   1771.000   1694.466     76.534    551.126   1688.126    557.592    551.126    551.126
120.270   1612.000   1548.235     63.765    551.759   1542.271    557.823    551.759    551.759
120.370   1548.000   1421.124    126.876    552.401   1415.478    558.121    552.401    552.401
120.470   1396.000   1311.296     84.704    553.051   1305.911    558.490    553.051    553.051
120.570   1273.000   1216.896     56.104    553.710   1211.716    558.928    553.710    553.710
120.670   1160.000   1136.120     23.880    554.378   1131.084    559.438    554.378    554.378
120.770   1039.000   1067.253    -28.252    555.055   1062.302    560.020    555.055    555.055
120.870   1047.000   1008.706     38.294    555.741   1003.779    560.674    555.741    555.741
120.970    991.000    959.041     31.959    556.437    954.077    561.400    556.437    556.437
121.070    949.000    916.977     32.023    557.141    911.914    562.200    557.141    557.141
121.170    840.387    881.395    -41.007    557.855    876.168    563.075    557.855    557.855
121.270    876.000    851.328     24.672    558.578    845.874    564.024    558.578    558.578
121.370    833.814    825.956      7.858    559.310    820.208    565.050    559.310    559.310
121.470    857.000    804.588     52.412    560.052    798.478    566.154    560.052    560.052
121.570    703.000    786.647    -83.647    560.803    780.106    567.337    560.803    560.803
121.670    728.000    771.658    -43.658    561.564    764.614    568.602    561.564    561.564
121.770    790.000    759.225     30.775    562.334    751.605    569.949    562.334    562.334
121.870    717.000    749.027    -32.027    563.114    740.756    571.382    563.114    563.114
121.970    708.000    740.795    -32.795    563.903    731.797    572.900    563.903    563.903
122.070    717.000    734.310    -17.310    564.702    724.506    574.506    564.702    564.702
122.170    678.713    729.386    -50.673    565.511    718.699    576.200    565.511    565.511
122.270    692.000    725.868    -33.868    566.330    714.218    577.982    566.330    566.330
122.370    709.320    723.621    -14.301    567.158    710.930    579.854    567.158    567.158
122.470    747.000    722.528     24.472    567.997    708.717    581.814    567.997    567.997
122.570    733.350    722.481     10.868    568.845    707.474    583.860    568.845    568.845
122.670    705.145    723.383    -18.238    569.704    707.105    585.991    569.704    569.704
122.770    717.000    725.137     -8.137    570.572    707.519    588.203    570.572    570.572
122.870    766.000    727.652     38.348    571.451    708.628    590.489    571.451    571.451
122.970    729.000    730.833     -1.833    572.340    710.346    592.843    572.340    572.340
123.070    673.000    734.583    -61.583    573.239    712.587    595.254    573.239    573.239
123.170    771.302    738.802     32.500    574.149    715.262    597.709    574.149    574.149
123.270    763.000    743.383     19.617    575.069    718.281    600.193    575.069    575.069
123.370    656.000    748.213    -92.213    575.999    721.550    602.689    575.999    575.999
123.470    710.804    753.174    -42.371    576.940    724.971    605.173    576.940    576.940
123.570    744.000    758.142    -14.142    577.891    728.442    607.623    577.891    577.891
123.670    690.000    762.985    -72.985    578.853    731.860    610.014    578.853    578.853
123.770    748.000    767.571    -19.571    579.826    735.119    612.316    579.826    579.826
123.870    794.000    771.763     22.237    580.809    738.113    614.502    580.809    580.809
123.970    817.109    775.429     41.679    581.803    740.736    616.542    581.803    581.803
124.070    752.110    778.443    -26.333    582.808    742.891    618.409    582.808    582.808
124.170    808.000    780.690     27.310    583.824    744.489    620.076    583.824    583.824
124.270    795.307    782.074     13.233    584.851    745.455    621.524    584.851    584.851
124.370    784.000    782.526      1.474    585.889    745.736    622.735    585.889    585.889
124.470    833.000    782.005     50.995    586.938    745.297    623.703    586.938    586.938
124.570    836.000    780.503     55.497    587.998    744.134    624.427    587.998    587.998
124.670    810.000    778.046     31.954    589.069    742.262    624.913    589.069    589.069
124.770    788.290    774.688     13.602    590.151    739.724    625.176    590.151    590.151
124.870    832.000    770.511     61.489    591.245    736.580    625.237    591.245    591.245
124.970    808.000    765.613     42.387    592.350    732.903    625.120    592.350    592.350
