neutron_powder_diffraction_0019
R_wp: 3.539
Temperature (K): 490.732
Counts: 83198.00
Wavelength (Ã…): 2.52098
COMMENTS
Test file for demonstrating the .xyy file format in Reel1.0
END OF HEADER
   tth       Y_obs     Y_calc      Y_res    Background    Phase_1_Nuc    Phase_1_Mag    Phase_2_Nuc    Phase_2_Mag
  9.970    668.096    716.388    -48.292    714.623    715.738    715.273    714.623    714.623
 10.070    730.000    715.524     14.476    713.662    714.867    714.318    713.662    713.662
 10.170    685.000    714.676    -29.676    712.705    714.012    713.369    712.705    712.705
 10.270    726.000    713.848     12.152    711.752    713.176    712.423    711.752    711.752
 10.370    771.000    713.041     57.959    710.804    712.363    711.482    710.804    710.804
 10.470    745.388    712.261     33.127    709.861    711.575    710.546    709.861    709.861
 10.570    702.000    711.511     -9.511    708.921    710.817    709.614    708.921    708.921
 10.670    738.000    710.798     27.202    707.986    710.097    708.686    707.986    707.986
 10.770    677.554    710.130    -32.576    707.055    709.421    707.763    707.055    707.055
 10.870    714.000    709.520      4.480    706.129    708.802    706.845    706.129    706.129
 10.970    685.000    708.980    -23.980    705.207    708.254    705.931    705.207    705.207
 11.070    710.962    708.529      2.433    704.289    707.794    705.021    704.289    704.289
 11.170    702.258    708.196     -5.938    703.375    707.453    704.116    703.375    703.375
 11.270    758.000    708.025     49.975    702.466    707.273    703.215    702.466    702.466
 11.370    729.000    708.084     20.916    701.561    707.324    702.318    701.561    701.561
 11.470    676.721    708.503    -31.782    700.660    707.733    701.426    700.660    700.660
 11.570    738.000    709.554     28.446    699.764    708.774    700.539    699.764    699.764
 11.670    738.000    711.816     26.184    698.872    711.026    699.656    698.872    698.872
 11.770    723.690    716.403      7.286    697.984    715.600    698.777    697.984    697.984
 11.870    733.859    725.044      8.815    697.101    724.227    697.903    697.101    697.101
 11.970    835.000    739.694     95.306    696.221    738.858    697.033    696.221    696.221
 12.070    866.000    761.204    104.796    695.346    760.346    696.168    695.346    695.346
 12.170    816.000    786.955     29.045    694.476    786.073    695.307    694.476    694.476
 12.270    826.000    808.298     17.702    693.609    807.392    694.450    693.609    693.609
 12.370    854.451    812.655     41.796    692.747    811.737    693.599    692.747    692.747
 12.470    763.000    796.080    -33.080    691.889    795.160    692.751    691.889    691.889
 12.570    776.758    768.929      7.829    691.036    768.013    691.908    691.036    691.036
 12.670    776.000    743.018     32.982    690.186    742.105    691.069    690.186    690.186
 12.770    735.000    723.518     11.482    689.341    722.605    690.235    689.341    689.341
 12.870    725.332    710.723     14.610    688.500    709.806    689.405    688.500    688.500
 12.970    698.000    702.912     -4.912    687.663    701.988    688.580    687.663    687.663
 13.070    715.000    698.126     16.874    686.831    697.192    687.759    686.831    686.831
 13.170    630.000    694.956    -64.956    686.003    694.012    686.942    686.003    686.003
 13.270    645.560    692.616    -47.056    685.179    691.661    686.130    685.179    685.179
 13.370    734.824    690.739     44.085    684.359    689.772    685.323    684.359    684.359
 13.470    702.000    689.138     12.862    683.543    688.159    684.520    683.543    683.543
 13.570    696.000    687.710      8.290    682.732    686.718    683.721    682.732    682.732
 13.670    667.688    686.415    -18.727    681.925    685.410    682.927    681.925    681.925
 13.770    719.000    685.221     33.779    681.122    684.204    682.137    681.122    681.122
 13.870    645.000    684.107    -39.107    680.323    683.076    681.352    680.323    680.323
 13.970    666.000    683.053    -17.053    679.528    682.009    680.571    679.528    679.528
 14.070    672.000    682.050    -10.050    678.738    680.991    679.795    678.738    678.738
 14.170    701.003    681.086     19.917    677.951    680.013    679.023    677.951    677.951
 14.270    713.604    680.155     33.449    677.169    679.068    678.255    677.169    677.169
 14.370    710.814    679.253     31.561    676.391    678.151    677.492    676.391    676.391
 14.470    635.000    678.376    -43.376    675.617    677.259    676.733    675.617    675.617
 14.570    654.000    677.521    -23.521    674.848    676.388    675.979    674.848    674.848
 14.670    663.000    676.680    -13.680    674.082    675.532    675.230    674.082    674.082
 14.770    646.000    675.855    -29.855    673.321    674.691    674.484    673.321    673.321
 14.870    637.000    675.044    -38.044    672.563    673.863    673.744    672.563    672.563
 14.970    670.000    674.246     -4.246    671.810    673.048    673.007    671.810    671.810
 15.070    674.000    673.459      0.541    671.061    672.244    672.276    671.061    671.061
 15.170    665.957    672.683     -6.726    670.316    671.450    671.548    670.316    670.316
 15.270    672.760    671.916      0.844    669.575    670.665    670.826    669.575    669.575
 15.370    656.263    671.159    -14.896    668.839    669.890    670.107    668.839    668.839
 15.470    628.965    670.410    -41.445    668.106    669.122    669.394    668.106    668.106
 15.570    659.000    669.669    -10.669    667.377    668.362    668.684    667.377    667.377
 15.670    679.486    668.940     10.547    666.653    667.613    667.980    666.653    666.653
 15.770    664.012    668.218     -4.206    665.933    666.871    667.280    665.933    665.933
 15.870    650.000    667.500    -17.500    665.216    666.132    666.584    665.216    665.216
 15.970    661.000    666.788     -5.788    664.504    665.399    665.893    664.504    664.504
 16.070    619.016    666.083    -47.067    663.796    664.672    665.206    663.796    663.796
 16.170    672.000    665.384      6.616    663.092    663.951    664.524    663.092    663.092
 16.270    666.000    664.693      1.307    662.392    663.238    663.847    662.392    662.392
 16.370    673.000    664.020      8.980    661.696    662.541    663.174    661.696    661.696
 16.470    638.000    663.340    -25.340    661.004    661.838    662.506    661.004    661.004
 16.570    630.000    662.667    -32.667    660.316    661.139    661.843    660.316    660.316
 16.670    692.000    662.009     29.991    659.632    660.457    661.184    659.632    659.632
 16.770    703.679    661.367     42.312    658.952    659.789    660.529    658.952    658.952
 16.870    651.167    660.724     -9.557    658.276    659.119    659.880    658.276    658.276
 16.970    662.000    660.139      1.861    657.604    658.506    659.237    657.604    657.604
 17.070    630.000    659.500    -29.500    656.936    657.839    658.597    656.936    656.936
 17.170    707.658    658.860     48.797    656.272    657.170    657.962    656.272    656.272
 17.270    668.000    658.225      9.775    655.612    656.506    657.331    655.612    655.612
 17.370    682.580    657.596     24.984    654.955    655.846    656.705    654.955    654.955
 17.470    632.000    656.972    -24.972    654.303    655.191    656.084    654.303    654.303
 17.570    653.000    656.353     -3.353    653.655    654.541    655.467    653.655    653.655
 17.670    678.147    655.740     22.407    653.011    653.896    654.855    653.011    653.011
 17.770    669.777    655.132     14.645    652.371    653.255    654.248    652.371    652.371
 17.870    642.953    654.529    -11.576    651.734    652.618    653.646    651.734    651.734
 17.970    642.000    653.932    -11.932    651.102    651.986    653.048    651.102    651.102
 18.070    648.373    653.340     -4.967    650.474    651.358    652.456    650.474    650.474
 18.170    659.000    652.756      6.244    649.849    650.737    651.868    649.849    649.849
 18.270    610.000    652.186    -42.186    649.228    650.129    651.286    649.228    649.228
 18.370    641.931    651.612     -9.681    648.612    649.515    650.708    648.612    648.612
 18.470    689.041    651.042     37.999    647.999    648.905    650.136    647.999    647.999
 18.570    609.440    650.479    -41.038    647.390    648.300    649.568    647.390    647.390
 18.670    628.000    649.922    -21.922    646.784    647.700    649.006    646.784    646.784
 18.770    671.000    649.369     21.631    646.183    647.103    648.449    646.183    646.183
 18.870    639.000    648.823     -9.823    645.586    646.512    647.897    645.586    645.586
 18.970    677.268    648.294     28.974    644.992    645.936    647.350    644.992    644.992
 19.070    612.000    647.773    -35.773    644.403    645.366    646.809    644.403    644.403
 19.170    648.579    647.245      1.334    643.817    644.789    646.273    643.817    643.817
 19.270    663.000    646.725     16.275    643.235    644.218    645.742    643.235    643.235
 19.370    617.000    646.207    -29.207    642.656    643.647    645.216    642.656    642.656
 19.470    665.000    645.695     19.305    642.082    643.080    644.697    642.082    642.082
 19.570    610.000    645.194    -35.194    641.511    642.521    644.184    641.511    641.511
 19.670    632.000    644.742    -12.742    640.944    641.996    643.690    640.944    640.944
 19.770    600.000    644.282    -44.282    640.381    641.464    643.199    640.381    640.381
 19.870    656.000    643.832     12.168    639.822    640.936    642.717    639.822    639.822
 19.970    658.738    643.435     15.304    639.267    640.464    642.237    639.267    639.267
 20.070    632.000    643.004    -11.004    638.715    639.962    641.757    638.715    638.715
 20.170    655.419    642.545     12.874    638.167    639.433    641.279    638.167    638.167
 20.270    602.000    642.123    -40.123    637.623    638.938    640.808    637.623    637.623
 20.370    638.000    641.688     -3.688    637.082    638.428    640.342    637.082    637.082
 20.470    597.000    641.249    -44.249    636.545    637.912    639.883    636.545    636.545
 20.570    619.327    640.847    -21.520    636.012    637.425    639.435    636.012    636.012
 20.670    686.328    640.428     45.900    635.483    636.921    638.990    635.483    635.483
 20.770    618.000    640.012    -22.012    634.957    636.418    638.551    634.957    634.957
 20.870    640.000    639.598      0.402    634.435    635.916    638.118    634.435    634.435
 20.970    599.208    639.193    -39.985    633.917    635.418    637.692    633.917    633.917
 21.070    669.865    638.796     31.070    633.403    634.924    637.274    633.403    633.403
 21.170    624.000    638.407    -14.407    632.892    634.436    636.863    632.892    632.892
 21.270    630.000    638.028     -8.028    632.384    633.953    636.459    632.384    632.384
 21.370    632.000    637.659     -5.659    631.881    633.476    636.064    631.881    631.881
 21.470    676.000    637.310     38.690    631.381    633.013    635.677    631.381    631.381
 21.570    640.000    636.962      3.038    630.884    632.549    635.298    630.884    630.884
 21.670    647.000    636.623     10.377    630.392    632.088    634.928    630.392    630.392
 21.770    667.000    636.297     30.703    629.903    631.633    634.566    629.903    629.903
 21.870    612.577    635.981    -23.404    629.417    631.185    634.214    629.417    629.417
 21.970    667.847    635.679     32.168    628.935    630.744    633.871    628.935    628.935
 22.070    598.000    635.388    -37.388    628.457    630.308    633.538    628.457    628.457
 22.170    677.678    635.111     42.567    627.982    629.878    633.215    627.982    627.982
 22.270    624.064    634.848    -10.784    627.511    629.457    632.902    627.511    627.511
 22.370    612.000    634.600    -22.600    627.044    629.043    632.601    627.044    627.044
 22.470    587.000    634.369    -47.369    626.580    628.638    632.311    626.580    626.580
 22.570    624.000    634.156    -10.156    626.119    628.242    632.034    626.119    626.119
 22.670    632.000    633.963     -1.963    625.662    627.856    631.769    625.662    625.662
 22.770    617.000    633.790    -16.790    625.209    627.482    631.517    625.209    625.209
 22.870    622.000    633.642    -11.642    624.759    627.122    631.279    624.759    624.759
 22.970    658.956    633.526     25.431    624.312    626.780    631.058    624.312    624.312
 23.070    664.101    633.433     30.669    623.869    626.451    630.851    623.869    623.869
 23.170    657.000    633.369     23.631    623.430    626.140    630.659    623.430    623.430
 23.270    632.425    633.342     -0.917    622.994    625.852    630.485    622.994    622.994
 23.370    659.825    633.356     26.468    622.562    625.590    630.328    622.562    622.562
 23.470    653.000    633.419     19.581    622.132    625.361    630.191    622.132    622.132
 23.570    624.890    633.538     -8.648    621.707    625.172    630.074    621.707    621.707
 23.670    656.000    633.726     22.274    621.285    625.032    629.979    621.285    621.285
 23.770    638.000    633.997      4.003    620.866    624.957    629.908    620.866    620.866
 23.870    616.000    634.374    -18.374    620.451    624.965    629.862    620.451    620.451
 23.970    601.065    634.888    -33.824    620.039    625.086    629.843    620.039    620.039
 24.070    612.001    635.588    -23.586    619.630    625.368    629.852    619.630    619.630
 24.170    655.000    636.565     18.435    619.225    625.900    629.893    619.225    619.225
 24.270    647.000    638.014      8.986    618.824    626.874    629.967    618.824    618.824
 24.370    632.602    640.333     -7.731    618.425    628.685    630.078    618.425    618.425
 24.470    644.388    644.267      0.121    618.030    632.077    630.229    618.030    618.030
 24.570    625.455    650.954    -25.499    617.639    638.182    630.422    617.639    617.639
 24.670    615.620    661.637    -46.017    617.250    648.244    630.664    617.250    617.250
 24.770    686.505    676.842      9.664    616.865    662.781    630.956    616.865    616.865
 24.870    649.331    694.913    -45.582    616.484    680.133    631.306    616.484    616.484
 24.970    713.126    710.369      2.757    616.105    694.809    631.719    616.105    616.105
 25.070    749.000    715.111     33.889    615.730    698.696    632.202    615.730    615.730
 25.170    713.101    706.025      7.076    615.359    688.672    632.761    615.359    615.359
 25.270    657.109    689.463    -32.354    614.990    671.084    633.407    614.990    614.990
 25.370    626.330    673.300    -46.969    614.625    653.801    634.148    614.625    614.625
 25.470    652.379    661.254     -8.874    614.263    640.535    634.998    614.263    614.263
 25.570    662.232    653.787      8.445    613.905    631.732    635.969    613.905    613.905
 25.670    631.355    649.912    -18.557    613.549    626.388    637.079    613.549    613.549
 25.770    693.000    648.370     44.630    613.197    623.226    638.345    613.197    613.197
 25.870    674.000    648.208     25.792    612.848    621.268    639.790    612.848    612.848
 25.970    668.000    648.879     19.121    612.502    619.940    641.442    612.502    612.502
 26.070    672.000    650.130     21.870    612.160    618.958    643.332    612.160    612.160
 26.170    621.000    651.873    -30.873    611.820    618.192    645.501    611.820    611.820
 26.270    611.982    654.090    -42.108    611.484    617.578    647.996    611.484    611.484
 26.370    655.000    656.804     -1.804    611.151    617.083    650.870    611.151    611.151
 26.470    648.000    660.060    -12.060    610.821    616.682    654.198    610.821    610.821
 26.570    707.479    663.940     43.539    610.494    616.363    658.069    610.494    610.494
 26.670    726.000    668.552     57.448    610.171    616.122    662.597    610.171    610.171
 26.770    664.000    674.042    -10.042    609.850    615.959    667.929    609.850    609.850
 26.870    637.000    680.599    -43.599    609.533    615.877    674.251    609.533    609.533
 26.970    674.644    688.482    -13.837    609.219    615.882    681.812    609.219    609.219
 27.070    675.000    698.033    -23.033    608.908    615.989    690.944    608.908    608.908
 27.170    724.412    709.724     14.688    608.599    616.218    702.098    608.599    608.599
 27.270    683.000    724.213    -41.213    608.294    616.597    715.901    608.294    608.294
 27.370    710.501    742.437    -31.935    607.993    617.169    733.247    607.993    607.993
 27.470    723.133    765.783    -42.650    607.694    618.001    755.460    607.694    607.694
 27.570    846.032    796.497     49.535    607.398    619.197    784.678    607.398    607.398
 27.670    776.000    839.092    -63.092    607.105    620.968    825.204    607.105    607.105
 27.770    929.000    906.169     22.831    606.815    623.900    889.048    606.815    606.815
 27.870   1047.000   1037.542      9.458    606.528    629.841   1014.166    606.528    606.528
 27.970   1334.945   1342.968     -8.023    606.245    643.877   1305.202    606.245    606.245
 28.070   2026.000   2044.905    -18.905    605.964    676.313   1974.264    605.964    605.964
 28.170   3192.000   3415.259   -223.259    605.686    739.746   3280.618    605.686    605.686
 28.270   5303.000   5491.330   -188.330    605.411    835.939   5259.858    605.411    605.411
 28.370   7598.000   7690.299    -92.299    605.139    938.000   7356.256    605.139    605.139
 28.470   8544.000   8786.090   -242.090    604.870    989.391   8400.548    604.870    604.870
 28.570   8076.000   7975.245    100.755    604.604    953.414   7625.949    604.604    604.604
 28.670   6176.000   6053.712    122.288    604.341    867.933   5790.098    604.341    604.341
 28.770   4446.473   4358.828     87.646    604.081    796.508   4166.537    604.081    604.081
 28.870   3605.949   3621.080    -15.131    603.823    774.531   3450.455    603.823    603.823
 28.970   3887.000   3824.560     62.440    603.569    800.915   3627.198    603.569    603.569
 29.070   4435.000   4459.260    -24.260    603.317    847.545   4214.998    603.317    603.317
 29.170   4913.000   4803.622    109.378    603.069    872.055   4534.711    603.069    603.069
 29.270   4465.000   4394.270     70.730    602.823    846.696   4150.640    602.823    602.823
 29.370   3485.967   3450.889     35.078    602.580    786.430   3267.360    602.580    602.580
 29.470   2409.000   2457.634    -48.634    602.340    722.741   2337.516    602.340    602.340
 29.570   1625.000   1705.087    -80.087    602.102    674.466   1632.918    602.102    602.102
 29.670   1252.000   1245.489      6.511    601.868    645.024   1202.444    601.868    601.868
 29.770   1052.000   1003.135     48.865    601.636    629.562    975.265    601.636    601.636
 29.870    945.000    882.316     62.684    601.407    621.929    861.821    601.407    601.407
 29.970    863.000    818.150     44.850    601.181    617.959    801.384    601.181    601.181
 30.070    817.000    778.793     38.207    600.958    615.620    764.138    600.958    600.958
 30.170    813.000    751.393     61.607    600.737    614.106    738.028    600.737    600.737
 30.270    756.000    731.031     24.969    600.519    613.142    718.409    600.519    600.519
 30.370    692.000    715.650    -23.650    600.304    612.677    703.276    600.304    600.304
 30.470    741.127    704.434     36.693    600.091    612.846    691.677    600.091    600.091
 30.570    709.646    697.536     12.110    599.882    614.073    683.339    599.882    599.882
 30.670    708.000    696.194     11.806    599.674    617.202    678.655    599.674    599.674
 30.770    669.290    702.553    -33.263    599.470    623.454    678.549    599.470    599.470
 30.870    726.000    718.512      7.488    599.268    633.882    683.863    599.268    599.268
 30.970    797.000    743.350     53.650    599.069    648.235    694.133    599.069    599.069
 31.070    744.000    770.672    -26.672    598.873    663.477    706.000    598.873    598.873
 31.170    830.000    787.190     42.810    598.679    673.205    712.589    598.679    598.679
 31.270    745.252    780.661    -35.409    598.488    671.508    707.573    598.488    598.488
 31.370    788.000    753.115     34.885    598.299    659.410    691.953    598.299    598.299
 31.470    717.000    717.947     -0.947    598.113    643.453    672.573    598.113    598.113
 31.570    649.684    686.765    -37.081    597.930    629.309    655.365    597.930    597.930
 31.670    712.000    664.239     47.761    597.749    619.269    642.706    597.749    597.749
 31.770    659.000    650.003      8.997    597.571    613.173    634.394    597.571    597.571
 31.870    659.000    641.618     17.382    597.395    609.849    629.159    597.395    597.395
 31.970    660.035    636.639     23.396    597.222    608.119    625.738    597.222    597.222
 32.070    638.171    633.446      4.724    597.052    607.209    623.286    597.052    597.052
 32.170    665.000    631.202     33.798    596.884    606.719    621.364    596.884    596.884
 32.270    651.537    629.535     22.002    596.718    606.478    619.772    596.718    596.718
 32.370    713.000    628.290     84.710    596.555    606.421    618.421    596.555    596.555
 32.470    668.103    627.399     40.704    596.394    606.524    617.267    596.394    596.394
 32.570    645.000    626.836     18.164    596.236    606.783    616.287    596.236    596.236
 32.670    642.000    626.594     15.406    596.081    607.206    615.467    596.081    596.081
 32.770    583.711    626.688    -42.978    595.927    607.813    614.801    595.927    595.927
 32.870    622.000    627.152     -5.152    595.777    608.635    614.291    595.777    595.777
 32.970    654.000    628.042     25.958    595.628    609.720    613.948    595.628    595.628
 33.070    636.000    629.445      6.555    595.482    611.134    613.791    595.482    595.482
 33.170    638.000    631.496      6.504    595.339    612.979    613.854    595.339    595.339
 33.270    593.852    634.413    -40.561    595.198    615.414    614.194    595.198    595.198
 33.370    597.000    638.600    -41.600    595.059    618.733    614.923    595.059    595.059
 33.470    605.892    644.903    -39.012    594.923    623.544    616.277    594.923    594.923
 33.570    642.004    655.175    -13.171    594.788    631.180    618.778    594.788    594.788
 33.670    646.000    673.223    -27.223    594.657    644.372    623.498    594.657    594.657
 33.770    728.000    705.770     22.230    594.527    667.945    632.337    594.527    594.527
 33.870    793.000    762.221     30.779    594.400    708.647    647.949    594.400    594.400
 33.970    845.000    851.493     -6.493    594.276    772.877    672.855    594.276    594.276
 34.070    936.000    975.003    -39.003    594.153    861.654    707.454    594.153    594.153
 34.170   1102.000   1116.773    -14.773    594.033    963.522    747.231    594.033    594.033
 34.270   1253.000   1234.861     18.139    593.915   1048.397    780.334    593.915    593.915
 34.370   1313.054   1271.551     41.503    593.799   1074.875    790.451    593.799    593.799
 34.470   1226.991   1202.645     24.347    593.686   1025.587    770.738    593.686    593.686
 34.570   1084.000   1068.910     15.090    593.575    929.776    732.713    593.575    593.575
 34.670    947.000    928.298     18.702    593.466    829.014    692.756    593.466    593.466
 34.770    781.000    814.255    -33.255    593.359    747.302    660.318    593.359    593.359
 34.870    751.765    735.701     16.064    593.255    691.039    637.921    593.255    593.255
 34.970    757.000    687.609     69.391    593.152    656.619    624.143    593.152    593.152
 35.070    713.000    660.172     52.828    593.052    637.009    616.215    593.052    593.052
 35.170    709.000    644.604     64.396    592.954    625.906    611.652    592.954    592.954
 35.270    751.000    635.185    115.815    592.858    619.205    608.838    592.858    592.858
 35.370    651.000    628.886     22.114    592.764    614.733    606.916    592.764    592.764
 35.470    615.318    624.288     -8.970    592.673    611.474    605.486    592.673    592.673
 35.570    655.000    620.746     34.254    592.583    608.962    604.366    592.583    592.583
 35.670    621.272    617.934      3.338    592.496    606.965    603.464    592.496    592.496
 35.770    636.000    615.662     20.338    592.410    605.344    602.728    592.410    592.410
 35.870    641.000    613.807     27.193    592.327    604.011    602.122    592.327    592.327
 35.970    646.883    612.280     34.603    592.246    602.902    601.623    592.246    592.246
 36.070    634.000    611.018     22.982    592.167    601.970    601.215    592.167    592.167
 36.170    610.000    609.977      0.023    592.090    601.180    600.886    592.090    592.090
 36.270    618.000    609.122      8.878    592.014    600.507    600.629    592.014    592.014
 36.370    620.000    608.430     11.570    591.941    599.931    600.439    591.941    591.941
 36.470    576.000    607.884    -31.884    591.870    599.437    600.317    591.870    591.870
 36.570    583.192    607.477    -24.285    591.801    599.014    600.263    591.801    591.801
 36.670    596.629    607.203    -10.575    591.734    598.655    600.282    591.734    591.734
 36.770    620.000    607.066     12.934    591.669    598.353    600.382    591.669    591.669
 36.870    626.000    607.076     18.924    591.606    598.106    600.575    591.606    591.606
 36.970    619.000    607.251     11.749    591.544    597.915    600.880    591.544    591.544
 37.070    589.000    607.624    -18.624    591.485    597.788    601.321    591.485    591.485
 37.170    649.433    608.253     41.180    591.428    597.742    601.938    591.428    591.428
 37.270    628.000    609.245     18.755    591.372    597.821    602.796    591.372    591.372
 37.370    631.000    610.804     20.196    591.318    598.107    604.016    591.318    591.318
 37.470    585.000    613.318    -28.318    591.267    598.735    605.849    591.267    591.267
 37.570    597.598    617.482    -19.884    591.217    599.885    608.813    591.217    591.217
 37.670    622.048    624.450     -2.401    591.169    601.726    613.892    591.169    591.169
 37.770    640.133    635.868      4.266    591.122    604.305    622.684    591.122    591.122
 37.870    648.000    653.576     -5.576    591.078    607.386    637.266    591.078    591.078
 37.970    703.000    678.702     24.298    591.035    610.262    659.473    591.035    591.035
 38.070    691.000    710.338    -19.338    590.995    611.787    689.542    590.995    590.995
 38.170    710.000    744.513    -34.513    590.956    611.206    724.258    590.956    590.956
 38.270    785.284    773.041     12.243    590.918    608.963    754.993    590.918    590.918
 38.370    821.281    783.755     37.526    590.883    606.032    768.605    590.883    590.883
 38.470    769.000    769.539     -0.539    590.849    603.127    757.266    590.849    590.849
 38.570    771.747    737.437     34.309    590.817    600.659    727.604    590.817    590.817
 38.670    685.000    700.678    -15.678    590.787    598.797    692.676    590.787    590.787
 38.770    669.383    668.430      0.953    590.759    597.513    661.682    590.759    590.759
 38.870    664.000    644.298     19.702    590.732    596.676    638.359    590.732    590.732
 38.970    594.000    628.205    -34.205    590.707    596.143    622.772    590.707    590.707
 39.070    572.243    618.312    -46.069    590.683    595.801    613.196    590.683    590.683
 39.170    601.000    612.456    -11.456    590.661    595.575    607.544    590.661    590.661
 39.270    617.000    608.930      8.070    590.641    595.418    604.154    590.641    590.641
 39.370    615.903    606.660      9.243    590.623    595.305    601.979    590.623    590.623
 39.470    614.174    605.070      9.103    590.606    595.222    600.455    590.606    590.606
 39.570    644.432    603.879     40.553    590.591    595.163    599.307    590.591    590.591
 39.670    592.000    602.947    -10.947    590.577    595.122    598.403    590.577    590.577
 39.770    626.000    602.202     23.798    590.565    595.097    597.670    590.565    590.565
 39.870    595.000    601.598     -6.598    590.555    595.087    597.066    590.555    590.555
 39.970    606.889    601.105      5.784    590.546    595.090    596.561    590.546    590.546
 40.070    570.000    600.702    -30.702    590.538    595.105    596.135    590.538    590.538
 40.170    570.000    600.372    -30.372    590.532    595.133    595.773    590.532    590.532
 40.270    625.000    600.105     24.895    590.528    595.172    595.461    590.528    590.528
 40.370    621.340    599.891     21.449    590.525    595.224    595.193    590.525    590.525
 40.470    575.000    599.723    -24.723    590.524    595.289    594.959    590.524    590.524
 40.570    603.193    599.598      3.595    590.524    595.367    594.755    590.524    590.524
 40.670    563.000    599.510    -36.510    590.526    595.460    594.577    590.526    590.526
 40.770    569.000    599.460    -30.460    590.529    595.569    594.421    590.529    590.529
 40.870    581.000    599.445    -18.445    590.534    595.695    594.284    590.534    590.534
 40.970    584.000    599.463    -15.463    590.540    595.840    594.163    590.540    590.540
 41.070    573.000    599.516    -26.516    590.547    596.007    594.058    590.547    590.547
 41.170    635.000    599.613     35.387    590.556    596.204    593.966    590.556    590.556
 41.270    601.000    599.752      1.248    590.567    596.434    593.886    590.567    590.567
 41.370    631.000    599.940     31.060    590.578    596.702    593.818    590.578    590.578
 41.470    590.000    600.184    -10.184    590.591    597.016    593.760    590.591    590.591
 41.570    556.000    600.495    -44.495    590.606    597.389    593.713    590.606    590.606
 41.670    602.000    600.886      1.114    590.622    597.833    593.676    590.622    590.622
 41.770    634.719    601.381     33.338    590.639    598.371    593.650    590.639    590.639
 41.870    647.039    602.012     45.027    590.657    599.037    593.635    590.657    590.657
 41.970    582.000    602.842    -20.842    590.677    599.888    593.633    590.677    590.677
 42.070    604.270    603.988      0.282    590.698    601.040    593.648    590.698    590.698
 42.170    600.000    605.685     -5.685    590.720    602.718    593.690    590.720    590.720
 42.270    578.000    608.374    -30.374    590.744    605.347    593.775    590.744    590.744
 42.370    593.377    612.793    -19.416    590.769    609.636    593.932    590.769    590.769
 42.470    619.679    619.984     -0.304    590.795    616.588    594.201    590.795    590.795
 42.570    621.140    631.101     -9.961    590.822    627.312    594.626    590.822    590.822
 42.670    627.000    646.932    -19.932    590.851    642.567    595.238    590.851    590.851
 42.770    687.976    667.160     20.816    590.881    662.046    596.024    590.881    590.881
 42.870    678.000    689.445    -11.445    590.912    683.504    596.894    590.912    590.912
 42.970    658.000    708.566    -50.566    590.944    701.917    597.645    590.944    590.944
 43.070    689.000    717.230    -28.230    590.978    710.274    597.991    590.978    590.978
 43.170    661.244    711.153    -49.909    591.012    704.454    597.768    591.012    591.012
 43.270    676.000    693.552    -17.552    591.048    687.551    597.099    591.048    591.048
 43.370    661.000    671.576    -10.576    591.085    666.438    596.262    591.085    591.085
 43.470    645.000    650.908     -5.908    591.123    646.581    595.480    591.123    591.123
 43.570    626.000    634.360     -8.360    591.162    630.682    594.860    591.162    591.162
 43.670    596.000    622.556    -26.556    591.202    619.344    594.428    591.202    591.202
 43.770    637.000    614.856     22.144    591.243    611.951    594.157    591.243    591.243
 43.870    584.945    610.137    -25.192    591.286    607.423    594.006    591.286    591.286
 43.970    621.000    607.319     13.681    591.329    604.721    593.931    591.329    591.329
 44.070    643.000    605.606     37.394    591.374    603.082    593.902    591.374    591.374
 44.170    647.000    604.511     42.489    591.419    602.034    593.899    591.419    591.419
 44.270    661.000    603.767     57.233    591.466    601.322    593.912    591.466    591.466
 44.370    555.981    603.237    -47.256    591.514    600.815    593.937    591.514    591.514
 44.470    614.000    602.853     11.147    591.562    600.447    593.970    591.562    591.562
 44.570    621.000    602.576     18.424    591.612    600.180    594.009    591.612    591.612
 44.670    633.000    602.383     30.617    591.662    599.991    594.055    591.662    591.662
 44.770    622.000    602.257     19.743    591.714    599.866    594.106    591.714    591.714
 44.870    585.000    602.187    -17.187    591.766    599.792    594.162    591.766    591.766
 44.970    610.666    602.165      8.501    591.820    599.763    594.222    591.820    591.820
 45.070    597.000    602.183     -5.183    591.874    599.770    594.287    591.874    591.874
 45.170    628.000    602.237     25.763    591.930    599.810    594.357    591.930    591.930
 45.270    602.000    602.325     -0.325    591.986    599.880    594.431    591.986    591.986
 45.370    608.000    602.442      5.558    592.043    599.976    594.509    592.043    592.043
 45.470    575.000    602.588    -27.588    592.101    600.097    594.591    592.101    592.101
 45.570    620.768    602.760     18.008    592.160    600.241    594.679    592.160    592.160
 45.670    617.000    602.960     14.040    592.219    600.409    594.771    592.219    592.219
 45.770    641.000    603.187     37.813    592.280    600.599    594.867    592.280    592.280
 45.870    642.835    603.440     39.395    592.341    600.812    594.969    592.341    592.341
 45.970    631.387    603.722     27.665    592.404    601.048    595.077    592.404    592.404
 46.070    617.000    604.034     12.966    592.467    601.310    595.190    592.467    592.467
 46.170    564.286    604.378    -40.093    592.531    601.598    595.310    592.531    592.531
 46.270    620.000    604.757     15.243    592.595    601.915    595.437    592.595    592.595
 46.370    650.839    605.175     45.664    592.661    602.263    595.571    592.661    592.661
 46.470    597.000    605.635     -8.635    592.727    602.647    595.714    592.727    592.727
 46.570    615.000    606.144      8.856    592.794    603.071    595.865    592.794    592.794
 46.670    582.000    606.710    -24.710    592.861    603.542    596.028    592.861    592.861
 46.770    605.000    607.342     -2.342    592.930    604.068    596.202    592.930    592.930
 46.870    589.000    608.053    -19.053    592.999    604.661    596.390    592.999    592.999
 46.970    561.891    608.863    -46.971    593.068    605.335    596.594    593.068    593.068
 47.070    614.000    609.801      4.199    593.139    606.119    596.818    593.139    593.139
 47.170    613.000    610.922      2.078    593.210    607.059    597.070    593.210    593.210
 47.270    573.000    612.323    -39.323    593.282    608.241    597.360    593.282    593.282
 47.370    608.000    614.186     -6.186    593.354    609.826    597.710    593.354    593.354
 47.470    606.000    616.817    -10.817    593.427    612.083    598.155    593.427    593.427
 47.570    635.000    620.681     14.319    593.501    615.424    598.749    593.501    593.501
 47.670    592.000    626.386    -34.386    593.575    620.388    599.561    593.575    593.575
 47.770    641.000    634.564      6.436    593.650    627.533    600.664    593.650    593.650
 47.870    688.466    645.625     42.842    593.726    637.220    602.105    593.726    593.726
 47.970    656.000    659.405     -3.405    593.802    649.304    603.869    593.802    593.802
 48.070    627.224    674.755    -47.531    593.879    662.762    605.829    593.879    593.879
 48.170    721.896    689.149     32.747    593.956    675.351    607.703    593.956    593.956
 48.270    660.254    698.869    -38.615    594.034    683.770    609.077    594.034    594.034
 48.370    701.000    700.737      0.263    594.112    685.195    609.599    594.112    594.112
 48.470    738.000    694.614     43.386    594.191    679.498    609.258    594.191    594.191
 48.570    684.367    683.568      0.799    594.270    669.392    608.407    594.270    594.270
 48.670    691.000    671.443     19.557    594.350    658.278    607.484    594.350    594.350
 48.770    667.897    660.961      6.937    594.430    648.560    606.809    594.430    594.430
 48.870    634.000    653.454    -19.454    594.511    641.406    606.543    594.511    594.511
 48.970    557.000    649.252    -92.252    594.592    637.090    606.742    594.592    594.592
 49.070    617.000    648.105    -31.105    594.674    635.368    607.402    594.674    594.674
 49.170    688.410    649.565     38.844    594.756    635.809    608.504    594.756    594.756
 49.270    642.000    653.278    -11.278    594.839    638.050    610.060    594.839    594.839
 49.370    639.000    659.231    -20.231    594.922    641.987    612.158    594.922    594.922
 49.470    679.325    668.078     11.247    595.005    648.012    615.063    595.005    595.005
 49.570    687.000    681.855      5.145    595.089    657.493    619.441    595.089    595.089
 49.670    728.000    705.406     22.594    595.173    673.765    626.799    595.173    595.173
 49.770    794.734    748.629     46.104    595.258    703.763    640.098    595.258    595.258
 49.870    779.000    829.865    -50.865    595.343    759.879    665.282    595.343    595.343
 49.970    897.000    975.406    -78.406    595.428    860.352    710.400    595.428    595.428
 50.070   1215.000   1215.188     -0.188    595.514   1025.856    784.712    595.514    595.514
 50.170   1494.000   1569.331    -75.331    595.599   1270.279    894.458    595.599    595.599
 50.270   2075.482   2028.425     47.057    595.686   1587.142   1036.722    595.686    595.686
 50.370   2511.000   2535.516    -24.516    595.772   1937.168   1193.849    595.772    595.772
 50.470   2971.000   2980.907     -9.907    595.859   2244.699   1331.830    595.859    595.859
 50.570   3149.000   3226.692    -77.692    595.946   2414.609   1407.893    595.946    595.946
 50.670   3161.000   3178.753    -17.753    596.033   2381.973   1392.816    596.033    596.033
 50.770   2815.607   2858.476    -42.870    596.121   2161.563   1293.153    596.121    596.121
 50.870   2419.000   2383.600     35.400    596.209   1834.680   1145.307    596.209    596.209
 50.970   1866.643   1887.684    -21.040    596.297   1493.589    990.576    596.297    596.297
 51.070   1465.685   1464.560      1.125    596.385   1203.159    857.942    596.385    596.385
 51.170   1173.000   1154.996     18.004    596.474    991.603    759.982    596.474    596.474
 51.270    948.126    956.933     -8.807    596.562    857.471    696.105    596.562    596.562
 51.370    818.000    844.878    -26.878    596.651    782.946    658.640    596.651    596.651
 51.470    825.000    787.881     37.119    596.740    746.172    638.492    596.740    596.740
 51.570    798.129    760.100     38.030    596.830    728.537    628.427    596.830    596.830
 51.670    778.000    744.347     33.653    596.919    717.353    623.944    596.919    596.919
 51.770    703.296    731.957    -28.660    597.008    706.258    622.732    597.008    597.008
 51.870    785.000    720.638     64.362    597.098    694.008    623.746    597.098    597.098
 51.970    709.000    710.994     -1.994    597.188    681.789    626.403    597.188    597.188
 52.070    705.896    703.782      2.114    597.278    670.989    630.073    597.278    597.278
 52.170    704.495    698.878      5.617    597.368    662.430    633.813    597.368    597.368
 52.270    707.000    695.267     11.733    597.458    656.361    636.357    597.458    597.458
 52.370    649.671    691.606    -41.935    597.548    652.644    636.502    597.548    597.548
 52.470    708.624    687.172     21.452    597.638    650.952    633.851    597.638    597.638
 52.570    652.763    682.369    -29.606    597.728    650.961    629.130    597.728    597.728
 52.670    698.320    678.270     20.050    597.819    652.490    623.594    597.819    597.819
 52.770    708.000    676.027     31.973    597.909    655.613    618.320    597.909    597.909
 52.870    728.000    676.745     51.255    597.999    660.782    613.960    597.999    597.999
 52.970    665.000    681.686    -16.686    598.089    669.005    610.768    598.089    598.089
 53.070    727.000    692.602     34.398    598.180    682.063    608.717    598.180    598.180
 53.170    675.586    712.067    -36.481    598.270    702.690    607.644    598.270    598.270
 53.270    712.263    743.539    -31.276    598.360    734.522    607.373    598.360    598.360
 53.370    761.000    790.925    -29.925    598.451    781.594    607.776    598.451    598.451
 53.470    825.000    857.451    -32.451    598.541    847.218    608.766    598.541    598.541
 53.570    977.887    943.848     34.038    598.631    932.295    610.175    598.631    598.631
 53.670   1069.398   1046.683     22.714    598.721   1033.305    612.091    598.721    598.721
 53.770   1122.000   1155.488    -33.488    598.811   1140.093    614.200    598.811    598.811
 53.870   1217.000   1251.535    -34.535    598.901   1234.356    616.080    598.901    598.901
 53.970   1304.000   1310.252     -6.252    598.991   1292.037    617.214    598.991    598.991
 54.070   1229.000   1312.196    -83.196    599.081   1294.099    617.197    599.081    599.081
 54.170   1233.000   1256.791    -23.791    599.170   1239.975    616.012    599.170    599.170
 54.270   1155.000   1162.832     -7.832    599.260   1148.073    614.046    599.260    599.260
 54.370   1007.691   1055.015    -47.324    599.349   1042.583    611.808    599.349    599.349
 54.470    904.000    952.456    -48.456    599.438    942.225    609.691    599.438    599.438
 54.570    903.000    865.895     37.105    599.527    857.523    607.916    599.527    599.527
 54.670    731.000    799.219    -68.219    599.616    792.284    606.563    599.616    599.616
 54.770    740.000    751.676    -11.676    599.705    745.773    605.616    599.705    599.705
 54.870    686.000    719.963    -33.963    599.793    714.756    605.005    599.793    599.793
 54.970    740.000    699.970     40.030    599.881    695.209    604.646    599.881    599.881
 55.070    731.000    687.956     43.044    599.969    683.468    604.460    599.969    599.969
 55.170    664.884    681.080    -16.195    600.057    676.750    604.389    600.057    600.057
 55.270    684.000    677.465      6.535    600.145    673.218    604.393    600.145    600.145
 55.370    686.000    676.005      9.995    600.232    671.787    604.451    600.232    600.232
 55.470    671.913    676.116     -4.202    600.319    671.885    604.550    600.319    600.319
 55.570    704.000    677.532     26.468    600.406    673.251    604.687    600.406    600.406
 55.670    672.000    680.184     -8.184    600.493    675.817    604.859    600.493    600.493
 55.770    669.000    684.141    -15.141    600.579    679.648    605.072    600.579    600.579
 55.870    701.000    689.628     11.372    600.665    684.961    605.331    600.665    600.665
 55.970    736.000    697.112     38.888    600.750    692.209    605.651    600.750    600.750
 56.070    733.554    707.511     26.042    600.836    702.283    606.061    600.836    600.836
 56.170    697.000    722.576    -25.576    600.921    716.880    606.612    600.921    600.921
 56.270    730.952    745.467    -14.515    601.005    739.066    607.398    601.005    601.005
 56.370    816.000    781.482     34.518    601.090    773.978    608.578    601.090    601.090
 56.470    806.000    838.658    -32.658    601.174    829.416    610.391    601.174    601.174
 56.570    953.674    927.748     25.926    601.257    915.812    613.156    601.257    601.257
 56.670   1072.462   1060.897     11.566    601.340   1044.949    617.236    601.340    601.340
 56.770   1230.000   1248.540    -18.540    601.423   1226.956    622.940    601.423    601.423
 56.870   1421.000   1494.663    -73.663    601.506   1465.705    630.388    601.506    601.506
 56.970   1743.261   1791.319    -48.058    601.588   1753.488    639.346    601.588    601.588
 57.070   2136.925   2113.577     23.347    601.669   2066.123    649.073    601.669    601.669
 57.170   2521.000   2416.142    104.858    601.751   2359.661    658.226    601.751    601.751
 57.270   2744.000   2635.769    108.231    601.831   2572.737    664.927    601.831    601.831
 57.370   2723.000   2710.067     12.933    601.912   2644.793    667.323    601.912    601.912
 57.470   2593.775   2614.040    -20.265    601.991   2551.548    664.673    601.991    601.991
 57.570   2437.000   2379.861     57.139    602.071   2324.203    657.938    602.071    602.071
 57.670   2103.000   2072.513     30.487    602.150   2025.808    649.054    602.150    602.150
 57.770   1731.928   1753.709    -21.782    602.228   1716.243    639.867    602.228    602.228
 57.870   1398.000   1465.872    -67.872    602.306   1436.658    631.657    602.306    602.306
 57.970   1208.000   1231.347    -23.347    602.384   1208.699    625.132    602.384    602.384
 58.070   1047.167   1056.366     -9.199    602.461   1038.331    620.564    602.461    602.461
 58.170    865.000    936.381    -71.381    602.537    920.982    617.979    602.537    602.537
 58.270    876.000    861.703     14.297    602.613    846.976    617.364    602.613    602.613
 58.370    801.000    822.231    -21.231    602.688    806.099    618.830    602.688    602.688
 58.470    844.617    810.318     34.298    602.763    790.398    622.681    602.763    602.763
 58.570    822.000    821.587      0.413    602.837    795.078    629.333    602.837    602.837
 58.670    802.000    854.136    -52.136    602.911    817.934    639.087    602.911    602.911
 58.770    929.000    906.858     22.142    602.984    857.979    651.824    602.984    602.984
 58.870   1004.747    977.548     27.199    603.057    913.846    666.710    603.057    603.057
 58.970   1014.000   1061.296    -47.296    603.129    982.345    682.023    603.129    603.129
 59.070   1196.165   1149.679     46.486    603.200   1057.576    695.247    603.200    603.200
 59.170   1221.788   1231.861    -10.073    603.271   1131.413    703.671    603.271    603.271
 59.270   1296.000   1298.259     -2.259    603.341   1195.949    705.619    603.341    603.341
 59.370   1316.000   1343.419    -27.419    603.410   1245.477    701.339    603.410    603.410
 59.470   1343.000   1364.516    -21.516    603.479   1275.535    692.465    603.479    603.479
 59.570   1365.573   1359.781      5.792    603.547   1282.442    680.905    603.547    603.547
 59.670   1376.000   1331.741     44.259    603.615   1267.021    668.360    603.615    603.615
 59.770   1298.453   1290.532      7.921    603.682   1237.945    656.287    603.682    603.682
 59.870   1248.000   1250.776     -2.776    603.748   1208.773    645.748    603.748    603.748
 59.970   1159.091   1225.516    -66.425    603.813   1192.063    637.231    603.813    603.813
 60.070   1269.897   1223.066     46.830    603.878   1196.152    630.713    603.878    603.878
 60.170   1269.000   1247.284     21.716    603.942   1225.209    625.890    603.942    603.942
 60.270   1350.000   1298.782     51.218    604.006   1280.217    622.395    604.006    604.006
 60.370   1325.627   1374.303    -48.676    604.069   1358.230    619.922    604.069    604.069
 60.470   1457.463   1464.145     -6.681    604.131   1449.783    618.238    604.131    604.131
 60.570   1591.451   1550.400     41.051    604.192   1537.158    617.163    604.192    604.192
 60.670   1673.000   1608.635     64.365    604.252   1596.060    616.563    604.252    604.252
 60.770   1645.083   1615.417     29.666    604.312   1603.149    616.343    604.312    604.312
 60.870   1519.000   1560.835    -41.835    604.371   1548.570    616.440    604.371    604.371
 60.970   1474.000   1455.113     18.887    604.429   1442.570    616.820    604.429    604.429
 61.070   1319.000   1321.096     -2.096    604.487   1307.998    617.473    604.487    604.487
 61.170   1117.520   1182.220    -64.701    604.544   1168.258    618.426    604.544    604.544
 61.270   1100.000   1056.181     43.819    604.599   1040.963    619.761    604.599    604.599
 61.370    995.000    953.702     41.298    604.655    936.659    621.656    604.655    604.655
 61.470    886.310    879.467      6.843    604.709    859.696    624.444    604.709    604.709
 61.570    774.000    834.054    -60.054    604.762    810.086    628.695    604.762    604.762
 61.670    853.000    816.311     36.689    604.815    785.792    635.293    604.815    604.815
 61.770    857.614    825.438     32.176    604.867    784.772    645.479    604.867    604.867
 61.870    905.000    862.117     42.883    604.918    806.173    660.789    604.918    604.918
 61.970    915.000    928.340    -13.340    604.968    850.388    682.821    604.968    604.968
 62.070   1039.000   1026.000     13.000    605.017    918.070    712.813    605.017    605.017
 62.170   1082.000   1154.629    -72.629    605.066   1008.459    751.061    605.066    605.066
 62.270   1311.425   1308.940      2.485    605.113   1117.539    796.298    605.113    605.113
 62.370   1480.000   1476.765      3.235    605.160   1236.489    845.183    605.160    605.160
 62.470   1630.995   1637.914     -6.918    605.206   1350.821    892.021    605.206    605.206
 62.570   1648.000   1765.138   -117.138    605.251   1441.034    929.075    605.251    605.251
 62.670   1887.000   1830.103     56.897    605.295   1486.865    948.277    605.295    605.295
 62.770   1865.466   1815.539     49.927    605.338   1475.954    944.712    605.338    605.338
 62.870   1776.000   1725.379     50.621    605.380   1411.090    919.512    605.380    605.380
 62.970   1560.000   1582.073    -22.073    605.421   1308.292    879.096    605.421    605.421
 63.070   1458.000   1414.396     43.604    605.462   1188.103    831.689    605.462    605.462
 63.170   1253.000   1247.311      5.689    605.501   1068.347    784.428    605.501    605.501
 63.270   1093.670   1097.987     -4.317    605.540    961.283    742.224    605.540    605.540
 63.370    950.000    975.581    -25.581    605.577    873.450    707.698    605.577    605.577
 63.470    841.000    882.544    -41.544    605.614    806.592    681.559    605.614    605.614
 63.570    766.477    816.610    -50.133    605.649    759.090    663.162    605.649    605.649
 63.670    760.022    773.004    -12.981    605.684    727.532    651.146    605.684    605.684
 63.770    742.706    746.380     -3.675    605.718    708.099    643.987    605.718    605.718
 63.870    701.970    732.167    -30.197    605.750    697.522    640.381    605.750    605.750
 63.970    773.797    727.261     46.536    605.782    693.565    639.459    605.782    605.782
 64.070    704.902    730.247    -25.345    605.813    695.158    640.878    605.813    605.813
 64.170    758.000    741.377     16.623    605.842    702.335    644.854    605.842    605.842
 64.270    752.000    762.233    -10.233    605.871    715.931    652.134    605.871    605.871
 64.370    808.833    795.442     13.391    605.899    737.306    663.980    605.899    605.899
 64.470    800.462    844.107    -43.645    605.925    767.908    682.053    605.925    605.925
 64.570    900.000    911.007    -11.007    605.951    808.714    708.150    605.951    605.951
 64.670    980.000    997.540    -17.540    605.975    859.621    743.775    605.975    605.975
 64.770   1121.000   1102.508     18.492    605.999    918.812    789.548    605.999    605.999
 64.870   1201.561   1220.908    -19.347    606.021    982.203    844.555    606.021    606.021
 64.970   1304.000   1343.021    -39.021    606.043   1043.114    905.761    606.043    606.043
 65.070   1431.000   1454.462    -23.462    606.063   1092.708    967.622    606.063    606.063
 65.170   1556.000   1538.254     17.746    606.082   1122.094   1022.055    606.082    606.082
 65.270   1559.901   1579.294    -19.393    606.100   1125.873   1059.357    606.100    606.100
 65.370   1587.411   1569.602     17.808    606.118   1104.583   1071.006    606.118    606.118
 65.470   1530.000   1511.834     18.166    606.134   1064.020   1053.853    606.134    606.134
 65.570   1368.757   1418.634    -49.877    606.148   1012.563   1012.159    606.148    606.148
 65.670   1268.881   1307.273    -38.393    606.162    958.373    955.032    606.162    606.162
 65.770   1176.696   1193.481    -16.785    606.175    907.511    892.137    606.175    606.175
 65.870   1099.079   1088.237     10.842    606.187    863.273    831.160    606.187    606.187
 65.970    910.000    997.375    -87.375    606.197    826.440    777.151    606.197    606.197
 66.070    910.000    922.619    -12.619    606.206    796.161    732.688    606.206    606.206
 66.170    807.530    863.214    -55.683    606.215    771.124    698.328    606.215    606.215
 66.270    841.000    817.347     23.653    606.222    750.386    673.203    606.222    606.222
 66.370    738.000    782.875    -44.875    606.228    733.452    655.668    606.228    606.228
 66.470    762.000    757.617      4.383    606.232    720.009    643.852    606.232    606.232
 66.570    713.000    739.573    -26.573    606.236    709.771    636.046    606.236    606.236
 66.670    706.739    727.115    -20.376    606.238    702.467    630.891    606.238    606.238
 66.770    675.000    719.045    -44.045    606.240    697.871    627.415    606.240    606.240
 66.870    705.000    714.559     -9.559    606.240    695.815    624.985    606.240    606.240
 66.970    752.361    713.197     39.164    606.239    696.224    623.212    606.239    606.239
 67.070    665.191    714.831    -49.641    606.237    699.189    621.878    606.237    606.237
 67.170    745.420    719.741     25.679    606.233    705.103    620.871    606.233    606.233
 67.270    740.000    728.769     11.231    606.229    714.850    620.148    606.229    606.229
 67.370    672.000    743.539    -71.539    606.223    730.049    619.712    606.223    606.223
 67.470    809.955    766.707     43.249    606.216    753.308    619.613    606.216    606.216
 67.570    751.870    802.168    -50.298    606.208    788.433    619.939    606.208    606.208
 67.670    840.000    855.087    -15.087    606.198    840.458    620.820    606.198    606.198
 67.770    910.000    931.581    -21.581    606.188    915.346    622.412    606.188    606.188
 67.870    969.000   1037.926    -68.926    606.176   1019.209    624.881    606.176    606.176
 67.970   1164.000   1179.203    -15.203    606.163   1156.996    628.357    606.163    606.163
 68.070   1421.504   1357.517     63.987    606.148   1330.762    632.893    606.148    606.148
 68.170   1553.000   1570.045    -17.045    606.133   1537.770    638.407    606.133    606.133
 68.270   1753.047   1807.251    -54.204    606.116   1768.755    644.630    606.116    606.116
 68.370   2048.000   2051.527     -3.527    606.098   2006.597    651.075    606.098    606.098
 68.470   2328.000   2276.678     51.322    606.079   2225.828    657.018    606.079    606.079
 68.570   2491.981   2449.800     42.181    606.058   2394.449    661.550    606.058    606.058
 68.670   2549.000   2538.431     10.569    606.036   2480.890    663.776    606.036    606.036
 68.770   2569.000   2523.144     45.856    606.013   2466.249    663.158    606.013    606.013
 68.870   2464.000   2407.534     56.466    605.989   2354.013    659.793    605.989    605.989
 68.970   2191.132   2216.116    -24.984    605.963   2168.016    654.355    605.963    605.963
 69.070   2046.000   1982.425     63.575    605.936   1940.876    647.764    605.936    605.936
 69.170   1684.237   1737.789    -53.552    605.908   1703.064    640.883    605.908    605.908
 69.270   1543.000   1505.983     37.017    605.879   1477.710    634.364    605.879    605.879
 69.370   1311.000   1302.232      8.768    605.848   1279.626    628.627    605.848    605.848
 69.470   1097.497   1134.018    -36.521    605.816   1116.092    623.875    605.816    605.816
 69.570   1037.000   1002.575     34.425    605.783    988.314    620.144    605.783    605.783
 69.670    859.424    904.759    -45.335    605.748    893.234    617.345    605.748    605.748
 69.770    900.000    834.975     65.025    605.712    825.414    615.324    605.712    605.712
 69.870    876.000    786.859     89.141    605.675    778.663    613.906    605.675    605.675
 69.970    784.006    754.463     29.543    605.636    747.196    612.927    605.636    605.636
 70.070    731.435    732.897     -1.462    605.597    726.258    612.252    605.597    605.597
 70.170    711.000    718.516     -7.516    605.555    712.303    611.780    605.555    605.555
 70.270    732.835    708.817     24.018    605.513    702.896    611.442    605.513    605.513
 70.370    694.235    702.192     -7.956    605.469    696.471    611.195    605.469    605.469
 70.470    730.670    697.668     33.003    605.424    692.084    611.010    605.424    605.424
 70.570    658.746    694.689    -35.943    605.377    689.200    610.868    605.377    605.377
 70.670    687.000    692.986     -5.986    605.330    687.542    610.773    605.330    605.330
 70.770    682.173    692.451    -10.278    605.280    687.010    610.719    605.280    605.280
 70.870    659.064    693.126    -34.062    605.230    687.645    610.707    605.230    605.230
 70.970    648.768    695.213    -46.445    605.178    689.640    610.746    605.178    605.178
 71.070    740.000    699.124     40.876    605.125    693.391    610.850    605.125    605.125
 71.170    701.000    705.576     -4.576    605.070    699.589    611.047    605.070    605.070
 71.270    710.560    715.714     -5.154    605.014    709.335    611.378    605.014    605.014
 71.370    766.996    731.247     35.749    604.957    724.277    611.906    604.957    604.957
 71.470    730.000    754.559    -24.559    604.899    746.710    612.718    604.899    604.899
 71.570    820.000    788.723     31.277    604.839    779.593    613.927    604.839    604.839
 71.670    793.000    837.356    -44.356    604.777    826.412    615.664    604.777    604.777
 71.770    913.000    904.234      8.766    604.715    890.805    618.067    604.715    604.715
 71.870    944.000    992.642    -48.642    604.650    975.933    621.257    604.650    604.650
 71.970   1070.000   1104.482    -34.482    604.585   1083.631    625.303    604.585    604.585
 72.070   1287.000   1239.280     47.720    604.518   1213.441    630.190    604.518    604.518
 72.170   1349.427   1393.210    -43.783    604.450   1361.678    635.781    604.450    604.450
 72.270   1553.000   1558.290     -5.290    604.380   1520.648    641.788    604.380    604.380
 72.370   1729.000   1721.827      7.173    604.309   1678.124    647.754    604.309    604.309
 72.470   1806.460   1866.460    -60.000    604.237   1817.375    653.049    604.237    604.237
 72.570   1957.000   1971.845    -14.845    604.163   1918.798    656.940    604.163    604.163
 72.670   1971.000   2019.449    -48.449    604.088   1964.533    658.756    604.088    604.088
 72.770   1996.000   1999.721     -3.721    604.012   1945.368    658.153    604.012    604.012
 72.870   1943.000   1916.746     26.254    603.934   1865.231    655.281    603.934    603.934
 72.970   1742.000   1786.079    -44.079    603.855   1739.104    650.705    603.855    603.855
 73.070   1636.000   1627.947      8.053    603.774   1586.480    645.153    603.774    603.774
 73.170   1462.000   1461.248      0.752    603.692   1425.579    639.303    603.692    603.692
 73.270   1284.000   1300.697    -16.697    603.608   1270.596    633.673    603.608    603.608
 73.370   1201.000   1156.222     44.778    603.523   1131.121    628.603    603.523    603.523
 73.470   1026.000   1033.316     -7.316    603.437   1012.471    624.270    603.437    603.437
 73.570    885.000    933.761    -48.761    603.349    916.379    620.724    603.349    603.349
 73.670    852.000    856.559     -4.559    603.260    841.886    617.928    603.260    603.260
 73.770    825.678    798.950     26.729    603.170    786.313    615.803    603.170    603.170
 73.870    770.000    757.348     12.652    603.078    746.172    614.251    603.078    603.078
 73.970    788.000    728.095     59.905    602.985    717.898    613.178    602.985    602.985
 74.070    777.000    707.943     69.057    602.890    698.322    612.508    602.890    602.890
 74.170    732.181    694.296     37.885    602.794    684.904    612.184    602.794    602.794
 74.270    678.000    685.251     -7.251    602.696    675.771    612.175    602.696    602.696
 74.370    700.000    679.507     20.493    602.597    669.636    612.469    602.597    602.597
 74.470    652.000    676.225    -24.225    602.497    665.663    613.063    602.497    602.497
 74.570    689.000    674.872     14.128    602.395    663.320    613.955    602.395    602.395
 74.670    725.255    675.082     50.173    602.292    662.255    615.131    602.292    602.292
 74.770    617.000    676.549    -59.549    602.187    662.196    616.558    602.187    602.187
 74.870    627.000    678.954    -51.954    602.081    662.883    618.175    602.081    602.081
 74.970    725.686    681.911     43.775    601.974    664.025    619.888    601.974    601.974
 75.070    700.000    684.938     15.062    601.865    665.271    621.566    601.865    601.865
 75.170    695.000    687.475      7.525    601.755    666.219    623.050    601.755    601.755
 75.270    698.485    688.959      9.526    601.643    666.463    624.181    601.643    601.643
 75.370    719.000    688.996     30.004    601.530    665.713    624.856    601.530    601.530
 75.470    647.246    687.543    -40.298    601.416    663.915    625.086    601.416    601.416
 75.570    689.000    684.978      4.022    601.300    661.292    625.024    601.300    601.300
 75.670    654.352    681.996    -27.643    601.182    658.271    624.940    601.182    601.182
 75.770    683.000    679.447      3.553    601.064    655.366    625.170    601.064    601.064
 75.870    717.000    678.234     38.766    600.943    653.099    626.097    600.943    600.943
 75.970    693.000    679.285     13.715    600.822    651.974    628.143    600.822    600.822
 76.070    691.000    683.549      7.451    600.699    652.479    631.771    600.699    600.699
 76.170    663.000    691.986    -28.986    600.575    655.081    637.472    600.575    600.575
 76.270    689.000    705.511    -16.511    600.449    660.206    645.737    600.449    600.449
 76.370    679.115    724.900    -45.786    600.321    668.201    656.992    600.321    600.321
 76.470    798.000    750.643     47.357    600.193    679.271    671.525    600.193    600.193
 76.570    752.000    782.774    -30.774    600.063    693.407    689.377    600.063    600.063
 76.670    788.000    820.688    -32.688    599.931    710.305    710.248    599.931    599.931
 76.770    878.000    862.979     15.021    599.798    729.295    733.402    599.798    599.798
 76.870    941.426    907.303     34.123    599.664    749.279    757.595    599.664    599.664
 76.970    899.935    950.306    -50.371    599.528    768.698    781.033    599.528    599.528
 77.070    933.901    987.689    -53.788    599.391    785.562    801.408    599.391    599.391
 77.170   1023.000   1014.652      8.348    599.253    797.652    816.140    599.253    599.253
 77.270   1043.000   1026.954     16.046    599.113    803.012    822.948    599.113    599.113
 77.370   1009.568   1022.376    -12.807    598.972    800.613    820.636    598.972    598.972
 77.470    987.880   1001.662    -13.782    598.829    790.795    809.610    598.829    598.829
 77.570    931.330    968.169    -36.839    598.685    775.103    791.679    598.685    598.685
 77.670    896.000    926.531    -30.531    598.539    755.667    769.345    598.539    598.539
 77.770    870.000    881.337    -11.337    598.392    734.598    745.086    598.392    598.392
 77.870    829.000    836.404     -7.404    598.244    713.657    720.956    598.244    598.244
 77.970    780.313    794.524    -14.211    598.094    694.127    698.466    598.094    598.094
 78.070    731.000    757.490    -26.490    597.943    676.833    678.582    597.943    597.943
 78.170    731.000    726.205      4.795    597.791    662.188    661.793    597.791    597.791
 78.270    702.000    700.838      1.162    597.637    650.272    648.192    597.637    597.637
 78.370    684.000    681.022      2.978    597.481    640.914    637.582    597.481    597.481
 78.470    690.279    666.048     24.232    597.325    633.786    629.580    597.325    597.325
 78.570    657.000    655.052      1.948    597.167    628.491    623.723    597.167    597.167
 78.670    660.000    647.165     12.835    597.007    624.626    619.542    597.007    597.007
 78.770    604.211    641.605    -37.394    596.847    621.830    616.617    596.847    596.847
 78.870    642.000    637.731      4.269    596.684    619.809    614.603    596.684    596.684
 78.970    628.000    635.053     -7.053    596.521    618.334    613.236    596.521    596.521
 79.070    611.000    633.220    -22.220    596.356    617.243    612.330    596.356    596.356
 79.170    644.489    631.998     12.491    596.190    616.427    611.757    596.190    596.190
 79.270    590.000    631.240    -41.240    596.022    615.817    611.441    596.022    596.022
 79.370    602.000    630.867    -28.867    595.853    615.376    611.340    595.853    595.853
 79.470    606.000    630.851    -24.851    595.683    615.088    611.442    595.683    595.683
 79.570    636.710    631.203      5.507    595.511    614.952    611.758    595.511    595.511
 79.670    628.118    631.976     -3.858    595.338    614.982    612.328    595.338    595.338
 79.770    603.927    633.266    -29.339    595.163    615.203    613.221    595.163    595.163
 79.870    618.000    635.227    -17.227    594.988    615.652    614.557    594.988    594.988
 79.970    654.000    638.096     15.904    594.810    616.378    616.523    594.810    594.810
 80.070    601.000    642.217    -41.217    594.632    617.443    619.399    594.632    594.632
 80.170    640.000    648.086     -8.086    594.452    618.931    623.598    594.452    594.452
 80.270    669.000    656.385     12.615    594.271    620.948    629.696    594.271    594.271
 80.370    639.000    668.014    -29.014    594.089    623.631    638.456    594.089    594.089
 80.470    638.000    684.097    -46.097    593.905    627.149    650.832    593.905    593.905
 80.570    754.088    705.942     48.146    593.720    631.700    667.936    593.720    593.720
 80.670    789.000    734.946     54.054    593.533    637.507    690.940    593.533    593.533
 80.770    750.000    772.432    -22.432    593.346    644.802    720.935    593.346    593.346
 80.870    775.000    819.436    -44.436    593.157    653.812    758.731    593.157    593.157
 80.970    921.262    876.457     44.805    592.966    664.746    804.620    592.966    592.966
 81.070   1011.000    943.190     67.810    592.775    677.758    858.140    592.775    592.775
 81.170   1088.000   1018.245     69.755    592.582    692.892    917.862    592.582    592.582
 81.270   1068.781   1098.933    -30.152    592.387    710.006    981.239    592.387    592.387
 81.370   1212.833   1181.165     31.668    592.192    728.705   1044.576    592.192    592.192
 81.470   1312.000   1259.579     52.421    591.995    748.314   1103.189    591.995    591.995
 81.570   1261.919   1328.015    -66.095    591.797    767.889   1151.862    591.797    591.797
 81.670   1346.313   1380.610    -34.297    591.598    786.421   1185.743    591.598    591.598
 81.770   1453.226   1412.859     40.367    591.397    802.888   1201.343    591.397    591.397
 81.870   1398.145   1422.513    -24.368    591.195    816.417   1197.288    591.195    591.195
 81.970   1554.000   1409.776    144.224    590.992    826.389   1174.399    590.992    590.992
 82.070   1406.000   1376.919     29.081    590.788    832.458   1135.289    590.788    590.788
 82.170   1430.000   1327.785    102.215    590.582    834.552   1083.873    590.582    590.582
 82.270   1307.000   1267.159     39.841    590.375    832.802   1024.803    590.375    590.375
 82.370   1206.568   1199.987      6.580    590.167    827.428    962.806    590.167    590.167
 82.470   1068.099   1130.680    -62.581    589.958    818.684    902.038    589.958    589.958
 82.570   1010.157   1062.776    -52.619    589.747    806.938    845.671    589.747    589.747
 82.670    989.000    998.904     -9.904    589.535    792.762    795.762    589.535    589.535
 82.770    975.671    940.820     34.851    589.322    776.910    753.313    589.322    589.322
 82.870    903.000    889.432     13.568    589.108    760.158    718.457    589.108    589.108
 82.970    881.490    844.884     36.606    588.892    743.154    690.691    588.892    588.892
 83.070    786.710    806.775    -20.065    588.676    726.386    669.126    588.676    588.676
 83.170    792.000    774.456     17.544    588.458    710.250    652.718    588.458    588.458
 83.270    750.158    747.282      2.876    588.239    695.126    640.441    588.239    588.239
 83.370    756.896    724.731     32.165    588.019    681.387    631.400    588.019    588.019
 83.470    748.165    706.408     41.757    587.797    669.370    624.865    587.797    587.797
 83.570    644.000    692.013    -48.013    587.575    659.326    620.283    587.575    587.575
 83.670    654.793    681.301    -26.508    587.351    651.413    617.251    587.351    587.351
 83.770    669.000    674.047     -5.047    587.126    645.686    615.490    587.126    587.126
 83.870    659.000    670.011    -11.011    586.900    642.106    614.799    586.900    586.900
 83.970    672.000    668.900      3.100    586.673    640.538    615.020    586.673    586.673
 84.070    630.330    670.342    -40.012    586.445    640.756    616.007    586.445    586.445
 84.170    648.000    673.855    -25.855    586.215    642.443    617.595    586.215    586.215
 84.270    649.176    678.847    -29.671    585.985    645.200    619.592    585.985    585.985
 84.370    658.000    684.612    -26.612    585.753    648.555    621.764    585.753    585.753
 84.470    685.000    690.348     -5.348    585.520    651.976    623.840    585.520    585.520
 84.570    640.000    695.198    -55.198    585.286    654.901    625.526    585.286    585.286
 84.670    707.366    698.333      9.033    585.051    656.793    626.532    585.051    585.051
 84.770    705.394    699.096      6.298    584.815    657.224    626.629    584.815    584.815
 84.870    673.000    697.153    -24.153    584.578    655.973    625.703    584.578    584.578
 84.970    634.000    692.583    -58.583    584.340    653.077    623.794    584.340    584.340
 85.070    648.000    685.822    -37.822    584.101    648.801    621.075    584.101    584.101
 85.170    644.000    677.525    -33.525    583.860    643.546    617.799    583.860    583.860
 85.270    679.857    668.405     11.452    583.619    637.744    614.245    583.619    583.619
 85.370    632.000    659.126    -27.126    583.377    631.798    610.675    583.377    583.377
 85.470    596.000    650.251    -54.251    583.133    626.039    607.320    583.133    583.133
 85.570    609.000    642.222    -33.222    582.889    620.721    604.369    582.889    582.889
 85.670    622.000    635.358    -13.358    582.643    616.011    601.973    582.643    582.643
 85.770    597.107    629.860    -32.752    582.397    611.999    600.242    582.397    582.397
 85.870    590.819    625.833    -35.014    582.149    608.711    599.256    582.149    582.149
 85.970    630.637    623.304      7.333    581.901    606.124    599.066    581.901    581.901
 86.070    629.762    622.239      7.523    581.651    604.180    599.695    581.651    581.651
 86.170    624.000    622.564      1.436    581.401    602.806    601.141    581.401    581.401
 86.270    627.000    624.177      2.823    581.149    601.934    603.374    581.149    581.149
 86.370    657.000    626.957     30.043    580.897    601.506    606.327    580.897    580.897
 86.470    677.428    630.765     46.663    580.644    601.490    609.894    580.644    580.644
 86.570    673.380    635.441     37.939    580.390    601.880    613.922    580.390    580.390
 86.670    676.000    640.805     35.195    580.134    602.705    618.202    580.134    580.134
 86.770    651.000    646.655      4.345    579.878    604.023    622.473    579.878    579.878
 86.870    658.000    652.766      5.234    579.621    605.923    626.422    579.621    579.621
 86.970    641.357    658.907    -17.550    579.363    608.518    629.704    579.363    579.363
 87.070    655.000    664.863     -9.863    579.105    611.937    631.977    579.105    579.105
 87.170    648.000    670.490    -22.490    578.845    616.310    632.966    578.845    578.845
 87.270    705.000    675.767     29.233    578.584    621.755    632.532    578.584    578.584
 87.370    727.806    680.812     46.994    578.323    628.354    630.709    578.323    578.323
 87.470    685.000    685.840     -0.840    578.061    636.132    627.690    578.061    578.061
 87.570    727.000    691.079     35.921    577.798    645.031    623.758    577.798    577.798
 87.670    691.000    696.677     -5.677    577.534    654.888    619.225    577.534    577.534
 87.770    713.000    702.641     10.359    577.269    665.418    614.385    577.269    577.269
 87.870    709.000    708.801      0.199    577.004    676.200    609.488    577.004    577.004
 87.970    694.000    714.804    -20.804    576.737    686.676    604.741    576.737    576.737
 88.070    764.000    720.125     43.875    576.470    696.162    600.301    576.470    576.470
 88.170    756.000    724.120     31.880    576.202    703.909    596.278    576.202    576.202
 88.270    759.000    726.144     32.856    575.933    709.210    592.731    575.933    575.933
 88.370    736.000    725.714     10.286    575.664    711.567    589.678    575.664    575.664
 88.470    686.000    722.670    -36.670    575.394    710.836    587.102    575.394    575.394
 88.570    710.000    717.231     -7.231    575.123    707.274    584.966    575.123    575.123
 88.670    719.000    709.926      9.074    574.851    701.460    583.217    574.851    574.851
 88.770    708.377    701.448      6.930    574.579    694.141    581.799    574.579    574.579
 88.870    707.000    692.529     14.471    574.306    686.104    580.659    574.306    574.306
 88.970    688.000    683.864      4.136    574.032    678.090    579.749    574.032    574.032
 89.070    644.274    676.063    -31.790    573.758    670.752    579.026    573.758    573.758
 89.170    674.675    669.622      5.053    573.482    664.619    578.457    573.482    573.482
 89.270    656.337    664.894     -8.558    573.207    660.072    578.012    573.207    573.207
 89.370    662.000    662.071     -0.071    572.930    657.326    577.670    572.930    572.930
 89.470    630.771    661.176    -30.405    572.653    656.425    577.409    572.653    572.653
 89.570    656.000    662.066     -6.066    572.376    657.245    577.211    572.376    572.376
 89.670    650.000    664.449    -14.449    572.097    659.512    577.058    572.097    572.097
 89.770    688.338    667.899     20.439    571.818    662.820    576.930    571.818    571.818
 89.870    667.000    671.882     -4.882    571.539    666.652    576.809    571.539    571.539
 89.970    711.807    675.781     36.026    571.259    670.416    576.671    571.259    571.259
 90.070    720.000    678.949     41.051    570.978    673.484    576.497    570.978    570.978
 90.170    726.488    680.779     45.709    570.697    675.269    576.265    570.697    570.697
 90.270    642.053    680.807    -38.754    570.415    675.323    575.961    570.415    570.415
 90.370    699.000    678.809     20.191    570.133    673.426    575.578    570.133    570.133
 90.470    686.403    674.839     11.565    569.851    669.630    575.121    569.851    569.851
 90.570    639.000    669.196    -30.196    569.567    664.222    574.601    569.567    569.567
 90.670    622.839    662.321    -39.482    569.284    657.624    574.036    569.284    569.284
 90.770    631.000    654.698    -23.698    569.000    650.304    573.443    569.000    569.000
 90.870    673.000    646.786     26.214    568.715    642.705    572.841    568.715    568.715
 90.970    639.325    638.982      0.343    568.430    635.206    572.245    568.430    568.430
 91.070    654.084    631.601     22.482    568.144    628.113    571.665    568.144    568.144
 91.170    660.000    624.876     35.124    567.858    621.651    571.110    567.858    567.858
 91.270    632.000    618.960     13.040    567.572    615.966    570.587    567.572    567.572
 91.370    599.000    613.930    -14.930    567.285    611.134    570.098    567.285    567.285
 91.470    611.000    609.806      1.194    566.998    607.173    569.644    566.998    566.998
 91.570    563.000    606.559    -43.559    566.711    604.055    569.223    566.711    566.711
 91.670    651.000    604.131     46.869    566.423    601.726    568.834    566.423    566.423
 91.770    603.000    602.453      0.547    566.135    600.117    568.474    566.135    566.135
 91.870    602.000    601.456      0.544    565.847    599.163    568.141    565.847    565.847
 91.970    601.000    601.089     -0.089    565.558    598.814    567.832    565.558    565.558
 92.070    558.333    601.323    -42.990    565.269    599.042    567.547    565.269    565.269
 92.170    616.000    602.162     13.838    564.980    599.850    567.287    564.980    564.980
 92.270    621.076    603.642     17.434    564.690    601.274    567.051    564.690    564.690
 92.370    587.000    605.835    -18.835    564.400    603.383    566.844    564.400    564.400
 92.470    570.000    608.846    -38.846    564.110    606.276    566.669    564.110    564.110
 92.570    654.888    612.804     42.083    563.820    610.080    566.530    563.820    563.820
 92.670    601.000    617.859    -16.859    563.529    614.938    566.433    563.529    563.529
 92.770    658.000    624.168     33.832    563.239    621.002    566.383    563.239    563.239
 92.870    641.000    631.880      9.120    562.948    628.419    566.384    562.948    562.948
 92.970    658.000    641.127     16.873    562.657    637.314    566.439    562.657    562.657
 93.070    676.404    652.002     24.401    562.366    647.782    566.550    562.366    562.366
 93.170    708.781    664.551     44.230    562.075    659.866    566.716    562.075    562.075
 93.270    683.000    678.750      4.250    561.783    673.548    566.936    561.783    561.783
 93.370    690.575    694.504     -3.930    561.492    688.735    567.204    561.492    561.492
 93.470    693.000    711.632    -18.632    561.200    705.253    567.515    561.200    561.200
 93.570    689.560    729.861    -40.301    560.909    722.837    567.862    560.909    560.909
 93.670    731.000    748.831    -17.831    560.617    741.131    568.239    560.617    560.617
 93.770    752.819    768.114    -15.294    560.326    759.710    568.646    560.326    560.326
 93.870    802.000    787.255     14.745    560.034    778.115    569.086    560.034    560.034
 93.970    796.000    805.862     -9.862    559.742    795.938    569.574    559.742    559.742
 94.070    785.000    823.696    -38.696    559.451    812.909    570.144    559.451    559.451
 94.170    861.000    840.753     20.247    559.159    828.971    570.845    559.159    559.159
 94.270    899.307    857.256     42.051    558.868    844.281    571.747    558.868    558.868
 94.370    922.000    873.573     48.427    558.576    859.124    572.929    558.576    558.576
 94.470    899.000    890.079      8.921    558.285    873.792    574.475    558.285    558.285
 94.570    908.000    907.028      0.972    557.994    888.467    576.458    557.994    557.994
 94.670    887.000    924.479    -37.479    557.702    903.149    578.936    557.702    557.702
 94.770    914.000    942.334    -28.334    557.411    917.717    581.932    557.411    557.411
 94.870    971.000    960.388     10.612    557.121    931.976    585.438    557.121    557.121
 94.970    918.000    978.370    -60.370    556.830    945.710    589.397    556.830    556.830
 95.070   1001.000    996.000      5.000    556.540    958.742    593.706    556.540    556.540
 95.170   1049.401   1012.918     36.483    556.249    970.867    598.211    556.249    556.249
 95.270    966.000   1028.581    -62.581    555.959    981.741    602.713    555.959    555.959
 95.370   1008.000   1042.182    -34.182    555.669    990.800    606.970    555.669    555.669
 95.470   1044.284   1052.648     -8.365    555.380    997.243    610.709    555.380    555.380
 95.570   1032.000   1058.756    -26.756    555.091   1000.121    613.657    555.091    555.091
 95.670   1020.154   1059.306    -39.152    554.802    998.490    615.557    554.802    554.802
 95.770   1102.400   1053.406     48.994    554.513    991.648    616.221    554.513    554.513
 95.870   1110.000   1040.741     69.259    554.225    979.361    615.565    554.225    554.225
 95.970   1017.000   1021.711     -4.711    553.937    961.992    613.626    553.937    553.937
 96.070   1021.225    997.401     23.824    553.650    940.471    610.559    553.650    553.650
 96.170    951.000    969.391    -18.391    553.363    916.143    606.597    553.363    553.363
 96.270    934.000    939.526     -5.526    553.076    890.581    602.012    553.076    553.076
 96.370    948.000    909.719     38.281    552.790    865.421    597.083    552.790    552.790
 96.470    877.000    881.824     -4.824    552.504    842.257    592.068    552.504    552.504
 96.570    927.000    857.553     69.447    552.218    822.580    587.187    552.218    552.218
 96.670    813.894    838.441    -24.546    551.934    807.746    582.621    551.934    551.934
 96.770    874.889    825.815     49.073    551.649    798.951    578.502    551.649    551.649
 96.870    799.000    820.786    -21.786    551.365    797.220    574.914    551.365    551.365
 96.970    851.000    824.236     26.764    551.082    803.393    571.899    551.082    551.082
 97.070    910.000    836.811     73.189    550.800    818.113    569.463    550.800    550.800
 97.170    887.000    858.917     28.083    550.517    841.808    567.582    550.517    550.517
 97.270    946.492    890.699     55.793    550.236    874.664    566.215    550.236    550.236
 97.370   1005.000    932.020     72.980    549.955    916.599    565.309    549.955    549.955
 97.470   1021.745    982.425     39.319    549.675    967.215    564.807    549.675    549.675
 97.570    995.324   1041.103    -45.780    549.395   1025.760    564.649    549.395    549.395
 97.670   1096.903   1106.834     -9.932    549.117   1091.078    564.773    549.117    549.117
 97.770   1161.705   1177.935    -16.230    548.839   1161.550    565.115    548.839    548.839
 97.870   1323.000   1252.237     70.763    548.561   1235.074    565.609    548.561    548.561
 97.970   1377.093   1327.208     49.885    548.285   1309.185    566.189    548.285    548.285
 98.070   1397.000   1399.675     -2.675    548.009   1380.785    566.780    548.009    548.009
 98.170   1470.000   1466.113      3.887    547.734   1446.428    567.303    547.734    547.734
 98.270   1573.949   1522.798     51.151    547.460   1502.469    567.682    547.460    547.460
 98.370   1561.000   1566.146     -5.146    547.186   1545.396    567.842    547.186    547.186
 98.470   1608.000   1593.197     14.803    546.914   1572.309    567.723    546.914    546.914
 98.570   1654.908   1602.141     52.767    546.642   1581.433    567.290    546.642    546.642
 98.670   1594.000   1592.683      1.317    546.371   1572.479    566.536    546.371    546.371
 98.770   1539.476   1566.084    -26.608    546.102   1546.681    565.484    546.102    546.102
 98.870   1477.000   1524.880    -47.880    545.833   1506.526    564.183    545.833    545.833
 98.970   1425.714   1472.417    -46.703    545.565   1455.295    562.697    545.565    545.565
 99.070   1428.000   1412.379     15.621    545.298   1396.606    561.092    545.298    545.298
 99.170   1290.000   1348.438    -58.438    545.032   1334.060    559.437    545.032    545.032
 99.270   1220.801   1284.018    -63.216    544.768   1271.024    557.792    544.768    544.768
 99.370   1208.000   1222.176    -14.176    544.504   1210.500    556.211    544.504    544.504
 99.470   1221.000   1165.545     55.455    544.241   1155.078    554.737    544.241    544.241
 99.570   1093.000   1116.329    -23.329    543.980   1106.926    553.407    543.980    543.980
 99.670   1039.150   1076.325    -37.174    543.719   1067.817    552.246    543.719    543.719
 99.770   1104.100   1046.958     57.142    543.460   1039.158    551.271    543.460    543.460
 99.870   1038.159   1029.314      8.846    543.202   1022.026    550.493    543.202    543.202
 99.970    984.000   1024.156    -40.156    542.945   1017.184    549.913    542.945    542.945
100.070   1085.310   1031.942     53.368    542.690   1025.093    549.527    542.690    542.690
100.170   1079.000   1052.825     26.175    542.435   1045.917    549.324    542.435    542.435
100.270   1151.000   1086.658     64.342    542.182   1079.526    549.290    542.182    542.182
100.370   1066.628   1132.993    -66.365    541.930   1125.493    549.403    541.930    541.930
100.470   1170.642   1191.079    -20.436    541.680   1183.087    549.642    541.680    541.680
100.570   1231.165   1259.839    -28.674    541.431   1251.263    549.978    541.431    541.431
100.670   1361.000   1337.852     23.148    541.183   1328.627    550.382    541.183    541.183
100.770   1478.000   1423.325     54.675    540.936   1413.421    550.821    540.936    540.936
100.870   1536.000   1514.075     21.925    540.692   1503.495    551.260    540.692    540.692
100.970   1707.000   1607.537     99.463    540.448   1596.323    551.664    540.448    540.448
101.070   1787.000   1700.832     86.168    540.206   1689.059    551.996    540.206    540.206
101.170   1809.000   1790.997     18.003    539.965   1778.773    552.226    539.965    539.965
101.270   1864.000   1875.100    -11.100    539.726   1862.555    552.327    539.726    539.726
101.370   1955.000   1950.579      4.421    539.489   1937.859    552.288    539.489    539.489
101.470   2088.159   2015.416     72.743    539.253   2002.663    552.106    539.253    539.253
101.570   2014.099   2068.142    -54.043    539.019   2055.486    551.797    539.019    539.019
101.670   2081.000   2107.699    -26.699    538.786   2095.242    551.384    538.786    538.786
101.770   2055.025   2133.220    -78.194    538.555   2121.034    550.900    538.555    538.555
101.870   2057.477   2143.904    -86.427    538.326   2132.027    550.377    538.326    538.326
101.970   2169.000   2139.074     29.926    538.098   2127.513    549.847    538.098    538.098
102.070   2168.956   2118.447     50.509    537.872   2107.176    549.340    537.872    537.872
102.170   2066.000   2082.494    -16.494    537.648   2071.467    548.879    537.648    537.648
102.270   2033.000   2032.719      0.281    537.425   2021.868    548.482    537.425    537.425
102.370   2039.587   1971.674     67.913    537.205   1960.923    548.160    537.205    537.205
102.470   1892.073   1902.691    -10.617    536.986   1891.957    547.919    536.986    536.986
102.570   1781.000   1829.417    -48.417    536.769   1818.622    547.756    536.769    536.769
102.670   1792.742   1755.354     37.389    536.554   1744.429    547.660    536.554    536.554
102.770   1649.000   1683.500    -34.500    536.341   1672.395    547.617    536.341    536.341
102.870   1578.000   1616.163    -38.163    536.129   1604.846    547.604    536.129    536.129
102.970   1560.147   1554.880      5.266    535.920   1543.346    547.600    535.920    535.920
103.070   1423.000   1500.433    -77.433    535.713   1488.698    547.583    535.713    535.713
103.170   1524.951   1452.889     72.062    535.507   1440.991    547.531    535.507    535.507
103.270   1423.000   1411.673     11.327    535.304   1399.666    547.428    535.304    535.304
103.370   1329.000   1375.657    -46.657    535.103   1363.613    547.258    535.103    535.103
103.470   1360.661   1343.301     17.360    534.904   1331.303    547.008    534.904    534.904
103.570   1327.000   1312.828     14.172    534.707   1300.973    546.664    534.707    534.707
103.670   1261.000   1282.468    -21.468    534.512   1270.863    546.219    534.512    534.512
103.770   1241.000   1250.714     -9.714    534.320   1239.466    545.667    534.320    534.320
103.870   1177.000   1216.529    -39.529    534.129   1205.744    545.013    534.129    534.129
103.970   1114.000   1179.462    -65.462    533.941   1169.233    544.267    533.941    533.941
104.070   1104.000   1139.614    -35.614    533.755   1130.019    543.445    533.755    533.755
104.170   1143.491   1097.514     45.977    533.572   1088.607    542.569    533.572    533.572
104.270   1037.000   1053.945    -16.945    533.390   1045.760    541.662    533.390    533.390
104.370   1028.000   1009.798     18.202    533.212   1002.346    540.745    533.212    533.212
104.470    948.063    965.959    -17.896    533.035    959.232    539.838    533.035    533.035
104.570    916.000    923.245     -7.245    532.861    917.219    538.957    532.861    532.861
104.670    943.000    882.374     60.626    532.689    877.011    538.115    532.689    532.689
104.770    867.000    843.944     23.056    532.520    839.198    537.322    532.520    532.520
104.870    762.961    808.407    -45.445    532.353    804.224    536.585    532.353    532.353
104.970    796.000    776.081     19.919    532.189    772.405    535.908    532.189    532.189
105.070    761.961    747.149     14.812    532.028    743.922    535.292    532.028    532.028
105.170    702.956    721.665    -18.709    531.869    718.828    534.737    531.869    531.869
105.270    705.000    699.572      5.428    531.712    697.071    534.240    531.712    531.712
105.370    702.000    680.722     21.278    531.559    678.504    533.798    531.559    531.559
105.470    736.000    664.877     71.123    531.408    662.903    533.400    531.408    531.408
105.570    697.164    651.816     45.348    531.259    650.039    533.050    531.259    531.259
105.670    630.308    641.262    -10.955    531.114    639.640    532.746    531.114    531.114
105.770    670.195    632.925     37.271    530.971    631.424    532.478    530.971    530.971
105.870    610.777    626.539    -15.762    530.831    625.131    532.242    530.831    530.831
105.970    643.595    621.868     21.726    530.694    620.529    532.034    530.694    530.694
106.070    576.099    618.713    -42.614    530.559    617.421    531.851    530.559    530.559
106.170    628.000    616.912     11.088    530.428    615.647    531.690    530.428    530.428
106.270    638.000    616.342     21.658    530.299    615.087    531.549    530.299    530.299
106.370    637.000    616.918     20.082    530.174    615.658    531.427    530.174    530.174
106.470    645.026    618.587     26.439    530.051    617.306    531.322    530.051    530.051
106.570    629.767    621.321      8.447    529.932    620.005    531.235    529.932    529.932
106.670    610.985    625.111    -14.126    529.815    623.747    531.164    529.815    529.815
106.770    646.000    629.962     16.038    529.702    628.535    531.110    529.702    529.702
106.870    695.000    635.881     59.119    529.592    634.379    531.073    529.592    529.592
106.970    684.000    642.876     41.124    529.485    641.283    531.052    529.485    529.485
107.070    660.000    650.939      9.061    529.381    649.243    531.049    529.381    529.381
107.170    698.000    660.046     37.954    529.280    658.233    531.061    529.280    529.280
107.270    662.000    670.141     -8.141    529.183    668.199    531.089    529.183    529.183
107.370    622.000    681.131    -59.131    529.088    679.049    531.131    529.088    529.088
107.470    756.000    692.880     63.120    528.998    690.650    531.186    528.998    528.998
107.570    727.000    705.208     21.792    528.910    702.823    531.249    528.910    528.910
107.670    672.727    717.882    -45.155    528.826    715.340    531.320    528.826    528.826
107.770    690.912    730.629    -39.717    528.745    727.931    531.392    528.745    528.745
107.870    770.000    743.130     26.870    528.668    740.283    531.463    528.668    528.668
107.970    703.000    755.039    -52.039    528.594    752.052    531.526    528.594    528.594
108.070    736.985    765.989    -29.004    528.524    762.881    531.577    528.524    528.524
108.170    780.000    775.629      4.371    528.457    772.422    531.610    528.457    528.457
108.270    797.411    783.652     13.759    528.394    780.373    531.620    528.394    528.394
108.370    773.000    789.840    -16.840    528.335    786.519    531.604    528.335    528.335
108.470    834.348    794.104     40.244    528.279    790.773    531.561    528.279    528.279
108.570    747.731    796.503    -48.773    528.227    793.195    531.490    528.227    528.227
108.670    750.000    797.249    -47.249    528.178    793.993    531.393    528.178    528.178
108.770    773.000    796.669    -23.669    528.134    793.491    531.275    528.134    528.134
108.870    741.000    795.168    -54.168    528.093    792.088    531.139    528.093    528.093
108.970    779.000    793.171    -14.171    528.056    790.206    530.993    528.056    528.056
109.070    749.427    791.086    -41.659    528.022    788.243    530.841    528.022    528.022
109.170    759.000    789.261    -30.261    527.993    786.546    530.689    527.993    527.993
109.270    810.022    787.971     22.051    527.968    785.382    530.541    527.968    527.968
109.370    771.000    787.394    -16.394    527.946    784.927    530.401    527.946    527.946
109.470    823.582    787.612     35.971    527.929    785.261    530.272    527.929    527.929
109.570    783.000    788.602     -5.602    527.916    786.358    530.156    527.916    527.916
109.670    834.926    790.242     44.685    527.906    788.095    530.053    527.906    527.906
109.770    813.041    792.307     20.734    527.901    790.247    529.965    527.901    527.901
109.870    765.000    794.489    -29.489    527.900    792.506    529.889    527.900    527.900
109.970    808.000    796.407     11.593    527.904    794.494    529.826    527.904    527.904
110.070    746.579    797.640    -51.061    527.911    795.791    529.773    527.911    527.911
110.170    783.749    797.767    -14.019    527.923    795.978    529.728    527.923    527.923
110.270    795.000    796.417     -1.417    527.939    794.685    529.689    527.939    527.939
110.370    768.000    793.315    -25.315    527.959    791.641    529.654    527.959    527.959
110.470    736.000    788.327    -52.327    527.984    786.711    529.622    527.984    527.984
110.570    757.865    781.468    -23.603    528.013    779.912    529.592    528.013    528.013
110.670    813.147    772.897     40.250    528.046    771.403    529.564    528.046    528.046
110.770    735.000    762.877    -27.877    528.084    761.447    529.539    528.084    528.084
110.870    732.000    751.738    -19.738    528.127    750.374    529.515    528.127    528.127
110.970    739.693    739.824     -0.131    528.174    738.536    529.484    528.174    528.174
111.070    730.000    727.517      2.483    528.226    726.293    529.471    528.226    528.226
111.170    694.000    715.133    -21.133    528.282    713.968    529.466    528.282    528.282
111.270    747.966    702.961     45.004    528.343    701.853    529.469    528.343    528.343
111.370    646.723    691.255    -44.532    528.409    690.199    529.480    528.409    528.409
111.470    648.222    680.222    -32.000    528.479    679.214    529.501    528.479    528.479
111.570    660.510    670.027     -9.517    528.554    669.061    529.531    528.554    528.554
111.670    685.605    660.790     24.815    528.634    659.861    529.572    528.634    528.634
111.770    691.000    652.590     38.410    528.719    651.693    529.622    528.719    528.719
111.870    657.000    645.468     11.532    528.809    644.597    529.684    528.809    528.809
111.970    655.000    639.429     15.571    528.904    638.580    529.756    528.904    528.904
112.070    645.000    634.450     10.550    529.004    633.615    529.838    529.004    529.004
112.170    582.997    630.474    -47.477    529.109    629.651    529.931    529.109    529.109
112.270    583.000    627.457    -44.457    529.218    626.640    530.033    529.218    529.218
112.370    634.000    625.311      8.689    529.333    624.497    530.144    529.333    529.333
112.470    600.832    623.952    -23.120    529.454    623.136    530.264    529.454    529.454
112.570    567.000    623.291    -56.291    529.579    622.471    530.392    529.579    529.579
112.670    659.999    623.243     36.755    529.709    622.417    530.527    529.709    529.709
112.770    617.000    623.729     -6.729    529.845    622.895    530.670    529.845    529.845
112.870    615.000    624.674     -9.674    529.986    623.831    530.819    529.986    529.986
112.970    666.000    626.016     39.984    530.133    625.164    530.974    530.133    530.133
113.070    629.000    627.704      1.296    530.285    626.842    531.135    530.285    530.285
113.170    663.174    629.699     33.475    530.442    628.827    531.302    530.442    530.442
113.270    636.000    631.978      4.022    530.605    631.096    531.474    530.605    530.605
113.370    667.118    634.533     32.585    530.773    633.640    531.652    530.773    530.773
113.470    661.376    637.370     24.007    530.947    636.466    531.837    530.947    530.947
113.570    650.000    640.512      9.488    531.126    639.597    532.028    531.126    531.126
113.670    687.623    644.004     43.619    531.311    643.075    532.226    531.311    531.311
113.770    659.638    647.904     11.735    531.502    646.959    532.432    531.502    531.502
113.870    630.000    652.293    -22.293    531.698    651.328    532.648    531.698    531.698
113.970    691.000    657.278     33.722    531.900    656.289    532.873    531.900    531.900
114.070    675.000    662.999     12.001    532.108    661.980    533.110    532.108    532.108
114.170    680.951    669.635     11.316    532.322    668.579    533.360    532.322    532.322
114.270    662.000    677.415    -15.415    532.542    676.312    533.624    532.542    532.542
114.370    734.908    686.626     48.282    532.768    685.467    533.905    532.768    532.768
114.470    648.000    697.634    -49.634    532.999    696.405    534.203    532.999    532.999
114.570    747.836    710.891     36.945    533.237    709.578    534.521    533.237    533.237
114.670    753.000    726.959     26.041    533.481    725.544    534.862    533.481    533.481
114.770    720.000    746.521    -26.521    533.731    744.983    535.228    533.731    533.731
114.870    748.000    770.403    -22.403    533.987    768.721    535.622    533.987    533.987
114.970    775.000    799.589    -24.589    534.249    797.736    536.046    534.249    534.249
115.070    775.000    835.236    -60.236    534.517    833.183    536.503    534.517    534.517
115.170    808.000    878.680    -70.680    534.792    876.395    536.996    534.792    534.792
115.270    913.000    931.443    -18.443    535.073    928.889    537.529    535.073    535.073
115.370   1033.504    995.224     38.280    535.361    992.364    538.104    535.361    535.361
115.470   1002.000   1071.886    -69.886    535.654   1068.676    538.724    535.654    535.654
115.570   1211.675   1163.423     48.252    535.955   1159.819    539.392    535.955    535.955
115.670   1301.000   1271.915     29.085    536.261   1267.870    540.110    536.261    536.261
115.770   1419.345   1399.472     19.873    536.575   1394.936    540.879    536.575    536.575
115.870   1538.000   1548.152    -10.152    536.895   1543.074    541.701    536.895    536.895
115.970   1683.000   1719.867    -36.867    537.221   1714.198    542.576    537.221    537.221
116.070   1975.000   1916.282     58.718    537.555   1909.972    543.504    537.555    537.555
116.170   2208.000   2138.692     69.308    537.895   2131.693    544.483    537.895    537.895
116.270   2469.000   2387.896     81.104    538.241   2380.164    545.510    538.241    538.241
116.370   2709.000   2664.078     44.922    538.595   2655.576    546.581    538.595    538.595
116.470   2915.754   2966.686    -50.932    538.955   2957.381    547.690    538.955    538.955
116.570   3186.030   3294.323   -108.293    539.323   3284.193    548.830    539.323    539.323
116.670   3624.000   3644.667    -20.667    539.697   3633.698    549.993    539.697    539.697
116.770   4085.000   4014.405     70.595    540.079   4002.595    551.168    540.079    540.079
116.870   4346.053   4399.207    -53.154    540.467   4386.566    552.348    540.467    540.467
116.970   4726.000   4793.726    -67.726    540.863   4780.275    553.521    540.863    540.863
117.070   5123.538   5191.634    -68.096    541.265   5177.406    554.678    541.265    541.265
117.170   5596.760   5585.695     11.065    541.675   5570.735    555.810    541.675    541.675
117.270   5940.000   5967.878    -27.878    542.092   5952.239    556.907    542.092    542.092
117.370   6330.315   6329.511      0.804    542.517   6313.259    557.961    542.517    542.517
117.470   6746.915   6661.486     85.429    542.948   6644.697    558.961    542.948    542.948
117.570   6942.000   6954.692    -12.692    543.387   6937.451    559.900    543.387    543.387
117.670   7229.000   7200.298     28.702    543.834   7182.698    560.768    543.834    543.834
117.770   7458.470   7390.293     68.178    544.288   7372.435    561.557    544.288    544.288
117.870   7586.941   7518.122     68.820    544.750   7500.113    562.259    544.750    544.750
117.970   7578.000   7579.248     -1.248    545.219   7561.198    562.868    545.219    545.219
118.070   7618.000   7571.600     46.400    545.696   7553.617    563.381    545.696    545.696
118.170   7402.336   7495.787    -93.452    546.180   7477.976    563.799    546.180    546.180
118.270   7292.090   7355.035    -62.944    546.672   7337.492    564.124    546.672    546.672
118.370   7195.000   7154.834     40.166    547.172   7137.649    564.361    547.172    547.172
118.470   6814.782   6902.420    -87.638    547.680   6885.671    564.518    547.680    547.680
118.570   6592.000   6606.171    -14.171    548.196   6589.929    564.602    548.196    548.196
118.670   6228.000   6275.047    -47.047    548.719   6259.369    564.621    548.719    548.719
118.770   5946.486   5918.108     28.378    549.251   5903.044    564.586    549.251    549.251
118.870   5475.675   5544.148    -68.473    549.790   5529.738    564.507    549.790    549.790
118.970   5223.912   5161.420     62.492    550.338   5147.696    564.392    550.338    550.338
119.070   4880.614   4777.446    103.168    550.894   4764.427    564.252    550.894    550.894
119.170   4468.000   4398.874     69.126    551.458   4386.574    564.098    551.458    551.458
119.270   4119.989   4031.399     88.591    552.030   4019.819    563.942    552.030    552.030
119.370   3669.386   3679.706    -10.320    552.610   3668.839    563.793    552.610    552.610
119.470   3407.704   3347.467     60.237    553.199   3337.299    563.662    553.199    553.199
119.570   3063.000   3037.366     25.634    553.796   3027.872    563.558    553.796    553.796
119.670   2765.000   2751.159     13.841    554.402   2742.310    563.490    554.402    554.402
119.770   2462.000   2489.764    -27.764    555.016   2481.524    563.465    555.016    555.016
119.870   2243.000   2253.366    -10.366    555.638   2245.693    563.489    555.638    555.638
119.970   2024.000   2041.536    -17.536    556.270   2034.385    563.569    556.270    556.270
120.070   1909.000   1853.351     55.649    556.909   1846.674    563.707    556.909    556.909
120.170   1733.000   1687.510     45.490    557.558   1681.255    563.909    557.558    557.558
120.270   1583.000   1542.442     40.558    558.215   1536.555    564.175    558.215    558.215
120.370   1459.000   1416.402     42.598    558.881   1410.827    564.508    558.881    558.881
120.470   1355.000   1307.557     47.443    559.556   1302.239    564.910    559.556    559.556
120.570   1256.000   1214.063     41.937    560.240   1208.943    565.381    560.240    560.240
120.670   1196.000   1134.117     61.883    560.932   1129.136    565.923    560.932    560.932
120.770   1049.024   1066.010    -16.987    561.634   1061.111    566.535    561.634    561.634
120.870    984.798   1008.162    -23.364    562.345   1003.283    567.219    562.345    562.345
120.970    898.473    959.137    -60.664    563.065    954.216    567.975    563.065    563.065
121.070    893.218    917.658    -24.440    563.794    912.635    568.804    563.794    563.794
121.170    924.000    882.609     41.391    564.532    877.421    569.706    564.532    564.532
121.270    856.000    853.027      2.973    565.279    847.609    570.682    565.279    565.279
121.370    829.000    828.093      0.907    566.036    822.380    571.735    566.036    566.036
121.470    809.535    807.118      2.417    566.802    801.042    572.864    566.802    566.802
121.570    855.000    789.526     65.474    567.578    783.020    574.072    567.578    567.578
121.670    798.000    774.843     23.157    568.363    767.835    575.361    568.363    568.363
121.770    766.000    762.676      3.324    569.158    755.094    576.731    569.158    569.158
121.870    747.679    752.702     -5.023    569.962    744.472    578.185    569.962    569.962
121.970    796.391    744.656     51.735    570.776    735.703    579.724    570.776    570.776
122.070    703.000    738.318    -35.318    571.599    728.565    581.349    571.599    571.599
122.170    714.000    733.504    -19.504    572.433    722.874    583.060    572.433    572.433
122.270    700.000    730.061    -30.061    573.276    718.477    584.859    573.276    573.276
122.370    709.000    727.854    -18.854    574.129    715.239    586.745    574.129    574.129
122.470    711.050    726.768    -15.718    574.992    713.045    588.717    574.992    574.992
122.570    742.372    726.697     15.675    575.865    711.792    590.774    575.865    575.865
122.670    756.283    727.543     28.740    576.747    711.384    592.913    576.747    576.747
122.770    721.000    729.214     -8.214    577.640    711.733    595.130    577.640    577.640
122.870    725.466    731.619     -6.153    578.544    712.752    597.420    578.544    578.544
122.970    748.739    734.665     14.074    579.457    714.359    599.774    579.457    579.457
123.070    786.878    738.257     48.621    580.381    716.468    602.184    580.381    580.381
123.170    729.000    742.298    -13.298    581.315    718.994    604.635    581.315    581.315
123.270    726.353    746.683    -20.330    582.259    721.848    607.113    582.259    582.259
123.370    695.000    751.305    -56.305    583.214    724.940    609.599    583.214    583.214
123.470    734.000    756.047    -22.047    584.179    728.176    612.074    584.179    584.179
123.570    722.632    760.789    -38.157    585.155    731.459    614.512    585.155    585.155
123.670    751.000    765.406    -14.406    586.141    734.688    616.889    586.141    586.141
123.770    777.000    769.770      7.230    587.138    737.763    619.178    587.138    587.138
123.870    798.000    773.751     24.249    588.146    740.582    621.351    588.146    588.146
123.970    787.873    777.221     10.652    589.165    743.046    623.379    589.165    589.165
124.070    775.000    780.061     -5.061    590.194    745.062    625.235    590.194    590.194
124.170    834.000    782.162     51.838    591.235    746.546    626.895    591.235    591.235
124.270    750.942    783.436    -32.494    592.286    747.429    628.339    592.286    592.286
124.370    832.000    783.816     48.184    593.348    747.661    629.552    593.348    593.348
124.470    830.000    783.267     46.733    594.421    747.212    630.527    594.421    594.421
124.570    835.000    781.783     53.217    595.506    746.078    631.263    595.506    595.506
124.670    782.000    779.389      2.611    596.602    744.276    631.768    596.602    596.602
124.770    806.000    776.142     29.858    597.709    741.847    632.057    597.709    597.709
124.870    870.000    772.117     97.883    598.827    738.848    632.150    598.827    598.827
124.970    720.982    767.412    -46.430    599.956    735.351    632.071    599.956    599.956
