neutron_powder_diffraction_0048
R_wp: 4.035
Temperature (K): 634.383
Counts: 83102.00
Wavelength (Ã…): 2.52098
COMMENTS
Test file for demonstrating the .xyy file format in Reel1.0
END OF HEADER
   tth       Y_obs     Y_calc      Y_res    Background    Phase_1_Nuc    Phase_1_Mag    Phase_2_Nuc    Phase_2_Mag
  9.970    720.000    666.411     53.589    664.958    666.019    665.349    664.958    664.958
 10.070    698.000    665.951     32.049    664.407    665.555    664.802    664.407    664.407
 10.170    688.000    665.502     22.498    663.856    665.102    664.256    663.856    663.856
 10.270    710.000    665.069     44.931    663.306    664.664    663.710    663.306    663.306
 10.370    670.000    664.652      5.348    662.755    664.243    663.163    662.755    662.755
 10.470    662.000    664.257     -2.257    662.204    663.843    662.617    662.204    662.204
 10.570    713.000    663.887     49.113    661.654    663.469    662.072    661.654    661.654
 10.670    699.000    663.550     35.450    661.104    663.127    661.526    661.104    661.104
 10.770    651.012    663.253    -12.241    660.554    662.826    660.980    660.554    660.554
 10.870    685.000    663.008     21.992    660.004    662.575    660.435    660.004    660.004
 10.970    623.017    662.829    -39.813    659.454    662.391    659.890    659.454    659.454
 11.070    689.000    662.740     26.260    658.905    662.297    659.346    658.905    658.905
 11.170    674.000    662.769     11.231    658.356    662.321    658.802    658.356    658.356
 11.270    686.000    662.957     23.043    657.807    662.503    658.258    657.807    657.807
 11.370    682.000    663.377     18.623    657.258    662.917    657.715    657.258    657.258
 11.470    734.000    664.172     69.828    656.710    663.707    657.171    656.710    656.710
 11.570    679.828    665.661     14.167    656.161    665.188    656.629    656.161    656.161
 11.670    710.876    668.550     42.327    655.614    668.070    656.086    655.614    655.614
 11.770    708.000    674.242     33.758    655.066    673.753    655.545    655.066    655.066
 11.870    715.000    684.926     30.074    654.519    684.425    655.003    654.519    654.519
 11.970    682.984    702.905    -19.921    653.973    702.388    654.462    653.973    653.973
 12.070    673.238    728.657    -55.418    653.427    728.119    653.922    653.427    653.427
 12.170    831.000    757.606     73.394    652.881    757.046    653.382    652.881    652.881
 12.270    764.294    777.593    -13.299    652.336    777.016    652.843    652.336    652.336
 12.370    770.000    775.687     -5.687    651.791    775.104    652.304    651.791    651.791
 12.470    806.315    752.972     53.343    651.247    752.395    651.766    651.247    651.247
 12.570    683.000    722.927    -39.927    650.703    722.361    651.229    650.703    650.703
 12.670    704.994    696.863      8.131    650.160    696.304    650.692    650.160    650.160
 12.770    664.469    678.659    -14.190    649.617    678.103    650.156    649.617    649.617
 12.870    640.566    667.531    -26.965    649.075    666.975    649.621    649.075    649.075
 12.970    659.000    661.137     -2.137    648.533    660.578    649.086    648.533    648.533
 13.070    688.851    657.390     31.460    647.992    656.826    648.552    647.992    647.992
 13.170    629.128    655.039    -25.911    647.452    654.468    648.019    647.452    647.452
 13.270    567.000    653.249    -86.249    646.912    652.671    647.487    646.912    646.912
 13.370    637.000    651.797    -14.797    646.373    651.212    646.955    646.373    646.373
 13.470    635.000    650.560    -15.560    645.835    649.968    646.425    645.835    645.835
 13.570    636.000    649.479    -13.479    645.297    648.880    645.895    645.297    645.297
 13.670    627.000    648.511    -21.511    644.760    647.904    645.366    644.760    644.760
 13.770    631.000    647.628    -16.628    644.224    647.013    644.837    644.224    644.224
 13.870    613.000    646.811    -33.811    643.688    646.188    644.310    643.688    643.688
 13.970    650.000    646.044      3.956    643.154    645.413    643.784    643.154    643.154
 14.070    635.000    645.318    -10.318    642.620    644.678    643.258    642.620    642.620
 14.170    658.000    644.623     13.377    642.086    643.975    642.734    642.086    642.086
 14.270    615.000    643.955    -28.955    641.554    643.298    642.210    641.554    641.554
 14.370    627.000    643.309    -16.309    641.022    642.643    641.688    641.022    641.022
 14.470    588.000    642.680    -54.680    640.492    642.005    641.166    640.492    640.492
 14.570    620.000    642.067    -22.067    639.962    641.383    640.646    639.962    639.962
 14.670    663.000    641.467     21.533    639.433    640.773    640.126    639.433    639.433
 14.770    615.649    640.877    -25.228    638.905    640.173    639.608    638.905    638.905
 14.870    672.000    640.297     31.703    638.378    639.584    639.091    638.378    638.378
 14.970    539.000    639.726   -100.726    637.851    639.002    638.575    637.851    637.851
 15.070    627.250    639.162    -11.912    637.326    638.427    638.060    637.326    637.326
 15.170    588.000    638.605    -50.605    636.801    637.860    637.546    636.801    636.801
 15.270    580.000    638.059    -58.059    636.278    637.303    637.034    636.278    636.278
 15.370    663.000    637.515     25.485    635.756    636.748    636.523    635.756    635.756
 15.470    631.000    636.974     -5.974    635.234    636.195    636.013    635.234    635.234
 15.570    657.686    636.439     21.247    634.714    635.648    635.504    634.714    634.714
 15.670    636.000    635.906      0.094    634.194    635.103    634.997    634.194    634.194
 15.770    614.000    635.377    -21.377    633.676    634.562    634.491    633.676    633.676
 15.870    655.000    634.854     20.146    633.158    634.026    633.986    633.158    633.158
 15.970    580.000    634.336    -54.336    632.642    633.495    633.482    632.642    632.642
 16.070    653.607    633.817     19.789    632.127    632.964    632.980    632.127    632.127
 16.170    597.082    633.302    -36.220    631.613    632.435    632.480    631.613    631.613
 16.270    650.000    632.789     17.211    631.100    631.908    631.980    631.100    631.100
 16.370    609.000    632.280    -23.280    630.588    631.385    631.483    630.588    630.588
 16.470    658.000    631.779     26.221    630.077    630.870    630.986    630.077    630.077
 16.570    620.000    631.299    -11.299    629.567    630.374    630.492    629.567    629.567
 16.670    622.000    630.800     -8.800    629.059    629.860    629.998    629.059    629.059
 16.770    634.000    630.302      3.698    628.551    629.346    629.507    628.551    628.551
 16.870    594.000    629.806    -35.806    628.045    628.834    629.016    628.045    628.045
 16.970    628.000    629.312     -1.312    627.540    628.324    628.528    627.540    627.540
 17.070    628.506    628.820     -0.314    627.036    627.815    628.041    627.036    627.036
 17.170    648.713    628.330     20.383    626.534    627.308    627.556    626.534    626.534
 17.270    637.000    627.843      9.157    626.033    626.803    627.072    626.033    626.033
 17.370    600.069    627.360    -27.291    625.533    626.302    626.591    625.533    625.533
 17.470    630.000    626.902      3.098    625.034    625.824    626.111    625.034    625.034
 17.570    586.000    626.488    -40.488    624.536    625.391    625.633    624.536    624.536
 17.670    606.000    626.019    -20.019    624.040    624.902    625.157    624.040    624.040
 17.770    665.000    625.545     39.455    623.545    624.407    624.682    623.545    623.545
 17.870    642.378    625.072     17.306    623.052    623.914    624.209    623.052    623.052
 17.970    568.000    624.602    -56.602    622.559    623.423    623.739    622.559    622.559
 18.070    665.000    624.134     40.866    622.068    622.933    623.270    622.068    622.068
 18.170    584.000    623.669    -39.669    621.579    622.445    622.803    621.579    621.579
 18.270    597.000    623.207    -26.207    621.090    621.960    622.338    621.090    621.090
 18.370    567.000    622.747    -55.747    620.603    621.476    621.875    620.603    620.603
 18.470    636.000    622.289     13.711    620.118    620.993    621.414    620.118    620.118
 18.570    617.000    621.834     -4.834    619.634    620.513    620.955    619.634    619.634
 18.670    586.737    621.382    -34.645    619.151    620.035    620.498    619.151    619.151
 18.770    605.000    620.933    -15.933    618.670    619.559    620.044    618.670    618.670
 18.870    585.000    620.493    -35.493    618.190    619.090    619.592    618.190    618.190
 18.970    606.000    620.055    -14.055    617.711    618.624    619.142    617.711    617.711
 19.070    585.000    619.614    -34.614    617.234    618.153    618.695    617.234    617.234
 19.170    634.779    619.175     15.603    616.759    617.684    618.250    616.759    616.759
 19.270    583.000    618.744    -35.744    616.284    617.220    617.808    616.284    616.284
 19.370    608.358    618.355     -9.998    615.812    616.791    617.376    615.812    615.812
 19.470    604.000    617.956    -13.956    615.340    616.352    616.944    615.340    615.340
 19.570    604.000    617.532    -13.532    614.871    615.893    616.510    614.871    614.871
 19.670    650.081    617.109     32.971    614.403    615.435    616.077    614.403    614.403
 19.770    566.549    616.690    -50.141    613.936    614.978    615.648    613.936    613.936
 19.870    560.000    616.273    -56.273    613.471    614.523    615.221    613.471    613.471
 19.970    562.000    615.861    -53.861    613.007    614.071    614.797    613.007    613.007
 20.070    604.000    615.454    -11.454    612.545    613.623    614.376    612.545    612.545
 20.170    633.071    615.071     18.000    612.084    613.198    613.958    612.084    612.084
 20.270    566.000    614.673    -48.673    611.625    612.755    613.543    611.625    611.625
 20.370    600.000    614.279    -14.279    611.168    612.315    613.132    611.168    611.168
 20.470    595.000    613.920    -18.920    610.712    611.902    612.730    610.712    610.712
 20.570    563.586    613.544    -49.958    610.258    611.472    612.330    610.258    610.258
 20.670    600.173    613.181    -13.008    609.805    611.057    611.929    609.805    609.805
 20.770    605.000    612.878     -7.878    609.354    610.700    611.531    609.354    609.354
 20.870    564.000    612.515    -48.515    608.904    610.282    611.137    608.904    608.904
 20.970    582.359    612.179    -29.820    608.456    609.890    610.746    608.456    608.456
 21.070    578.000    611.846    -33.846    608.010    609.496    610.360    608.010    608.010
 21.170    586.562    611.489    -24.928    607.566    609.078    609.977    607.566    607.566
 21.270    627.000    611.142     15.858    607.123    608.665    609.599    607.123    607.123
 21.370    661.005    610.800     50.205    606.681    608.255    609.227    606.681    606.681
 21.470    555.000    610.460    -55.460    606.242    607.845    608.857    606.242    606.242
 21.570    583.000    610.136    -27.136    605.804    607.448    608.491    605.804    605.804
 21.670    664.000    609.808     54.192    605.367    607.045    608.130    605.367    605.367
 21.770    593.000    609.488    -16.488    604.932    606.647    607.774    604.932    604.932
 21.870    629.597    609.176     20.421    604.500    606.253    607.423    604.500    604.500
 21.970    583.613    608.871    -25.258    604.068    605.861    607.078    604.068    604.068
 22.070    593.252    608.574    -15.322    603.639    605.475    606.738    603.639    603.639
 22.170    576.000    608.286    -32.286    603.211    605.093    606.404    603.211    603.211
 22.270    632.005    608.009     23.995    602.785    604.718    606.076    602.785    602.785
 22.370    584.261    607.743    -23.482    602.360    604.349    605.755    602.360    602.360
 22.470    597.000    607.489    -10.489    601.937    603.987    605.440    601.937    601.937
 22.570    595.000    607.249    -12.249    601.516    603.633    605.132    601.516    601.516
 22.670    572.000    607.025    -35.025    601.097    603.290    604.832    601.097    601.097
 22.770    635.000    606.823     28.177    600.680    602.961    604.542    600.680    600.680
 22.870    612.565    606.632      5.933    600.264    602.638    604.258    600.264    600.264
 22.970    651.284    606.462     44.821    599.850    602.330    603.982    599.850    599.850
 23.070    630.936    606.314     24.623    599.438    602.036    603.716    599.438    599.438
 23.170    574.574    606.192    -31.618    599.027    601.760    603.460    599.027    599.027
 23.270    640.032    606.101     33.931    598.619    601.506    603.214    598.619    598.619
 23.370    560.429    606.046    -45.617    598.212    601.280    602.979    598.212    598.212
 23.470    603.000    606.035     -3.035    597.806    601.086    602.756    597.806    597.806
 23.570    568.042    606.076    -38.034    597.403    600.935    602.545    597.403    597.403
 23.670    644.729    606.182     38.546    597.002    600.837    602.348    597.002    597.002
 23.770    644.000    606.371     37.629    596.602    600.808    602.166    596.602    596.602
 23.870    575.954    606.666    -30.712    596.204    600.872    601.999    596.204    596.204
 23.970    664.000    607.104     56.896    595.808    601.065    601.849    595.808    595.808
 24.070    573.020    607.751    -34.730    595.414    601.450    601.717    595.414    595.414
 24.170    650.694    608.740     41.954    595.021    602.161    601.604    595.021    595.021
 24.270    634.000    610.364     23.636    594.631    603.487    601.512    594.631    594.631
 24.370    610.967    613.228     -2.261    594.242    606.033    601.443    594.242    594.242
 24.470    654.386    618.382     36.004    593.855    610.848    601.400    593.855    593.855
 24.570    662.282    627.228     35.054    593.470    619.330    601.384    593.470    593.470
 24.670    689.000    640.873     48.127    593.087    632.588    601.398    593.087    593.087
 24.770    690.000    658.840     31.160    592.705    650.139    601.445    592.705    592.705
 24.870    749.000    677.168     71.832    592.326    668.017    601.528    592.326    592.326
 24.970    704.000    687.566     16.434    591.948    677.922    601.652    591.948    591.948
 25.070    666.485    683.377    -16.892    591.572    673.186    601.820    591.572    591.572
 25.170    650.000    667.882    -17.882    591.198    657.088    602.038    591.198    591.198
 25.270    693.565    649.622     43.943    590.826    638.169    602.312    590.826    590.826
 25.370    633.928    634.435     -0.507    590.456    622.264    602.647    590.456    590.456
 25.470    649.000    624.115     24.885    590.088    611.162    603.053    590.088    590.088
 25.570    624.000    618.091      5.909    589.722    604.281    603.539    589.722    589.722
 25.670    641.000    615.013     25.987    589.357    600.261    604.114    589.357    589.357
 25.770    611.000    613.671     -2.671    588.994    597.876    604.792    588.994    588.994
 25.870    577.003    613.295    -36.292    588.634    596.343    605.588    588.634    588.634
 25.970    641.000    613.497     27.503    588.275    595.253    606.521    588.275    588.275
 26.070    621.000    614.111      6.889    587.918    594.419    607.611    587.918    587.918
 26.170    659.000    615.076     43.924    587.563    593.753    608.886    587.563    587.563
 26.270    578.709    616.382    -37.673    587.210    593.214    610.378    587.210    587.210
 26.370    610.244    618.046     -7.802    586.859    592.777    612.127    586.859    586.859
 26.470    584.819    620.108    -35.289    586.509    592.431    614.186    586.509    586.509
 26.570    591.089    622.618    -31.529    586.162    592.168    616.612    586.162    586.162
 26.670    634.000    625.648      8.352    585.817    591.977    619.487    585.817    585.817
 26.770    603.000    629.308    -26.308    585.473    591.865    622.914    585.473    585.473
 26.870    660.000    633.742     26.258    585.132    591.841    627.030    585.132    585.132
 26.970    625.000    639.140    -14.140    584.792    591.916    632.012    584.792    584.792
 27.070    699.133    645.763     53.370    584.454    592.109    638.104    584.454    584.454
 27.170    657.000    653.975      3.025    584.118    592.448    645.641    584.118    584.118
 27.270    618.778    664.286    -45.509    583.785    592.972    655.093    583.785    583.785
 27.370    624.476    677.446    -52.969    583.453    593.741    667.150    583.453    583.453
 27.470    712.832    694.621     18.211    583.123    594.849    682.885    583.123    583.123
 27.570    730.000    717.989     12.011    582.795    596.470    704.300    582.795    582.795
 27.670    808.000    752.950     55.050    582.468    599.034    736.365    582.468    582.468
 27.770    833.736    815.585     18.152    582.144    603.817    793.880    582.144    582.144
 27.870    963.000    950.551     12.449    581.822    614.356    917.952    581.822    581.822
 27.970   1166.000   1254.785    -88.785    581.502    638.323   1197.824    581.502    581.502
 28.070   1826.000   1869.755    -43.755    581.184    686.918   1763.747    581.184    581.184
 28.170   2696.000   2881.309   -185.309    580.867    766.957   2694.782    580.867    580.867
 28.270   4005.000   4129.060   -124.060    580.553    865.820   3843.251    580.553    580.553
 28.370   5024.000   5085.893    -61.893    580.240    941.977   4723.697    580.240    580.240
 28.470   5377.000   5156.439    220.561    579.930    948.705   4787.459    579.930    579.930
 28.570   4427.000   4343.335     83.665    579.621    887.000   4035.962    579.621    579.621
 28.670   3300.000   3285.840     14.160    579.315    808.846   3056.378    579.315    579.315
 28.770   2584.178   2588.145     -3.967    579.010    763.774   2403.412    579.010    579.010
 28.870   2358.000   2451.354    -93.354    578.707    768.390   2261.650    578.707    578.707
 28.970   2803.378   2716.783     86.595    578.407    807.577   2487.588    578.407    578.407
 29.070   3034.000   3014.835     19.165    578.108    844.826   2748.169    578.108    578.108
 29.170   3094.000   2984.086    109.914    577.811    843.169   2718.890    577.811    577.811
 29.270   2666.000   2554.910    111.090    577.516    796.351   2336.289    577.516    577.516
 29.370   1968.000   1959.254      8.746    577.223    730.675   1805.989    577.223    577.223
 29.470   1409.832   1436.697    -26.866    576.932    672.946   1340.812    576.932    576.932
 29.570   1111.000   1082.444     28.556    576.643    633.816   1025.344    576.643    576.643
 29.670    888.480    881.623      6.857    576.356    611.675    846.341    576.356    576.356
 29.770    800.685    779.159     21.526    576.071    600.431    754.817    576.071    576.071
 29.870    852.000    726.808    125.192    575.788    594.747    707.859    575.788    575.788
 29.970    768.000    696.896     71.104    575.507    591.566    680.841    575.507    575.507
 30.070    711.000    677.174     33.826    575.228    589.551    662.854    575.228    575.228
 30.170    717.000    662.910     54.090    574.951    588.207    649.655    574.951    574.951
 30.270    770.000    652.247    117.753    574.675    587.379    639.542    574.675    574.675
 30.370    698.000    644.441     53.559    574.402    587.105    631.736    574.402    574.402
 30.470    639.000    639.460     -0.460    574.131    587.651    625.935    574.131    574.131
 30.570    658.000    638.089     19.911    573.861    589.668    622.274    573.861    573.861
 30.670    605.415    642.033    -36.618    573.594    594.282    621.330    573.594    573.594
 30.770    661.000    653.407      7.593    573.328    602.820    623.891    573.328    573.328
 30.870    728.279    673.114     55.165    573.065    615.880    630.261    573.065    573.065
 30.970    743.210    698.212     44.998    572.803    631.819    639.143    572.803    572.803
 31.070    696.000    719.605    -23.605    572.544    645.420    646.666    572.544    572.544
 31.170    753.798    724.324     29.475    572.286    649.213    647.335    572.286    572.286
 31.270    722.000    707.137     14.863    572.031    640.197    638.921    572.031    572.031
 31.370    714.488    677.719     36.769    571.777    623.990    625.470    571.777    571.777
 31.470    692.465    648.752     43.713    571.525    607.952    612.302    571.525    571.525
 31.570    644.000    626.725     17.275    571.275    595.852    602.135    571.275    571.275
 31.670    649.000    612.532     36.468    571.027    588.221    595.330    571.027    571.027
 31.770    654.000    604.280     49.720    570.781    583.975    591.081    570.781    570.781
 31.870    635.000    599.593     35.407    570.537    581.748    588.378    570.537    570.537
 31.970    610.000    596.758     13.242    570.295    580.558    586.491    570.295    570.295
 32.070    566.036    594.854    -28.818    570.055    579.880    585.026    570.055    570.055
 32.170    571.332    593.475    -22.142    569.817    579.486    583.803    569.817    569.817
 32.270    645.000    592.453     52.547    569.581    579.286    582.746    569.581    569.581
 32.370    609.000    591.721     17.279    569.346    579.249    581.816    569.346    569.346
 32.470    588.000    591.248     -3.248    569.114    579.366    580.995    569.114    569.114
 32.570    633.000    591.026     41.974    568.883    579.640    580.268    568.883    568.883
 32.670    633.899    591.063     42.835    568.655    580.087    579.630    568.655    568.655
 32.770    555.414    591.383    -35.969    568.428    580.734    579.076    568.428    568.428
 32.870    575.000    592.025    -17.025    568.204    581.620    578.607    568.204    568.204
 32.970    612.000    593.054     18.946    567.981    582.805    578.228    567.981    567.981
 33.070    609.403    594.566     14.837    567.760    584.374    577.949    567.760    567.760
 33.170    604.000    596.709      7.291    567.541    586.457    577.791    567.541    567.541
 33.270    624.000    599.742     24.258    567.324    589.276    577.787    567.324    567.324
 33.370    614.000    604.181      9.819    567.109    593.274    578.013    567.109    567.109
 33.470    636.000    611.180     24.820    566.896    599.435    578.637    566.896    566.896
 33.570    628.374    623.284      5.090    566.685    609.929    580.033    566.685    566.685
 33.670    656.000    645.471     10.529    566.475    629.001    582.935    566.475    566.475
 33.770    691.000    685.666      5.334    566.268    663.402    588.514    566.268    566.268
 33.870    741.000    753.041    -12.041    566.062    720.950    598.125    566.062    566.062
 33.970    855.000    852.693      2.307    565.858    805.991    612.518    565.858    565.858
 34.070   1030.000    977.003     52.997    565.657    912.034    630.569    565.657    565.657
 34.170   1137.000   1095.791     41.209    565.457   1013.367    647.817    565.457    565.457
 34.270   1217.897   1156.253     61.644    565.259   1065.000    656.456    565.259    565.259
 34.370   1057.272   1121.409    -64.137    565.063   1035.417    651.022    565.063    565.063
 34.470    949.308   1014.153    -64.845    564.868    944.116    634.895    564.868    564.868
 34.570    910.000    887.192     22.808    564.676    836.006    615.863    564.676    564.676
 34.670    763.321    778.004    -14.683    564.485    743.028    599.466    564.485    564.485
 34.770    708.000    700.217      7.783    564.297    676.799    587.719    564.297    564.297
 34.870    618.465    651.743    -33.278    564.110    635.542    580.313    564.110    564.110
 34.970    650.000    624.046     25.954    563.925    611.985    575.987    563.925    563.925
 35.070    645.000    608.585     36.415    563.742    598.848    573.478    563.742    563.742
 35.170    604.377    599.496      4.882    563.561    591.136    571.919    563.561    563.561
 35.270    616.000    593.583     22.417    563.381    586.125    570.839    563.381    563.381
 35.370    601.000    589.341     11.659    563.204    582.531    570.014    563.204    563.204
 35.470    582.959    586.095     -3.136    563.028    579.777    569.345    563.028    563.028
 35.570    569.629    583.517    -13.888    562.854    577.587    568.784    562.854    562.854
 35.670    595.000    581.426     13.574    562.682    575.803    568.305    562.682    562.682
 35.770    565.000    579.706    -14.706    562.512    574.327    567.891    562.512    562.512
 35.870    574.853    578.275     -3.422    562.344    573.088    567.530    562.344    562.344
 35.970    580.198    577.075      3.124    562.177    572.036    567.215    562.177    562.177
 36.070    586.000    576.063      9.937    562.013    571.133    566.942    562.013    562.013
 36.170    576.000    575.209      0.791    561.850    570.352    566.706    561.850    561.850
 36.270    576.000    574.491      1.509    561.689    569.672    566.507    561.689    561.689
 36.370    625.000    573.891     51.109    561.529    569.076    566.344    561.529    561.529
 36.470    539.000    573.402    -34.402    561.372    568.554    566.219    561.372    561.372
 36.570    596.819    573.016     23.803    561.216    568.095    566.137    561.216    561.216
 36.670    588.000    572.733     15.267    561.062    567.695    566.100    561.062    561.062
 36.770    600.195    572.558     27.638    560.910    567.349    566.118    560.910    560.910
 36.870    590.000    572.501     17.499    560.760    567.060    566.201    560.760    560.760
 36.970    538.000    572.586    -34.586    560.611    566.832    566.364    560.611    560.611
 37.070    524.000    572.852    -48.852    560.464    566.686    566.630    560.464    560.464
 37.170    566.000    573.377     -7.377    560.319    566.661    567.035    560.319    560.319
 37.270    603.418    574.309     29.109    560.176    566.838    567.646    560.176    560.176
 37.370    560.742    575.913    -15.171    560.034    567.347    568.600    560.034    560.034
 37.470    561.000    578.647    -17.647    559.895    568.355    570.186    559.895    559.895
 37.570    612.000    583.242     28.758    559.757    570.021    572.977    559.757    559.757
 37.670    587.838    590.730     -2.891    559.620    572.392    577.957    559.620    559.620
 37.770    597.662    602.270     -4.608    559.486    575.261    586.494    559.486    559.486
 37.870    592.100    618.605    -26.505    559.353    578.004    599.952    559.353    559.353
 37.970    688.000    639.217     48.783    559.222    579.605    618.830    559.222    559.222
 38.070    669.252    661.743      7.509    559.092    579.307    641.524    559.092    559.092
 38.170    725.000    681.357     43.643    558.965    577.336    662.982    558.965    558.965
 38.270    681.000    690.534     -9.534    558.839    574.518    674.853    558.839    558.839
 38.370    651.000    683.688    -32.688    558.714    571.560    670.844    558.714    558.714
 38.470    674.000    663.569     10.431    558.592    568.913    653.251    558.592    558.592
 38.570    625.000    638.501    -13.501    558.471    566.814    630.161    558.471    558.471
 38.670    640.000    615.490     24.510    558.352    565.295    608.550    558.352    558.352
 38.770    565.439    597.792    -32.353    558.234    564.258    591.771    558.234    558.234
 38.870    555.452    585.775    -30.323    558.118    563.564    580.331    558.118    558.118
 38.970    527.000    578.309    -51.309    558.004    563.093    573.222    558.004    558.004
 39.070    585.993    573.879     12.114    557.892    562.756    569.016    557.892    557.892
 39.170    566.000    571.222     -5.222    557.781    562.498    566.505    557.781    557.781
 39.270    549.528    569.519    -19.991    557.672    562.289    564.902    557.672    557.672
 39.370    533.835    568.326    -34.491    557.564    562.112    563.778    557.564    557.564
 39.470    572.000    567.419      4.581    557.458    561.956    562.921    557.458    557.458
 39.570    566.000    566.699     -0.699    557.354    561.820    562.233    557.354    557.354
 39.670    552.645    566.113    -13.467    557.251    561.703    561.661    557.251    557.251
 39.770    564.000    565.626     -1.626    557.150    561.600    561.176    557.150    557.150
 39.870    570.000    565.217      4.783    557.050    561.511    560.757    557.050    557.050
 39.970    559.000    564.872     -5.872    556.953    561.434    560.391    556.953    556.953
 40.070    604.000    564.579     39.421    556.856    561.369    560.067    556.856    556.856
 40.170    578.000    564.331     13.669    556.762    561.316    559.777    556.762    556.762
 40.270    540.000    564.122    -24.122    556.669    561.275    559.515    556.669    556.669
 40.370    516.291    563.947    -47.656    556.577    561.247    559.277    556.577    556.577
 40.470    596.761    563.804     32.957    556.487    561.232    559.059    556.487    556.487
 40.570    552.000    563.691    -11.691    556.399    561.232    558.858    556.399    556.399
 40.670    512.000    563.607    -51.607    556.312    561.247    558.672    556.312    556.312
 40.770    604.218    563.552     40.666    556.227    561.280    558.499    556.227    556.227
 40.870    597.000    563.527     33.473    556.143    561.332    558.338    556.143    556.143
 40.970    609.424    563.533     45.892    556.061    561.407    558.187    556.061    556.061
 41.070    564.000    563.573      0.427    555.980    561.509    558.045    555.980    555.980
 41.170    539.000    563.652    -24.652    555.901    561.641    557.912    555.901    555.901
 41.270    548.958    563.774    -14.816    555.823    561.810    557.788    555.823    555.823
 41.370    610.310    563.948     46.362    555.747    562.025    557.671    555.747    555.747
 41.470    525.000    564.183    -39.183    555.672    562.294    557.562    555.672    555.672
 41.570    565.000    564.493      0.507    555.599    562.633    557.461    555.599    555.599
 41.670    515.264    564.900    -49.636    555.528    563.062    557.368    555.528    555.528
 41.770    558.000    565.436     -7.436    555.458    563.611    557.284    555.458    555.458
 41.870    564.000    566.156     -2.156    555.389    564.336    557.211    555.389    555.389
 41.970    530.000    567.171    -37.171    555.322    565.343    557.153    555.322    555.322
 42.070    576.982    568.705      8.277    555.256    566.848    557.117    555.256    555.256
 42.170    551.000    571.186    -20.186    555.192    569.262    557.119    555.192    555.192
 42.270    537.000    575.347    -38.347    555.129    573.296    557.186    555.129    555.129
 42.370    535.000    582.263    -47.263    555.067    579.982    557.357    555.067    555.067
 42.470    597.000    593.166      3.834    555.007    590.511    557.677    555.007    555.007
 42.570    612.000    608.969      3.031    554.949    605.760    558.179    554.949    554.949
 42.670    641.930    629.484     12.446    554.892    625.549    558.856    554.892    554.892
 42.770    614.000    652.469    -38.469    554.836    647.719    559.626    554.836    554.836
 42.870    684.000    672.736     11.264    554.781    667.270    560.300    554.781    554.781
 42.970    649.000    682.844    -33.844    554.728    677.027    560.604    554.728    554.728
 43.070    727.146    677.943     49.203    554.677    672.317    560.362    554.677    554.677
 43.170    607.441    660.602    -53.161    554.627    655.614    559.667    554.627    554.627
 43.270    682.163    637.951     44.211    554.578    633.791    558.780    554.578    554.578
 43.370    628.000    616.163     11.837    554.530    612.797    557.928    554.530    554.530
 43.470    619.002    598.497     20.505    554.484    595.775    557.228    554.484    554.484
 43.570    620.000    585.808     34.192    554.439    583.549    556.713    554.439    554.439
 43.670    568.000    577.504     -9.504    554.396    575.550    556.360    554.396    554.396
 43.770    542.000    572.410    -30.410    554.354    570.644    556.127    554.354    554.354
 43.870    574.000    569.367      4.633    554.313    567.714    555.971    554.313    554.313
 43.970    594.492    567.512     26.980    554.274    565.928    555.861    554.274    554.274
 44.070    530.436    566.312    -35.876    554.235    564.773    555.777    554.235    554.235
 44.170    567.000    565.479      1.521    554.198    563.971    555.709    554.198    554.198
 44.270    560.000    564.866     -4.866    554.163    563.380    555.651    554.163    554.163
 44.370    561.241    564.400     -3.159    554.129    562.930    555.600    554.129    554.129
 44.470    570.000    564.042      5.958    554.096    562.583    555.556    554.096    554.096
 44.570    522.707    563.767    -41.060    554.064    562.315    555.517    554.064    554.064
 44.670    520.000    563.559    -43.559    554.033    562.111    555.482    554.033    554.033
 44.770    521.000    563.406    -42.406    554.004    561.959    555.452    554.004    554.004
 44.870    572.924    563.301      9.623    553.976    561.850    555.427    553.976    553.976
 44.970    604.000    563.235     40.765    553.949    561.780    555.404    553.949    553.949
 45.070    561.000    563.205     -2.205    553.923    561.742    555.386    553.923    553.923
 45.170    606.960    563.206     43.753    553.899    561.734    555.371    553.899    553.899
 45.270    548.000    563.237    -15.237    553.876    561.753    555.360    553.876    553.876
 45.370    572.000    563.296      8.704    553.854    561.797    555.353    553.854    553.854
 45.470    580.819    563.381     17.438    553.833    561.865    555.349    553.833    553.833
 45.570    562.000    563.491     -1.491    553.813    561.956    555.349    553.813    553.813
 45.670    530.000    563.628    -33.628    553.795    562.070    555.353    553.795    553.795
 45.770    578.757    563.790     14.966    553.778    562.207    555.360    553.778    553.778
 45.870    574.608    563.980     10.628    553.762    562.369    555.373    553.762    553.762
 45.970    575.000    564.199     10.801    553.747    562.555    555.389    553.747    553.747
 46.070    513.179    564.447    -51.268    553.733    562.769    555.411    553.733    553.733
 46.170    577.655    564.730     12.925    553.720    563.012    555.437    553.720    553.720
 46.270    586.670    565.048     21.621    553.708    563.286    555.470    553.708    553.708
 46.370    610.000    565.408     44.592    553.698    563.597    555.508    553.698    553.698
 46.470    575.000    565.814      9.186    553.689    563.949    555.553    553.689    553.689
 46.570    565.000    566.274     -1.274    553.680    564.348    555.606    553.680    553.680
 46.670    601.743    566.797     34.945    553.673    564.802    555.667    553.673    553.673
 46.770    607.510    567.395     40.114    553.667    565.322    555.738    553.667    553.667
 46.870    570.000    568.088      1.912    553.662    565.926    555.822    553.662    553.662
 46.970    564.203    568.904     -4.700    553.658    566.640    555.920    553.658    553.658
 47.070    553.000    569.897    -16.897    553.655    567.512    556.038    553.655    553.655
 47.170    591.771    571.168     20.603    553.653    568.633    556.185    553.653    553.653
 47.270    541.923    572.900    -30.977    553.652    570.170    556.377    553.652    553.652
 47.370    611.381    575.406     35.975    553.652    572.408    556.644    553.652    553.652
 47.470    583.000    579.163      3.837    553.653    575.779    557.028    553.653    553.653
 47.570    534.000    584.787    -50.787    553.655    580.846    557.585    553.655    553.655
 47.670    590.000    592.912     -2.912    553.658    588.183    558.370    553.658    553.658
 47.770    637.000    603.928     33.072    553.662    598.144    559.421    553.662    553.662
 47.870    610.000    617.625     -7.625    553.668    610.539    560.719    553.668    553.668
 47.970    659.455    632.780     26.675    553.674    624.252    562.157    553.674    553.674
 48.070    637.000    646.801     -9.801    553.681    636.920    563.508    553.681    553.681
 48.170    669.000    655.974     13.026    553.689    645.162    564.444    553.689    553.689
 48.270    666.000    657.264      8.736    553.697    646.207    564.698    553.697    553.697
 48.370    677.000    650.705     26.295    553.707    640.086    564.277    553.707    553.707
 48.470    616.000    639.401    -23.401    553.718    629.620    563.460    553.718    553.718
 48.570    619.000    627.117     -8.117    553.730    618.232    562.584    553.730    553.730
 48.670    614.000    616.502     -2.502    553.742    608.331    561.891    553.742    553.742
 48.770    640.095    608.849     31.246    553.756    601.085    561.504    553.756    553.756
 48.870    598.000    604.456     -6.456    553.770    596.758    561.457    553.770    553.770
 48.970    589.789    603.049    -13.260    553.785    595.085    561.741    553.785    553.785
 49.070    603.000    604.154     -1.154    553.801    595.617    562.332    553.801    553.801
 49.170    579.000    607.385    -28.385    553.818    597.976    563.222    553.818    553.818
 49.270    578.000    612.668    -34.668    553.836    602.047    564.452    553.836    553.836
 49.370    578.000    620.506    -42.506    553.854    608.190    566.165    553.854    553.854
 49.470    593.031    632.552    -39.520    553.874    617.690    568.728    553.874    553.874
 49.570    667.815    652.806     15.009    553.894    633.695    572.993    553.894    553.894
 49.670    641.000    689.632    -48.632    553.915    662.808    580.719    553.915    553.915
 49.770    732.000    758.092    -26.092    553.937    716.925    595.069    553.937    553.937
 49.870    844.000    880.730    -36.730    553.959    813.854    620.773    553.959    553.959
 49.970   1011.000   1083.662    -72.662    553.983    974.232    663.312    553.983    553.983
 50.070   1338.000   1385.445    -47.445    554.007   1212.733    726.575    554.007    554.007
 50.170   1751.000   1780.042    -29.042    554.032   1524.642    809.251    554.032    554.032
 50.270   2177.000   2220.675    -43.675    554.058   1872.974    901.569    554.058    554.058
 50.370   2562.775   2613.518    -50.743    554.084   2183.555    983.895    554.084    554.084
 50.470   2729.146   2836.852   -107.706    554.111   2360.280   1030.625    554.111    554.111
 50.570   2899.465   2804.177     95.287    554.139   2334.811   1023.568    554.139    554.139
 50.670   2449.864   2530.694    -80.830    554.168   2119.160    965.859    554.168    554.168
 50.770   2131.000   2119.396     11.604    554.197   1794.747    879.043    554.197    554.197
 50.870   1640.000   1688.509    -48.509    554.227   1455.065    787.861    554.227    554.227
 50.970   1254.000   1320.749    -66.749    554.258   1165.549    709.613    554.258    554.258
 51.070   1006.000   1051.799    -45.799    554.289    954.430    651.772    554.289    554.289
 51.170    862.000    879.739    -17.739    554.321    820.142    613.997    554.321    554.321
 51.270    766.000    782.144    -16.144    554.354    744.786    591.767    554.354    554.354
 51.370    714.000    731.823    -17.823    554.387    706.535    579.717    554.387    554.387
 51.470    675.476    706.180    -30.704    554.421    687.051    573.585    554.421    554.421
 51.570    679.000    690.469    -11.469    554.455    674.241    570.714    554.455    554.455
 51.670    699.909    677.521     22.388    554.490    662.294    569.744    554.490    554.490
 51.770    696.816    665.488     31.328    554.526    649.979    570.056    554.526    554.526
 51.870    664.000    654.854      9.146    554.563    638.112    571.320    554.563    554.563
 51.970    640.000    646.315     -6.315    554.599    627.743    573.180    554.599    554.599
 52.070    652.000    639.986     12.014    554.637    619.515    575.111    554.637    554.637
 52.170    663.000    635.353     27.647    554.675    613.624    576.405    554.675    554.675
 52.270    677.000    631.626     45.374    554.714    609.949    576.389    554.714    554.714
 52.370    641.000    628.319     12.681    554.753    608.221    574.850    554.753    554.753
 52.470    676.000    625.584     50.416    554.793    608.171    572.204    554.793    554.793
 52.570    606.000    623.996    -17.996    554.833    609.675    569.152    554.833    554.833
 52.670    668.899    624.287     44.612    554.874    612.871    566.289    554.874    554.874
 52.770    628.000    627.358      0.642    554.915    618.306    563.966    554.915    554.915
 52.870    599.547    634.500    -34.953    554.957    627.137    562.319    554.957    554.957
 52.970    659.000    647.687     11.313    554.999    641.346    561.338    554.999    554.999
 53.070    719.787    669.792     49.994    555.042    663.880    560.951    555.042    555.042
 53.170    759.609    704.515     55.094    555.085    698.508    561.087    555.085    555.085
 53.270    790.854    755.749     35.105    555.129    749.164    561.706    555.129    555.129
 53.370    842.000    826.313     15.687    555.173    818.693    562.782    555.173    555.173
 53.470    892.000    916.121    -24.121    555.217    907.088    564.238    555.217    555.217
 53.570    979.048   1020.232    -41.184    555.262   1009.495    565.987    555.262    555.262
 53.670   1134.000   1126.770      7.230    555.308   1114.220    567.846    555.308    555.308
 53.770   1272.619   1215.726     56.893    555.353   1201.668    569.405    555.353    555.353
 53.870   1252.000   1262.953    -10.953    555.400   1248.143    570.211    555.400    555.400
 53.970   1225.000   1252.529    -27.529    555.446   1238.017    569.969    555.446    555.446
 54.070   1136.408   1188.562    -52.154    555.493   1175.321    568.753    555.493    555.493
 54.170   1148.656   1091.643     57.013    555.541   1080.266    566.939    555.541    555.541
 54.270    911.000    985.121    -74.121    555.588    975.774    564.956    555.588    555.588
 54.370    834.000    886.060    -52.060    555.636    878.597    563.117    555.636    555.636
 54.470    763.226    803.701    -40.475    555.685    797.809    561.591    555.685    555.685
 54.570    731.000    741.014    -10.014    555.733    736.327    560.431    555.733    555.733
 54.670    694.258    696.766     -2.508    555.782    692.942    559.614    555.782    555.782
 54.770    700.000    667.505     32.495    555.832    664.266    559.076    555.832    555.832
 54.870    657.000    649.191      7.809    555.881    646.334    558.742    555.881    555.881
 54.970    671.988    638.251     33.737    555.931    635.639    558.545    555.931    555.931
 55.070    656.000    632.033     23.967    555.982    629.578    558.438    555.982    555.982
 55.170    643.103    628.806     14.297    556.032    626.453    558.386    556.032    556.032
 55.270    664.000    627.565     36.435    556.083    625.278    558.370    556.083    556.083
 55.370    592.000    627.787    -35.787    556.134    625.539    558.381    556.134    556.134
 55.470    588.867    629.240    -40.373    556.185    627.011    558.413    556.185    556.185
 55.570    642.000    631.871     10.129    556.237    629.643    558.464    556.237    556.237
 55.670    637.000    635.763      1.237    556.288    633.516    558.534    556.288    556.288
 55.770    673.000    641.144     31.856    556.340    638.860    558.624    556.340    556.340
 55.870    613.000    648.493    -35.493    556.392    646.146    558.738    556.392    556.392
 55.970    671.000    658.752     12.248    556.444    656.308    558.885    556.444    556.444
 56.070    665.000    673.727     -8.727    556.497    671.135    559.084    556.497    556.497
 56.170    665.000    696.705    -31.705    556.550    693.882    559.365    556.550    556.550
 56.270    723.000    733.222    -10.222    556.602    730.028    559.782    556.602    556.602
 56.370    774.000    791.682    -17.682    556.655    787.896    560.418    556.655    556.655
 56.470    846.810    883.287    -36.477    556.708    878.578    561.381    556.708    556.708
 56.570    998.182   1020.535    -22.353    556.762   1014.450    562.793    556.762    556.762
 56.670   1169.000   1213.802    -44.802    556.815   1205.792    564.757    556.815    556.815
 56.770   1464.000   1466.198     -2.198    556.869   1455.687    567.301    556.869    556.869
 56.870   1792.000   1767.708     24.292    556.922   1754.221    570.331    556.922    556.922
 56.970   2163.000   2089.962     73.038    556.976   2073.308    573.570    556.976    556.976
 57.070   2299.877   2383.441    -83.565    557.030   2363.915    576.541    557.030    557.030
 57.170   2701.000   2582.603    118.397    557.083   2561.132    578.606    557.083    557.083
 57.270   2694.810   2628.859     65.951    557.137   2606.922    579.198    557.137    557.137
 57.370   2592.000   2506.430     85.570    557.191   2485.631    578.167    557.191    557.191
 57.470   2275.000   2255.031     19.969    557.245   2236.571    575.902    557.245    557.245
 57.570   2006.000   1941.609     64.391    557.299   1926.037    573.061    557.299    557.299
 57.670   1515.000   1626.205   -111.205    557.353   1613.483    570.237    557.353    557.353
 57.770   1365.059   1348.313     16.746    557.407   1338.010    567.838    557.407    557.407
 57.870   1119.000   1127.099     -8.099    557.461   1118.558    566.094    557.461    557.461
 57.970    919.000    965.917    -46.917    557.515    958.364    565.130    557.515    557.515
 58.070    881.000    858.172     22.828    557.569    850.722    565.057    557.569    557.569
 58.170    835.000    793.176     41.824    557.623    784.756    566.063    557.623    557.623
 58.270    711.344    760.756    -49.411    557.677    749.953    568.484    557.677    557.677
 58.370    765.000    753.747     11.253    557.731    738.670    572.800    557.731    557.731
 58.470    797.000    768.410     28.590    557.785    746.666    579.509    557.785    557.785
 58.570    820.000    803.359     16.641    557.839    772.275    588.891    557.839    557.839
 58.670    798.000    857.729    -59.729    557.893    814.881    600.700    557.893    557.893
 58.770    876.744    929.272    -52.528    557.947    873.270    613.900    557.947    557.947
 58.870    919.000   1012.784    -93.784    558.000    944.172    626.564    558.000    558.000
 58.970   1167.590   1099.403     68.187    558.054   1021.375    636.042    558.054    558.054
 59.070   1165.000   1178.041    -13.041    558.107   1096.396    639.727    558.107    558.107
 59.170   1183.000   1239.616    -56.616    558.160   1161.297    636.474    558.160    558.160
 59.270   1321.814   1279.772     42.042    558.213   1210.559    627.440    558.213    558.213
 59.370   1310.000   1296.412     13.588    558.266   1239.483    615.228    558.266    558.266
 59.470   1283.000   1288.076     -5.076    558.319   1243.977    602.462    558.319    558.319
 59.570   1287.506   1257.951     29.556    558.372   1225.318    591.047    558.372    558.372
 59.670   1254.000   1217.019     36.981    558.424   1193.474    581.996    558.424    558.424
 59.770   1138.305   1179.954    -41.649    558.477   1162.905    575.522    558.477    558.477
 59.870   1218.000   1159.029     58.971    558.529   1146.232    571.283    558.529    558.529
 59.970   1230.119   1161.908     68.211    558.581   1151.716    568.685    558.581    558.581
 60.070   1128.632   1192.525    -63.893    558.633   1183.882    567.139    558.633    558.633
 60.170   1209.302   1251.649    -42.347    558.684   1243.939    566.209    558.684    558.684
 60.270   1382.230   1335.005     47.225    558.735   1327.883    565.632    558.735    558.735
 60.370   1520.000   1430.522     89.478    558.787   1423.785    565.266    558.787    558.787
 60.470   1516.000   1517.496     -1.496    558.837   1511.022    565.041    558.837    558.837
 60.570   1592.000   1569.816     22.184    558.888   1563.530    564.916    558.888    558.888
 60.670   1599.000   1565.274     33.726    558.938   1559.120    564.869    558.938    558.938
 60.770   1427.585   1497.903    -70.318    558.988   1491.823    564.889    558.988    558.988
 60.870   1412.732   1381.786     30.946    559.038   1375.708    564.984    559.038    559.038
 60.970   1285.000   1241.577     43.423    559.088   1235.402    565.170    559.088    559.088
 61.070   1154.575   1100.737     53.838    559.137   1094.336    565.476    559.137    559.137
 61.170   1010.000    976.009     33.991    559.186    969.207    565.945    559.186    559.186
 61.270    823.000    876.705    -53.705    559.234    869.252    566.656    559.234    559.234
 61.370    805.000    806.008     -1.008    559.282    797.514    567.751    559.282    559.282
 61.470    775.000    763.205     11.795    559.330    753.042    569.467    559.330    559.330
 61.570    780.000    746.198     33.802    559.378    733.367    572.177    559.378    559.378
 61.670    806.000    753.548     52.452    559.425    736.527    576.403    559.425    559.425
 61.770    768.000    785.464    -17.464    559.472    762.084    582.794    559.472    559.472
 61.870    871.030    843.488     27.542    559.518    810.913    592.012    559.518    559.518
 61.970    937.000    929.020      7.980    559.565    883.930    604.545    559.565    559.565
 62.070   1034.000   1041.138     -7.138    559.610    980.162    620.444    559.610    559.610
 62.170   1112.000   1174.333    -62.333    559.656   1094.752    639.059    559.656    559.656
 62.270   1352.000   1316.725     35.275    559.700   1217.382    658.835    559.700    559.700
 62.370   1462.000   1449.219     12.781    559.745   1331.525    677.212    559.745    559.745
 62.470   1473.612   1546.839    -73.226    559.789   1415.578    690.824    559.789    559.789
 62.570   1530.000   1585.319    -55.319    559.833   1448.558    696.391    559.833    559.833
 62.670   1462.000   1553.300    -91.300    559.876   1420.632    692.383    559.876    559.876
 62.770   1436.786   1459.895    -23.109    559.919   1339.662    680.038    559.919    559.919
 62.870   1382.757   1328.358     54.400    559.961   1225.734    662.514    559.961    559.961
 62.970   1113.802   1183.848    -70.045    560.003   1100.588    643.224    560.003    560.003
 63.070    987.191   1046.102    -58.911    560.044    981.281    624.848    560.044    560.044
 63.170    969.029    927.532     41.497    560.085    878.538    609.074    560.085    560.085
 63.270    803.746    833.722    -29.976    560.125    797.183    596.663    560.125    560.125
 63.370    721.181    764.874    -43.693    560.165    737.391    587.648    560.165    560.165
 63.470    739.000    717.825     21.175    560.204    696.421    581.605    560.204    560.204
 63.570    703.000    687.913     15.087    560.243    670.240    577.910    560.243    560.243
 63.670    697.000    670.583     26.417    560.281    654.901    575.954    560.281    560.281
 63.770    656.000    662.331     -6.331    560.319    647.357    575.280    560.319    560.319
 63.870    605.557    661.091    -55.534    560.356    645.781    575.650    560.356    560.356
 63.970    687.000    666.253     20.747    560.393    649.559    577.066    560.393    560.393
 64.070    727.894    678.499     49.395    560.429    659.116    579.785    560.429    560.429
 64.170    729.570    699.523     30.046    560.464    675.627    584.324    560.464    560.464
 64.270    748.437    731.637     16.800    560.499    700.647    591.440    560.499    560.499
 64.370    793.048    777.201     15.847    560.534    735.609    602.058    560.534    560.534
 64.470    890.667    837.859     52.809    560.567    781.223    617.114    560.567    560.567
 64.570    998.000    913.607     84.393    560.600    836.802    637.292    560.600    560.600
 64.670   1022.000   1001.814     20.186    560.633    899.618    662.690    560.633    560.633
 64.770   1113.305   1096.348     16.957    560.665    964.381    692.471    560.665    560.665
 64.870   1223.000   1187.223     35.777    560.696   1023.173    724.570    560.696    560.696
 64.970   1277.000   1261.610     15.390    560.727   1066.604    755.553    560.727    560.727
 65.070   1326.000   1306.917     19.083    560.757   1086.713    780.791    560.757    560.757
 65.170   1269.525   1314.982    -45.457    560.786   1080.293    795.328    560.786    560.786
 65.270   1290.000   1285.040      4.960    560.815   1050.067    795.671    560.815    560.815
 65.370   1238.844   1223.999     14.845    560.843   1003.105    781.653    560.843    560.843
 65.470   1177.942   1143.811     34.131    560.870    948.046    756.583    560.870    560.870
 65.570   1117.311   1057.180     60.131    560.897    892.575    725.474    560.897    560.897
 65.670   1009.000    974.107     34.893    560.922    841.942    693.081    560.922    560.922
 65.770    900.000    900.610     -0.610    560.948    798.644    662.921    560.948    560.948
 65.870    805.170    839.098    -33.928    560.972    762.972    637.113    560.972    560.972
 65.970    776.000    789.549    -13.549    560.996    734.031    616.532    560.996    560.996
 66.070    740.847    750.750     -9.903    561.019    710.689    601.099    561.019    561.019
 66.170    706.618    721.095    -14.477    561.041    692.027    590.125    561.041    561.041
 66.270    681.000    698.922    -17.922    561.063    677.344    582.653    561.063    561.063
 66.370    727.484    682.695     44.789    561.084    666.072    577.716    561.084    561.084
 66.470    629.549    671.139    -41.590    561.104    657.755    574.492    561.104    561.104
 66.570    645.000    663.301    -18.301    561.123    652.057    572.369    561.123    561.123
 66.670    588.000    658.542    -70.542    561.142    648.756    570.928    561.142    561.142
 66.770    642.523    656.483    -13.960    561.159    647.734    569.908    561.159    561.159
 66.870    642.000    656.975    -14.975    561.176    648.993    569.157    561.176    561.176
 66.970    611.217    660.139    -48.922    561.193    652.739    568.591    561.193    561.193
 67.070    683.000    666.491     16.509    561.208    659.525    568.172    561.208    561.208
 67.170    632.287    677.136    -44.849    561.223    670.466    567.889    561.223    561.223
 67.270    705.000    694.039     10.961    561.236    687.516    567.754    561.236    561.236
 67.370    766.540    720.313     46.227    561.249    713.752    567.801    561.249    561.249
 67.470    688.000    760.422    -72.422    561.261    753.584    568.086    561.261    561.261
 67.570    795.000    820.155    -25.155    561.273    812.722    568.686    561.273    561.273
 67.670    905.000    906.165     -1.165    561.283    897.732    569.691    561.283    561.283
 67.770    949.000   1024.924    -75.924    561.293   1014.997    571.189    561.293    561.293
 67.870   1114.000   1181.076    -67.076    561.301   1169.101    573.242    561.301    561.301
 67.970   1417.383   1375.367     42.016    561.309   1360.786    575.860    561.309    561.309
 68.070   1652.000   1602.535     49.465    561.316   1584.870    578.964    561.316    561.316
 68.170   1817.011   1849.517    -32.506    561.322   1828.480    582.366    561.322    561.322
 68.270   2038.000   2094.292    -56.292    561.327   2069.918    585.748    561.327    561.327
 68.370   2340.000   2306.067     33.933    561.332   2278.828    588.670    561.332    561.332
 68.470   2491.549   2449.053     42.497    561.335   2419.931    590.619    561.335    561.335
 68.570   2397.323   2492.870    -95.548    561.337   2463.271    591.159    561.337    561.337
 68.670   2288.000   2426.902   -138.902    561.339   2398.367    590.136    561.339    561.339
 68.770   2268.000   2266.623      1.377    561.340   2240.468    587.773    561.340    561.340
 68.870   2036.000   2044.817     -8.817    561.339   2021.891    584.535    561.339    561.339
 68.970   1829.000   1797.036     31.964    561.338   1777.686    580.932    561.338    561.338
 69.070   1450.000   1552.465   -102.465    561.336   1536.630    577.379    561.336    561.336
 69.170   1274.000   1331.210    -57.210    561.333   1318.548    574.163    561.333    561.333
 69.270   1153.000   1144.569      8.431    561.329   1134.582    571.446    561.329    561.329
 69.370    971.119    996.370    -25.251    561.324    988.507    569.283    561.324    561.324
 69.470    937.160    884.849     52.310    561.318    878.589    567.647    561.318    561.318
 69.570    837.000    804.788     32.212    561.311    799.683    566.464    561.311    561.311
 69.670    839.000    749.518     89.482    561.303    745.215    565.638    561.303    561.303
 69.770    783.000    712.444     70.556    561.294    708.688    565.072    561.294    561.294
 69.870    733.874    687.974     45.900    561.284    684.583    564.690    561.284    561.284
 69.970    665.000    671.846     -6.846    561.273    668.698    564.432    561.273    561.273
 70.070    716.000    661.093     54.907    561.261    658.107    564.253    561.261    561.261
 70.170    673.000    653.794     19.206    561.248    650.921    564.126    561.248    561.248
 70.270    698.000    648.789     49.211    561.234    645.990    564.035    561.234    561.234
 70.370    703.000    645.410     57.590    561.219    642.660    563.970    561.219    561.219
 70.470    654.635    643.304     11.332    561.203    640.581    563.925    561.203    561.203
 70.570    672.000    642.313     29.687    561.186    639.596    563.901    561.186    561.186
 70.670    644.000    642.419      1.581    561.168    639.688    563.896    561.168    561.168
 70.770    634.211    643.742     -9.531    561.149    640.973    563.913    561.149    561.149
 70.870    680.000    646.572     33.428    561.129    643.734    563.959    561.129    561.129
 70.970    605.281    651.446    -46.164    561.108    648.498    564.045    561.108    561.108
 71.070    710.000    659.267     50.733    561.085    656.150    564.189    561.085    561.085
 71.170    705.000    671.440     33.560    561.062    668.066    564.418    561.062    561.062
 71.270    754.000    690.017     63.983    561.037    686.256    564.772    561.037    561.037
 71.370    680.707    717.776    -37.069    561.012    713.443    565.308    561.012    561.012
 71.470    812.667    758.177     54.489    560.985    753.018    566.093    560.985    560.985
 71.570    758.253    815.101    -56.848    560.958    808.784    567.205    560.958    560.958
 71.670    925.124    892.305     32.819    560.929    884.423    568.716    560.929    560.929
 71.770   1000.814    992.606      8.208    560.899    982.697    570.684    560.899    560.899
 71.870   1112.000   1116.850     -4.850    560.868   1104.436    573.126    560.868    560.868
 71.970   1260.000   1262.847     -2.847    560.836   1247.493    575.999    560.836    560.836
 72.070   1481.000   1424.415     56.585    560.803   1405.809    579.185    560.803    560.803
 72.170   1533.000   1590.683    -57.683    560.768   1568.730    582.470    560.768    560.768
 72.270   1779.000   1745.857     33.143    560.733   1720.777    585.545    560.733    560.733
 72.370   1887.631   1870.164     17.467    560.696   1842.567    588.025    560.696    560.696
 72.470   2013.512   1943.347     70.165    560.658   1914.242    589.513    560.658    560.658
 72.570   1974.000   1951.203     22.797    560.620   1921.874    589.730    560.620    560.620
 72.670   1901.000   1891.988      9.012    560.580   1863.745    588.644    560.580    560.580
 72.770   1752.112   1777.353    -25.241    560.538   1751.272    586.482    560.538    560.538
 72.870   1667.000   1626.841     40.159    560.496   1603.610    583.626    560.496    560.496
 72.970   1441.505   1460.830    -19.325    560.453   1440.740    580.473    560.453    560.453
 73.070   1349.681   1296.214     53.467    560.408   1279.229    577.346    560.408    560.408
 73.170   1126.273   1144.997    -18.724    560.362   1130.857    574.472    560.362    560.362
 73.270    997.000   1014.378    -17.378    560.315   1002.693    571.980    560.315    560.315
 73.370    887.000    907.379    -20.379    560.267    897.710    569.923    560.267    560.267
 73.470    779.000    823.761    -44.761    560.218    815.675    568.294    560.218    560.218
 73.570    748.112    761.089    -12.977    560.167    754.195    567.054    560.167    560.167
 73.670    769.267    715.780     53.487    560.115    709.738    566.151    560.115    560.115
 73.770    674.983    683.974     -8.991    560.063    678.500    565.531    560.063    560.063
 73.870    651.000    662.141    -11.141    560.008    656.997    565.148    560.008    560.008
 73.970    659.000    647.402     11.598    559.953    642.382    564.970    559.953    559.953
 74.070    620.163    637.615    -17.453    559.897    632.528    564.982    559.897    559.897
 74.170    635.000    631.307      3.693    559.839    625.967    565.180    559.839    559.839
 74.270    613.000    627.526    -14.526    559.780    621.744    565.566    559.780    559.780
 74.370    630.000    625.679      4.321    559.720    619.262    566.144    559.720    559.720
 74.470    605.000    625.378    -20.378    559.658    618.136    566.912    559.658    559.658
 74.570    651.346    626.327     25.020    559.596    618.087    567.852    559.596    559.596
 74.670    686.000    628.231     57.769    559.532    618.857    568.928    559.532    559.532
 74.770    625.514    630.746     -5.232    559.467    620.161    570.080    559.467    559.467
 74.870    647.000    633.441     13.559    559.401    621.655    571.220    559.401    559.401
 74.970    623.180    635.798    -12.619    559.333    622.931    572.238    559.333    559.333
 75.070    693.000    637.263     55.737    559.264    623.556    573.013    559.264    559.264
 75.170    599.265    637.387    -38.122    559.194    623.176    573.448    559.194    559.194
 75.270    672.789    636.013     36.776    559.123    621.659    573.520    559.123    559.123
 75.370    654.000    633.381     20.619    559.051    619.173    573.299    559.051    559.051
 75.470    620.327    630.051     -9.724    558.977    616.124    572.939    558.977    558.977
 75.570    706.000    626.741     79.259    558.902    613.034    572.638    558.902    558.902
 75.670    666.000    624.207     41.793    558.826    610.439    572.616    558.826    558.826
 75.770    667.000    623.205     43.795    558.748    608.862    573.106    558.748    558.748
 75.870    637.000    624.488     12.512    558.670    608.810    574.354    558.670    558.670
 75.970    626.000    628.807     -2.807    558.589    610.773    576.622    558.589    558.589
 76.070    640.560    636.883      3.677    558.508    615.210    580.171    558.508    558.508
 76.170    657.000    649.347      7.653    558.426    622.516    585.237    558.426    558.426
 76.270    673.000    666.644      6.356    558.342    632.959    591.996    558.342    558.342
 76.370    660.000    688.904    -28.904    558.257    646.609    600.510    558.257    558.257
 76.470    728.000    715.807     12.193    558.170    663.249    610.675    558.170    558.170
 76.570    701.000    746.446    -45.446    558.083    682.293    622.170    558.083    558.083
 76.670    743.000    779.220    -36.220    557.994    702.721    634.417    557.994    557.994
 76.770    850.270    811.763     38.507    557.903    723.029    646.552    557.903    557.903
 76.870    845.169    840.973      4.196    557.812    741.253    657.439    557.812    557.812
 76.970    811.724    863.262    -51.538    557.719    755.124    665.761    557.719    557.719
 77.070    903.000    875.242     27.758    557.625    762.499    670.274    557.625    557.625
 77.170    927.194    874.790     52.404    557.529    762.035    670.196    557.529    557.529
 77.270    893.624    861.903     31.720    557.433    753.730    665.528    557.433    557.433
 77.370    784.510    838.701    -54.191    557.335    738.918    657.051    557.335    557.335
 77.470    769.000    808.550    -39.550    557.236    719.723    646.006    557.236    557.236
 77.570    750.000    775.002    -25.002    557.135    698.387    633.704    557.135    557.135
 77.670    781.000    741.111     39.889    557.033    676.838    621.271    557.033    557.033
 77.770    675.372    709.176    -33.805    556.930    656.526    609.554    556.930    556.930
 77.870    728.270    680.718     47.552    556.825    638.410    599.113    556.825    556.825
 77.970    638.000    656.545    -18.545    556.720    623.001    590.249    556.720    556.720
 78.070    674.000    636.876     37.124    556.613    610.436    583.041    556.613    556.613
 78.170    576.000    621.480    -45.480    556.504    600.568    577.407    556.504    556.504
 78.270    636.895    609.840     27.056    556.394    593.072    573.155    556.394    556.394
 78.370    593.000    601.299     -8.299    556.283    587.532    570.046    556.283    556.283
 78.470    602.000    595.185      6.815    556.171    583.521    567.831    556.171    556.171
 78.570    586.152    590.886     -4.734    556.057    580.654    566.286    556.057    556.057
 78.670    573.000    587.899    -14.899    555.943    578.612    565.226    555.943    555.943
 78.770    567.325    585.836    -18.511    555.826    577.149    564.510    555.826    555.826
 78.870    576.000    584.422     -8.422    555.709    576.091    564.037    555.709    555.709
 78.970    587.521    583.471      4.050    555.590    575.319    563.739    555.590    555.590
 79.070    575.000    582.870     -7.870    555.470    574.761    563.576    555.470    555.470
 79.170    529.000    582.555    -53.555    555.348    574.375    563.526    555.348    555.348
 79.270    558.364    582.501    -24.137    555.225    574.142    563.581    555.225    555.225
 79.370    578.013    582.708     -4.696    555.101    574.061    563.746    555.101    555.101
 79.470    538.401    583.206    -44.806    554.976    574.140    564.039    554.976    554.976
 79.570    633.738    584.046     49.691    554.849    574.400    564.493    554.849    554.849
 79.670    563.000    585.313    -22.313    554.721    574.869    565.161    554.721    554.721
 79.770    543.096    587.130    -44.034    554.592    575.587    566.130    554.592    554.592
 79.870    582.000    589.684     -7.684    554.461    576.606    567.533    554.461    554.461
 79.970    589.000    593.243     -4.243    554.329    577.996    569.569    554.329    554.329
 80.070    606.000    598.185      7.815    554.196    579.851    572.522    554.196    554.196
 80.170    554.474    605.021    -50.547    554.061    582.294    576.778    554.061    554.061
 80.270    613.502    614.412     -0.909    553.925    585.487    582.837    553.925    553.925
 80.370    626.000    627.157     -1.157    553.788    589.631    591.298    553.788    553.788
 80.470    622.000    644.156    -22.156    553.650    594.963    602.823    553.650    553.650
 80.570    651.597    666.325    -14.728    553.510    601.745    618.066    553.510    553.510
 80.670    696.311    694.482      1.830    553.369    610.254    637.568    553.369    553.369
 80.770    727.000    729.192     -2.192    553.226    620.759    661.626    553.226    553.226
 80.870    748.234    770.589    -22.356    553.082    633.483    690.153    553.082    553.082
 80.970    866.751    818.173     48.578    552.937    648.533    722.539    552.937    552.937
 81.070    862.000    870.626     -8.626    552.791    665.828    757.549    552.791    552.791
 81.170    948.000    925.692     22.308    552.643    685.026    793.272    552.643    552.643
 81.270   1010.000    980.196     29.804    552.494    705.480    827.179    552.494    552.494
 81.370   1057.000   1030.276     26.724    552.344    726.262    856.335    552.344    552.344
 81.470   1135.380   1071.919     63.461    552.193    746.258    877.844    552.193    552.193
 81.570   1128.000   1101.724     26.276    552.040    764.325    889.443    552.040    552.040
 81.670   1185.000   1117.521     67.479    551.886    779.430    889.997    551.886    551.886
 81.770   1124.640   1118.726      5.914    551.730    790.834    879.658    551.730    551.730
 81.870   1170.380   1106.100     64.280    551.574    798.054    859.670    551.574    551.574
 81.970   1087.000   1081.535      5.465    551.416    800.901    832.110    551.416    551.416
 82.070   1077.000   1047.763     29.237    551.256    799.493    799.596    551.256    551.256
 82.170   1061.000   1007.829     53.171    551.096    794.113    764.887    551.096    551.096
 82.270    969.482    964.583      4.900    550.934    785.118    730.477    550.934    550.934
 82.370    909.865    920.436    -10.571    550.771    772.975    698.311    550.771    550.771
 82.470    880.000    877.336      2.664    550.606    758.340    669.680    550.606    550.606
 82.570    773.831    836.759    -62.928    550.441    742.032    645.243    550.441    550.441
 82.670    777.329    799.655    -22.326    550.274    724.867    625.132    550.274    550.274
 82.770    727.000    766.423    -39.423    550.106    707.509    609.084    550.106    550.106
 82.870    730.000    737.031     -7.031    549.936    690.433    596.593    549.936    549.936
 82.970    704.135    711.236     -7.101    549.766    674.003    587.051    549.766    549.766
 83.070    723.328    688.788     34.540    549.594    658.573    579.854    549.594    549.594
 83.170    712.049    669.523     42.526    549.420    644.506    574.476    549.420    549.420
 83.270    609.000    653.357    -44.357    549.246    632.145    570.489    549.246    549.246
 83.370    633.948    640.242     -6.295    549.070    621.763    567.572    549.070    549.070
 83.470    633.156    630.129      3.027    548.893    613.544    565.494    548.893    548.893
 83.570    648.000    622.942     25.058    548.715    607.569    564.095    548.715    548.715
 83.670    655.044    618.553     36.491    548.535    603.822    563.265    548.535    548.535
 83.770    619.000    616.766      2.234    548.355    602.189    562.923    548.355    548.355
 83.870    562.000    617.293    -55.293    548.173    602.455    562.994    548.173    548.173
 83.970    630.349    619.744     10.605    547.990    604.308    563.400    547.990    547.990
 84.070    565.000    623.621    -58.621    547.805    607.344    564.050    547.805    547.805
 84.170    611.000    628.321    -17.321    547.620    611.070    564.830    547.620    547.620
 84.270    628.000    633.154     -5.154    547.433    614.928    565.614    547.433    547.433
 84.370    617.000    637.376    -20.376    547.245    618.313    566.259    547.245    547.245
 84.470    661.703    640.255     21.449    547.056    620.635    566.625    547.056    547.056
 84.570    629.000    641.191    -12.191    546.865    621.411    566.595    546.865    546.865
 84.670    603.000    639.855    -36.855    546.674    620.372    566.107    546.674    546.674
 84.770    581.000    636.268    -55.268    546.481    617.532    565.171    546.481    546.481
 84.870    588.190    630.779    -42.589    546.287    613.162    563.862    546.287    546.287
 84.970    596.000    623.936    -27.936    546.092    607.694    562.297    546.092    546.092
 85.070    602.000    616.347    -14.347    545.895    601.604    560.608    545.895    545.895
 85.170    602.000    608.586     -6.586    545.698    595.336    558.922    545.698    545.698
 85.270    566.470    601.135    -34.665    545.499    589.259    557.353    545.499    545.499
 85.370    629.000    594.370     34.630    545.299    583.652    555.999    545.299    545.299
 85.470    556.000    588.560    -32.560    545.098    578.702    554.941    545.098    545.098
 85.570    593.000    583.866      9.134    544.896    574.507    554.243    544.896    544.896
 85.670    575.902    580.367     -4.466    544.693    571.091    553.958    544.693    544.693
 85.770    589.000    578.073     10.927    544.488    568.424    554.126    544.488    544.488
 85.870    540.869    576.947    -36.078    544.283    566.442    554.776    544.283    544.283
 85.970    575.000    576.923     -1.923    544.076    565.064    555.923    544.076    544.076
 86.070    576.135    577.919     -1.784    543.868    564.213    557.561    543.868    543.868
 86.170    598.000    579.843     18.157    543.659    563.825    559.661    543.659    543.659
 86.270    579.801    582.598     -2.798    543.449    563.864    562.165    543.449    543.449
 86.370    670.000    586.080     83.920    543.238    564.322    564.974    543.238    543.238
 86.470    589.779    590.178     -0.399    543.026    565.226    567.953    543.026    543.026
 86.570    583.000    594.770    -11.770    542.813    566.633    570.920    542.813    542.813
 86.670    609.000    599.726      9.274    542.598    568.632    573.658    542.598    542.598
 86.770    554.571    604.911    -50.341    542.383    571.335    575.921    542.383    542.383
 86.870    594.000    610.207    -16.207    542.166    574.865    577.465    542.166    542.166
 86.970    591.007    615.540    -24.533    541.948    579.349    578.090    541.948    541.948
 87.070    626.000    620.920      5.080    541.730    584.896    577.698    541.730    541.730
 87.170    655.000    626.447     28.553    541.510    591.577    576.317    541.510    541.510
 87.270    643.000    632.275     10.725    541.289    599.404    574.089    541.289    541.289
 87.370    659.000    638.541     20.459    541.067    608.299    571.229    541.067    541.067
 87.470    646.160    645.293      0.867    540.844    618.080    567.966    540.844    540.844
 87.570    648.651    652.438     -3.788    540.620    628.438    564.519    540.620    540.620
 87.670    685.818    659.719     26.098    540.395    638.932    561.071    540.395    540.395
 87.770    691.000    666.706     24.294    540.170    648.985    557.770    540.170    540.170
 87.870    685.000    672.817     12.183    539.943    657.910    554.722    539.943    539.943
 87.970    726.000    677.389     48.611    539.715    664.975    551.997    539.715    539.715
 88.070    677.115    679.797     -2.682    539.486    669.524    549.627    539.486    539.486
 88.170    730.000    679.622     50.378    539.256    671.137    547.613    539.256    539.256
 88.270    673.000    676.786     -3.786    539.025    669.756    545.935    539.025    539.025
 88.370    661.000    671.580    -10.580    538.793    665.705    544.558    538.793    538.793
 88.470    666.649    664.578      2.071    538.561    659.599    543.443    538.561    538.561
 88.570    707.707    656.495     51.211    538.327    652.193    542.546    538.327    538.327
 88.670    640.000    648.075     -8.075    538.092    644.270    541.829    538.092    538.092
 88.770    671.000    640.013     30.987    537.857    636.556    541.259    537.857    537.857
 88.870    669.000    632.914     36.086    537.620    629.684    540.810    537.620    537.620
 88.970    610.000    627.259    -17.259    537.383    624.156    540.459    537.383    537.383
 89.070    646.000    623.382     22.618    537.145    620.321    540.190    537.145    537.145
 89.170    642.000    621.449     20.551    536.905    618.362    539.988    536.905    536.905
 89.270    595.000    621.456    -26.456    536.665    618.287    539.841    536.665    536.665
 89.370    635.000    623.234     11.766    536.424    619.939    539.736    536.424    536.424
 89.470    630.000    626.460      3.540    536.183    623.009    539.660    536.183    536.183
 89.570    622.000    630.677     -8.677    535.940    627.054    539.598    535.940    535.940
 89.670    629.000    635.315     -6.315    535.697    631.521    539.533    535.697    535.697
 89.770    629.000    639.724    -10.724    535.452    635.780    539.447    535.452    535.452
 89.870    655.583    643.226     12.357    535.207    639.168    539.321    535.207    535.207
 89.970    664.000    645.195     18.805    534.961    641.080    539.138    534.961    534.961
 90.070    672.488    645.171     27.317    534.714    641.065    538.885    534.714    534.714
 90.170    675.000    642.956     32.044    534.467    638.931    538.557    534.467    534.467
 90.270    667.044    638.655     28.389    534.219    634.777    538.160    534.219    534.219
 90.370    644.075    632.619     11.456    533.970    628.944    537.706    533.970    533.970
 90.470    612.000    625.341    -13.341    533.720    621.906    537.211    533.720    533.720
 90.570    630.000    617.346     12.654    533.469    614.174    536.692    533.469    533.469
 90.670    624.882    609.122     15.760    533.218    606.219    536.166    533.218    533.218
 90.770    618.281    601.081     17.201    532.966    598.440    535.645    532.966    532.966
 90.870    605.613    593.546     12.068    532.713    591.150    535.140    532.713    532.713
 90.970    580.000    586.748     -6.748    532.459    584.575    534.658    532.459    532.459
 91.070    617.686    580.831     36.855    532.205    578.851    534.205    532.205    532.205
 91.170    573.000    575.859     -2.859    531.950    574.042    533.782    531.950    531.950
 91.270    540.000    571.834    -31.834    531.695    570.152    533.389    531.695    531.695
 91.370    563.761    568.712     -4.951    531.439    567.134    533.024    531.439    531.439
 91.470    562.665    566.420     -3.755    531.182    564.920    532.687    531.182    531.182
 91.570    595.911    564.875     31.036    530.924    563.429    532.372    530.924    530.924
 91.670    488.000    564.002    -76.002    530.666    562.589    532.080    530.666    530.666
 91.770    561.000    563.746     -2.746    530.408    562.346    531.807    530.408    530.408
 91.870    562.000    564.079     -2.079    530.148    562.672    531.553    530.148    530.148
 91.970    560.000    565.008     -5.008    529.889    563.575    531.317    529.889    529.889
 92.070    519.158    566.578    -47.420    529.628    565.097    531.102    529.628    529.628
 92.170    553.000    568.870    -15.870    529.367    567.319    530.910    529.367    529.367
 92.270    523.219    572.001    -48.783    529.106    570.352    530.744    529.106    529.106
 92.370    562.000    576.114    -14.114    528.843    574.336    530.608    528.843    528.843
 92.470    564.000    581.373    -17.373    528.581    579.431    530.506    528.581    528.581
 92.570    592.000    587.946      4.054    528.318    585.800    530.444    528.318    528.318
 92.670    623.960    595.995     27.965    528.054    593.601    530.423    528.054    528.054
 92.770    618.238    605.655     12.583    527.790    602.967    530.447    527.790    527.790
 92.870    661.957    617.017     44.940    527.525    613.991    530.515    527.525    527.525
 92.970    636.000    630.113      5.887    527.260    626.704    530.626    527.260    527.260
 93.070    642.000    644.898     -2.898    526.995    641.066    530.775    526.995    526.995
 93.170    718.000    661.236     56.764    526.729    656.950    530.956    526.729    526.729
 93.270    700.000    678.892     21.108    526.463    674.130    531.158    526.463    526.463
 93.370    707.505    697.529      9.976    526.196    692.279    531.373    526.196    526.196
 93.470    692.921    716.708    -23.787    525.929    710.968    531.588    525.929    525.929
 93.570    779.692    735.918     43.774    525.661    729.699    531.795    525.661    525.661
 93.670    756.000    754.639      1.361    525.394    747.953    531.988    525.394    525.394
 93.770    819.058    772.435     46.623    525.125    765.292    532.174    525.125    525.125
 93.870    789.000    789.063     -0.063    524.857    781.455    532.369    524.857    524.857
 93.970    784.427    804.539    -20.112    524.588    796.422    532.607    524.588    524.588
 94.070    797.640    819.109    -21.469    524.319    810.395    532.935    524.319    524.319
 94.170    837.000    833.152      3.848    524.050    823.693    533.410    524.050    524.050
 94.270    815.022    847.035    -32.014    523.780    836.627    534.091    523.780    523.780
 94.370    845.796    861.014    -15.218    523.510    849.399    535.029    523.510    523.510
 94.470    845.000    875.188    -30.188    523.240    862.068    536.265    523.240    523.240
 94.570    945.000    889.519     55.481    522.969    874.576    537.819    522.969    522.969
 94.670    908.000    903.948      4.052    522.699    886.870    539.687    522.699    522.699
 94.770    920.000    918.372      1.628    522.428    898.877    541.835    522.428    522.428
 94.870    970.936    932.624     38.312    522.157    910.498    544.199    522.157    522.157
 94.970    959.000    946.406     12.594    521.886    921.530    546.682    521.886    521.886
 95.070    941.595    959.184    -17.589    521.615    931.567    549.158    521.615    521.615
 95.170    948.000    970.136    -22.136    521.343    939.936    551.474    521.343    521.343
 95.270    999.000    978.178     20.822    521.072    945.725    553.464    521.072    521.072
 95.370    981.097    982.093     -0.996    520.800    947.884    554.957    520.800    520.800
 95.470   1043.320    980.736     62.584    520.529    945.422    555.801    520.529    520.529
 95.570    960.833    973.345    -12.512    520.257    937.676    555.894    520.257    520.257
 95.670   1001.878    959.744     42.134    519.985    924.505    555.201    519.985    519.985
 95.770    947.503    940.476      7.027    519.713    906.411    553.763    519.713    519.713
 95.870    899.311    916.716    -17.404    519.442    884.458    551.691    519.442    519.442
 95.970    893.000    890.061      2.939    519.170    860.090    549.137    519.170    519.170
 96.070    828.867    862.298    -33.432    518.898    834.925    546.271    518.898    518.898
 96.170    873.000    835.237     37.763    518.626    810.604    543.259    518.626    518.626
 96.270    843.000    810.596     32.404    518.355    788.698    540.252    518.355    518.355
 96.370    762.000    789.957    -27.957    518.083    770.657    537.379    518.083    518.083
 96.470    767.000    774.724     -7.724    517.812    757.789    534.739    517.812    517.812
 96.570    803.058    766.115     36.943    517.540    751.238    532.404    517.540    517.540
 96.670    834.000    765.148     68.852    517.269    751.979    530.418    517.269    517.269
 96.770    777.000    772.634      4.366    516.998    760.803    528.801    516.998    516.998
 96.870    744.112    789.168    -45.056    516.727    778.304    527.552    516.727    516.727
 96.970    827.000    815.095     11.905    516.457    804.846    526.656    516.457    516.457
 97.070    986.000    850.508    135.492    516.186    840.547    526.086    516.186    516.186
 97.170    884.063    895.301    -11.238    515.916    885.333    525.811    515.916    515.916
 97.270    996.000    948.900     47.100    515.646    938.668    525.793    515.646    515.646
 97.370   1062.119   1010.373     51.747    515.376    999.659    525.993    515.376    515.376
 97.470   1055.072   1078.341    -23.270    515.107   1066.972    526.368    515.107    515.107
 97.570   1110.000   1150.966    -40.966    514.838   1138.814    526.871    514.838    514.838
 97.670   1264.000   1225.861     38.139    514.569   1212.854    527.450    514.569    514.569
 97.770   1312.000   1300.130     11.870    514.300   1286.250    528.050    514.300    514.300
 97.870   1388.000   1370.396     17.604    514.032   1355.689    528.608    514.032    514.032
 97.970   1464.070   1432.925     31.145    513.765   1417.501    529.060    513.765    513.765
 98.070   1513.245   1483.889     29.356    513.497   1467.925    529.341    513.497    513.497
 98.170   1643.000   1519.806    123.194    513.230   1503.535    529.393    513.230    513.230
 98.270   1557.000   1538.101     18.899    512.964   1521.799    529.176    512.964    512.964
 98.370   1589.000   1537.623     51.377    512.698   1521.580    528.671    512.698    512.698
 98.470   1440.578   1518.878    -78.299    512.433   1503.373    527.888    512.433    512.433
 98.570   1561.774   1483.886     77.889    512.168   1469.163    526.862    512.168    512.168
 98.670   1378.000   1435.741    -57.741    511.903   1421.991    525.643    511.903    511.903
 98.770   1331.138   1378.099    -46.960    511.639   1365.454    524.289    511.639    511.639
 98.870   1330.000   1314.743     15.257    511.376   1303.278    522.858    511.376    511.376
 98.970   1216.664   1249.302    -32.638    511.113   1239.036    521.403    511.113    511.113
 99.070   1176.000   1185.081     -9.081    510.851   1175.988    519.972    510.851    510.851
 99.170   1119.611   1124.976     -5.365    510.590   1116.993    518.601    510.590    510.590
 99.270   1063.000   1071.445     -8.445    510.329   1064.479    517.322    510.329    510.329
 99.370   1013.000   1026.515    -13.515    510.069   1020.452    516.154    510.069    510.069
 99.470    966.000    991.805    -25.805    509.810    986.519    515.112    509.810    509.810
 99.570    948.000    968.561    -20.561    509.551    963.919    514.203    509.551    509.551
 99.670   1018.000    957.681     60.319    509.293    953.551    513.426    509.293    509.293
 99.770    971.409    959.740     11.669    509.036    955.994    512.776    509.036    509.036
 99.870   1028.000    975.002     52.998    508.779    971.522    512.246    508.779    508.779
 99.970    974.324   1003.435    -29.111    508.524   1000.115    511.824    508.524    508.524
100.070   1066.000   1044.708     21.292    508.269   1041.455    511.497    508.269    508.269
100.170   1095.000   1098.189     -3.189    508.015   1094.925    511.251    508.015    508.015
100.270   1168.000   1162.926      5.074    507.762   1159.586    511.070    507.762    507.762
100.370   1266.000   1237.616     28.384    507.510   1234.154    510.941    507.510    507.510
100.470   1277.000   1320.582    -43.582    507.259   1316.965    510.847    507.259    507.259
100.570   1504.000   1409.729     94.271    507.009   1405.940    510.775    507.009    507.009
100.670   1503.397   1502.556      0.841    506.760   1498.592    510.709    506.760    506.760
100.770   1676.000   1596.221     79.779    506.512   1592.094    510.636    506.512    506.512
100.870   1673.234   1687.585    -14.350    506.265   1683.319    510.543    506.265    506.265
100.970   1775.000   1773.497      1.503    506.019   1769.125    510.420    506.019    506.019
101.070   1942.000   1851.070     90.930    505.774   1846.632    510.261    505.774    505.774
101.170   1874.168   1917.942    -43.774    505.530   1913.479    510.064    505.530    505.530
101.270   1892.724   1972.395    -79.671    505.287   1967.943    509.831    505.287    505.287
101.370   2022.000   2013.281      8.719    505.046   2008.868    509.571    505.046    505.046
101.470   2054.486   2039.815     14.672    504.805   2035.456    509.294    504.805    504.805
101.570   2132.000   2051.391     80.609    504.566   2047.093    509.011    504.566    504.566
101.670   2027.420   2047.565    -20.145    504.328   2043.319    508.735    504.328    504.328
101.770   2001.853   2028.236    -26.384    504.091   2024.024    508.475    504.091    504.091
101.870   1949.223   1993.961    -44.737    503.856   1989.755    508.240    503.856    503.856
101.970   2034.000   1946.220     87.780    503.622   1941.989    508.035    503.622    503.622
102.070   1882.000   1887.477     -5.477    503.389   1883.183    507.864    503.389    503.389
102.170   1740.720   1820.943    -80.223    503.158   1816.552    507.725    503.158    503.158
102.270   1756.856   1750.165      6.691    502.928   1745.646    507.617    502.928    502.928
102.370   1663.561   1678.576    -15.015    502.699   1673.903    507.532    502.699    502.699
102.470   1681.118   1609.142     71.976    502.472   1604.301    507.462    502.472    502.472
102.570   1528.000   1544.162    -16.162    502.246   1539.149    507.397    502.246    502.246
102.670   1407.000   1485.188    -78.188    502.022   1480.011    507.325    502.022    502.022
102.770   1362.000   1433.023    -71.023    501.799   1427.701    507.237    501.799    501.799
102.870   1325.205   1387.766    -62.562    501.578   1382.325    507.123    501.578    501.578
102.970   1270.000   1348.873    -78.873    501.358   1343.349    506.978    501.358    501.358
103.070   1341.687   1315.247     26.440    501.140   1309.681    506.795    501.140    501.140
103.170   1324.755   1285.360     39.394    500.924   1279.799    506.569    500.924    500.924
103.270   1306.117   1257.426     48.691    500.709   1251.919    506.297    500.709    500.709
103.370   1188.000   1229.625    -41.625    500.496   1224.226    505.975    500.496    500.496
103.470   1084.000   1200.366   -116.366    500.285   1195.128    505.602    500.285    500.285
103.570   1151.000   1168.511    -17.511    500.076   1163.486    505.180    500.076    500.076
103.670   1081.618   1133.512    -51.894    499.868   1128.745    504.714    499.868    499.868
103.770   1098.000   1095.405      2.595    499.662   1090.933    504.212    499.662    499.662
103.870   1025.000   1054.692    -29.692    499.458   1050.541    503.685    499.458    499.458
103.970    983.199   1012.169    -28.970    499.255   1008.356    503.143    499.255    499.255
104.070    940.000    968.766    -28.766    499.055    965.295    502.597    499.055    499.055
104.170    909.000    925.422    -16.422    498.857    922.290    502.057    498.857    498.857
104.270    894.000    883.015     10.985    498.660    880.209    501.529    498.660    498.660
104.370    783.821    842.314    -58.493    498.466    839.816    501.021    498.466    498.466
104.470    833.000    803.960     29.040    498.273    801.747    500.538    498.273    498.273
104.570    791.000    768.450     22.550    498.082    766.497    500.082    498.082    498.082
104.670    752.959    736.129     16.829    497.894    734.410    499.655    497.894    497.894
104.770    725.000    707.175     17.825    497.708    705.663    499.254    497.708    497.708
104.870    653.000    681.711    -28.711    497.524    680.377    498.887    497.524    497.524
104.970    700.000    659.665     40.335    497.341    658.482    498.549    497.341    497.341
105.070    635.530    640.881     -5.351    497.162    639.825    498.239    497.162    497.162
105.170    693.000    625.138     67.862    496.984    624.186    497.953    496.984    496.984
105.270    618.000    612.168      5.832    496.809    611.299    497.690    496.809    496.809
105.370    642.000    601.681     40.319    496.635    600.878    497.448    496.635    496.635
105.470    618.000    593.387     24.613    496.465    592.634    497.224    496.465    496.465
105.570    619.000    587.013     31.987    496.296    586.296    497.017    496.296    496.296
105.670    597.000    582.315     14.685    496.130    581.623    496.824    496.130    496.130
105.770    623.000    579.089     43.911    495.966    578.409    496.645    495.966    495.966
105.870    588.000    577.169     10.831    495.805    576.492    496.479    495.805    495.805
105.970    587.000    576.435     10.565    495.646    575.751    496.326    495.646    495.646
106.070    639.000    576.806     62.194    495.490    576.105    496.184    495.490    495.490
106.170    576.000    578.236     -2.236    495.336    577.508    496.054    495.336    495.336
106.270    572.000    580.708     -8.708    495.185    579.944    495.937    495.185    495.185
106.370    643.000    584.227     58.773    495.037    583.416    495.833    495.037    495.037
106.470    607.825    588.815     19.011    494.891    587.946    495.742    494.891    494.891
106.570    588.000    594.495     -6.495    494.748    593.557    495.665    494.748    494.748
106.670    553.827    601.291    -47.464    494.607    600.272    495.602    494.607    494.607
106.770    637.000    609.212     27.788    494.469    608.100    495.554    494.469    494.469
106.870    644.000    618.246     25.754    494.334    617.029    495.520    494.334    494.334
106.970    662.000    628.346     33.654    494.202    627.014    495.499    494.202    494.202
107.070    613.430    639.427    -25.998    494.073    637.970    495.492    494.073    494.073
107.170    636.556    651.356    -14.801    493.946    649.766    495.495    493.946    493.946
107.270    685.000    663.951     21.049    493.823    662.222    495.506    493.823    493.823
107.370    683.832    676.976      6.856    493.702    675.106    495.524    493.702    493.702
107.470    640.472    690.148    -49.676    493.584    688.138    495.543    493.584    493.584
107.570    746.283    703.137     43.145    493.469    700.992    495.561    493.469    493.469
107.670    730.000    715.578     14.422    493.358    713.308    495.572    493.358    493.358
107.770    719.000    727.083     -8.083    493.249    724.705    495.572    493.249    493.249
107.870    699.000    737.274    -38.274    493.144    734.807    495.556    493.144    493.144
107.970    722.220    745.813    -23.593    493.042    743.281    495.519    493.042    493.042
108.070    809.000    752.451     56.549    492.942    749.884    495.458    492.942    492.942
108.170    738.000    757.071    -19.071    492.847    754.497    495.371    492.847    492.847
108.270    778.000    759.711     18.289    492.754    757.161    495.258    492.754    492.754
108.370    737.214    760.570    -23.356    492.665    758.072    495.120    492.665    492.665
108.470    776.000    759.974     16.026    492.579    757.553    494.962    492.579    492.579
108.570    731.740    758.330    -26.590    492.496    756.007    494.786    492.496    492.496
108.670    750.000    756.074     -6.074    492.417    753.863    494.599    492.417    492.417
108.770    771.000    753.619     17.381    492.341    751.530    494.405    492.341    492.341
108.870    702.285    751.324    -49.038    492.269    749.363    494.208    492.269    492.269
108.970    700.000    749.467    -49.467    492.200    747.636    494.014    492.200    492.200
109.070    716.998    748.235    -31.238    492.135    746.531    493.825    492.135    492.135
109.170    757.000    747.713      9.287    492.073    746.131    493.645    492.073    492.073
109.270    715.000    747.882    -32.882    492.015    746.415    493.476    492.015    492.015
109.370    725.000    748.624    -23.624    491.961    747.263    493.318    491.961    491.961
109.470    737.000    749.723    -12.723    491.910    748.458    493.174    491.910    491.910
109.570    756.000    750.880      5.120    491.863    749.703    493.043    491.863    491.863
109.670    727.790    751.735    -23.945    491.820    750.636    492.925    491.820    491.820
109.770    774.618    751.897     22.721    491.781    750.868    492.818    491.781    491.781
109.870    755.140    750.986      4.153    491.745    750.020    492.722    491.745    491.745
109.970    688.000    748.676    -60.676    491.714    747.769    492.633    491.714    491.714
110.070    730.000    744.749    -14.749    491.686    743.898    492.552    491.686    491.686
110.170    723.164    739.126    -15.963    491.663    738.323    492.482    491.663    491.663
110.270    698.865    731.850    -32.985    491.643    731.091    492.420    491.643    491.643
110.370    723.000    723.089     -0.089    491.628    722.371    492.364    491.628    491.628
110.470    740.571    713.100     27.471    491.616    712.420    492.315    491.616    491.616
110.570    718.000    702.192     15.808    491.609    701.548    492.271    491.609    491.609
110.670    670.000    690.689    -20.689    491.606    690.078    492.234    491.606    491.606
110.770    681.636    678.907      2.729    491.607    678.327    492.203    491.607    491.607
110.870    687.000    667.140     19.860    491.612    666.589    492.179    491.612    491.612
110.970    659.939    655.649      4.290    491.622    655.124    492.161    491.622    491.622
111.070    637.000    644.654     -7.654    491.636    644.153    492.149    491.636    491.636
111.170    671.000    634.335     36.665    491.654    633.855    492.145    491.654    491.654
111.270    618.000    624.839     -6.839    491.677    624.378    492.147    491.677    491.677
111.370    642.000    616.277     25.723    491.704    615.831    492.157    491.704    491.704
111.470    566.078    608.707    -42.629    491.736    608.274    492.174    491.736    491.736
111.570    597.000    602.160     -5.160    491.773    601.739    492.197    491.773    491.773
111.670    598.000    596.636      1.364    491.814    596.223    492.228    491.814    491.814
111.770    590.000    592.108     -2.108    491.859    591.701    492.266    491.859    491.859
111.870    608.691    588.529     20.162    491.909    588.126    492.310    491.909    491.909
111.970    583.000    585.833     -2.833    491.964    585.432    492.361    491.964    491.964
112.070    578.934    583.948     -5.014    492.024    583.548    492.419    492.024    492.024
112.170    594.000    582.792     11.208    492.088    582.392    492.483    492.088    492.088
112.270    576.000    582.284     -6.284    492.158    581.882    492.553    492.158    492.158
112.370    596.000    582.345     13.655    492.232    581.939    492.629    492.232    492.232
112.470    604.000    582.897     21.103    492.311    582.489    492.710    492.311    492.311
112.570    558.000    583.875    -25.875    492.395    583.463    492.797    492.395    492.395
112.670    631.369    585.218     46.151    492.485    584.802    492.890    492.485    492.485
112.770    602.237    586.881     15.356    492.579    586.461    492.988    492.579    492.579
112.870    568.000    588.829    -20.829    492.678    588.405    493.091    492.678    492.678
112.970    615.000    591.041     23.959    492.783    590.612    493.199    492.783    492.783
113.070    555.230    593.510    -38.280    492.892    593.077    493.313    492.892    492.892
113.170    591.850    596.247     -4.397    493.007    595.809    493.432    493.007    493.007
113.270    572.000    599.274    -27.274    493.128    598.831    493.558    493.128    493.128
113.370    578.964    602.632    -23.668    493.253    602.182    493.690    493.253    493.253
113.470    622.348    606.377     15.971    493.384    605.920    493.828    493.384    493.384
113.570    596.907    610.587    -13.681    493.521    610.120    493.973    493.521    493.521
113.670    608.600    615.363     -6.763    493.662    614.883    494.127    493.662    493.662
113.770    628.000    620.836      7.164    493.810    620.341    494.288    493.810    493.810
113.870    659.134    627.176     31.959    493.963    626.662    494.459    493.963    493.963
113.970    583.000    634.598    -51.598    494.121    634.060    494.639    494.121    494.121
114.070    667.000    643.379     23.621    494.286    642.813    494.830    494.286    494.286
114.170    643.000    653.868    -10.868    494.455    653.266    495.033    494.455    494.455
114.270    653.000    666.502    -13.502    494.631    665.857    495.247    494.631    494.631
114.370    699.000    681.824     17.176    494.813    681.129    495.475    494.813    494.813
114.470    711.000    700.504     10.496    495.000    699.748    495.717    495.000    495.000
114.570    738.000    723.353     14.647    495.193    722.525    495.974    495.193    495.193
114.670    752.544    751.342      1.202    495.392    750.430    496.248    495.392    495.392
114.770    795.000    785.619      9.381    495.597    784.610    496.539    495.597    495.597
114.870    809.575    827.520    -17.945    495.808    826.399    496.847    495.808    495.808
114.970    889.000    878.570     10.430    496.026    877.321    497.175    496.026    496.026
115.070    988.876    940.480     48.397    496.249    939.087    497.522    496.249    496.249
115.170    920.000   1015.134    -95.134    496.479   1013.580    497.890    496.479    496.479
115.270   1047.000   1104.555    -57.555    496.714   1102.822    498.277    496.714    496.714
115.370   1277.767   1210.858     66.909    496.956   1208.928    498.685    496.956    496.956
115.470   1303.000   1336.192    -33.192    497.205   1334.047    499.114    497.205    497.205
115.570   1547.578   1482.654     64.924    497.460   1480.278    499.562    497.460    497.460
115.670   1717.000   1652.196     64.804    497.721   1649.572    500.029    497.721    497.721
115.770   1774.000   1846.509    -72.509    497.989   1843.623    500.514    497.989    497.989
115.870   2037.000   2066.900    -29.900    498.263   2063.739    501.015    498.263    498.263
115.970   2301.634   2314.158    -12.523    498.544   2310.713    501.531    498.544    498.544
116.070   2761.000   2588.428    172.572    498.831   2584.693    502.059    498.831    498.831
116.170   2950.000   2889.082     60.918    499.125   2885.056    502.597    499.125    499.125
116.270   3294.000   3214.614     79.386    499.426   3210.299    503.141    499.426    499.426
116.370   3593.000   3562.535     30.465    499.733   3557.937    503.690    499.733    499.733
116.470   3896.000   3929.306    -33.306    500.048   3924.437    504.239    500.048    500.048
116.570   4347.000   4310.453     36.547    500.369   4305.329    504.788    500.369    500.369
116.670   4654.000   4700.314    -46.314    500.697   4694.953    505.334    500.697    500.697
116.770   5130.000   5092.249     37.751    501.033   5086.674    505.876    501.033    501.033
116.870   5455.150   5478.697    -23.547    501.375   5472.931    506.414    501.375    501.375
116.970   5805.000   5851.287    -46.287    501.724   5845.356    506.946    501.724    501.724
117.070   6004.000   6201.025   -197.025    502.081   6194.957    507.473    502.081    502.081
117.170   6675.001   6518.551    156.450    502.444   6512.374    507.994    502.444    502.444
117.270   6827.000   6794.505     32.495    502.815   6788.247    508.510    502.815    502.815
117.370   6937.471   7020.001    -82.530    503.194   7013.690    509.018    503.194    503.194
117.470   7396.000   7187.220    208.780    503.579   7180.884    509.518    503.579    503.579
117.570   7168.529   7290.050   -121.521    503.972   7283.714    510.008    503.972    503.972
117.670   7466.000   7324.678    141.322    504.373   7318.365    510.486    504.373    504.373
117.770   7185.903   7289.999   -104.097    504.781   7283.731    510.952    504.781    504.781
117.870   7216.211   7187.743     28.468    505.196   7181.536    511.405    505.196    505.196
117.970   7191.000   7022.268    168.732    505.620   7016.137    511.841    505.620    505.620
118.070   6693.000   6800.092   -107.092    506.050   6794.051    512.262    506.050    506.050
118.170   6507.000   6529.275    -22.275    506.489   6523.338    512.665    506.489    506.489
118.270   6143.000   6218.779    -75.779    506.935   6212.958    513.049    506.935    506.935
118.370   6036.062   5877.897    158.165    507.390   5872.205    513.415    507.390    507.390
118.470   5299.000   5515.806   -216.806    507.852   5510.257    513.761    507.852    507.852
118.570   5175.000   5141.230     33.770    508.322   5135.839    514.088    508.322    508.322
118.670   4860.000   4762.202     97.798    508.800   4756.983    514.399    508.800    508.800
118.770   4440.000   4385.903     54.097    509.286   4380.868    514.694    509.286    509.286
118.870   4130.749   4018.545    112.204    509.780   4013.706    514.978    509.780    509.780
118.970   3782.390   3665.316    117.074    510.283   3660.680    515.255    510.283    510.283
119.070   3235.961   3330.348    -94.386    510.794   3325.922    515.529    510.794    510.794
119.170   3080.000   3016.740     63.260    511.312   3012.526    515.806    511.312    511.312
119.270   2789.000   2726.609     62.391    511.840   2722.606    516.089    511.840    511.840
119.370   2521.000   2461.169     59.831    512.376   2457.374    516.384    512.376    512.376
119.470   2367.000   2220.840    146.160    512.920   2217.246    516.694    512.920    512.920
119.570   2049.991   2005.365     44.626    513.472   2001.962    517.024    513.472    513.472
119.670   1848.000   1813.935     34.065    514.034   1810.711    517.377    514.034    514.034
119.770   1707.000   1645.311     61.689    514.604   1642.252    517.756    514.604    514.604
119.870   1423.500   1497.943    -74.443    515.182   1495.031    518.163    515.182    515.182
119.970   1358.000   1370.070    -12.070    515.770   1367.287    518.602    515.770    515.770
120.070   1313.000   1259.824     53.176    516.366   1257.149    519.073    516.366    516.366
120.170   1121.393   1165.305    -43.912    516.971   1162.715    519.578    516.971    516.971
120.270   1106.000   1084.647     21.353    517.585   1082.120    520.119    517.585    517.585
120.370   1097.000   1016.080     80.920    518.208   1013.590    520.696    518.208    518.208
120.470    966.000    957.958      8.042    518.840    955.480    521.310    518.840    518.840
120.570    929.000    908.789     20.211    519.481    906.296    521.962    519.481    519.481
120.670    867.000    867.246     -0.246    520.131    864.712    522.652    520.131    520.131
120.770    811.000    832.173    -21.173    520.791    829.568    523.380    520.791    520.791
120.870    824.000    802.571     21.429    521.460    799.867    524.148    521.460    521.460
120.970    746.000    777.597    -31.597    522.138    774.764    524.956    522.138    522.138
121.070    808.982    756.543     52.439    522.825    753.551    525.803    522.825    522.825
121.170    713.000    738.823    -25.823    523.522    735.640    526.693    523.522    523.522
121.270    682.000    723.954    -41.954    524.229    720.548    527.624    524.229    524.229
121.370    696.789    711.543    -14.754    524.945    707.880    528.598    524.945    524.945
121.470    715.000    701.267     13.733    525.671    697.314    529.617    525.671    525.671
121.570    732.322    692.866     39.456    526.406    688.585    530.682    526.406    526.406
121.670    623.000    686.126    -63.126    527.151    681.481    531.793    527.151    527.151
121.770    669.359    680.870    -11.511    527.907    675.823    532.952    527.907    527.907
121.870    597.000    676.954    -79.954    528.672    671.464    534.161    528.672    528.672
121.970    667.000    674.253     -7.253    529.447    668.280    535.421    529.447    529.447
122.070    643.000    672.660    -29.660    530.232    666.162    536.733    530.232    530.232
122.170    672.000    672.080     -0.080    531.027    665.014    538.098    531.027    531.027
122.270    684.000    672.427     11.573    531.832    664.749    539.517    531.832    531.832
122.370    684.000    673.618     10.382    532.647    665.285    540.989    532.647    532.647
122.470    643.000    675.572    -32.572    533.473    666.541    542.515    533.473    533.473
122.570    649.000    678.208    -29.208    534.309    668.438    544.092    534.309    534.309
122.670    695.000    681.441     13.559    535.156    670.895    545.717    535.156    535.156
122.770    633.000    685.184    -52.184    536.013    673.828    547.385    536.013    536.013
122.870    721.413    689.342     32.070    536.880    677.151    549.092    536.880    536.880
122.970    730.000    693.818     36.182    537.758    680.771    550.828    537.758    537.758
123.070    713.406    698.506     14.900    538.647    684.592    552.587    538.647    538.647
123.170    662.288    703.293    -41.005    539.546    688.512    554.356    539.546    539.546
123.270    664.620    708.063    -43.443    540.457    692.427    556.123    540.457    540.457
123.370    657.871    712.693    -54.821    541.378    696.228    557.876    541.378    541.378
123.470    717.000    717.057     -0.057    542.310    699.802    559.601    542.310    542.310
123.570    716.000    721.031     -5.031    543.253    703.042    561.281    543.253    543.253
123.670    740.000    724.494     15.506    544.207    705.840    562.903    544.207    544.207
123.770    713.162    727.335    -14.173    545.172    708.100    564.452    545.172    545.172
123.870    719.665    729.457     -9.792    546.149    709.738    565.914    546.149    546.149
123.970    738.000    730.782      7.218    547.137    710.687    567.279    547.137    547.137
124.070    687.876    731.243    -43.368    548.136    710.890    568.539    548.136    548.136
124.170    764.000    730.826     33.174    549.146    710.336    569.687    549.146    549.146
124.270    765.000    729.570     35.430    550.168    709.066    570.724    550.168    550.168
124.370    708.000    727.484    -19.484    551.201    707.088    571.648    551.201    551.201
124.470    769.000    724.616     44.384    552.246    704.449    572.465    552.246    552.246
124.570    754.000    721.039     32.961    553.303    701.213    573.179    553.303    553.303
124.670    733.000    716.834     16.166    554.371    697.456    573.799    554.371    554.371
124.770    700.000    712.092    -12.092    555.452    693.258    574.332    555.452    555.452
124.870    732.000    706.906     25.094    556.544    688.705    574.790    556.544    556.544
124.970    750.000    701.372     48.628    557.648    683.881    575.183    557.648    557.648
