neutron_powder_diffraction_0027
R_wp: 3.779
Temperature (K): 528.894
Counts: 83693.00
Wavelength (Ã…): 2.52098
COMMENTS
Test file for demonstrating the .xyy file format in Reel1.0
END OF HEADER
   tth       Y_obs     Y_calc      Y_res    Background    Phase_1_Nuc    Phase_1_Mag    Phase_2_Nuc    Phase_2_Mag
  9.970    791.000    712.302     78.698    710.598    711.680    711.219    710.598    710.598
 10.070    701.772    711.375     -9.604    709.578    710.747    710.206    709.578    709.578
 10.170    729.000    710.465     18.535    708.563    709.831    709.197    708.563    708.563
 10.270    699.929    709.575     -9.646    707.552    708.933    708.193    707.552    707.552
 10.370    752.000    708.706     43.294    706.546    708.057    707.194    706.546    706.546
 10.470    756.217    707.863     48.354    705.545    707.207    706.200    705.545    705.545
 10.570    718.179    707.050     11.129    704.548    706.387    705.210    704.548    704.548
 10.670    757.498    706.274     51.224    703.556    705.603    704.225    703.556    703.556
 10.770    700.177    705.541     -5.365    702.568    704.863    703.245    702.568    702.568
 10.870    714.472    704.864      9.608    701.585    704.178    702.269    701.585    701.585
 10.970    749.976    704.256     45.720    700.607    703.562    701.298    700.607    700.607
 11.070    717.000    703.737     13.263    699.633    703.036    700.332    699.633    699.633
 11.170    675.000    703.336    -28.336    698.664    702.626    699.371    698.664    698.664
 11.270    733.000    703.097     29.903    697.699    702.378    698.415    697.699    697.699
 11.370    691.000    703.083    -12.083    696.739    702.356    697.463    696.739    696.739
 11.470    765.000    703.423     61.577    695.783    702.687    696.516    695.783    695.783
 11.570    727.000    704.391     22.609    694.832    703.645    695.573    694.832    694.832
 11.670    703.370    706.591     -3.221    693.886    705.835    694.635    693.886    693.886
 11.770    695.941    711.224    -15.283    692.944    710.456    693.702    692.944    692.944
 11.870    712.949    720.227     -7.278    692.007    719.444    692.774    692.007    692.007
 11.970    810.000    735.818     74.182    691.075    735.017    691.851    691.075    691.075
 12.070    862.000    758.956    103.044    690.147    758.132    690.932    690.147    690.147
 12.170    893.000    786.559    106.441    689.223    785.710    690.018    689.223    689.223
 12.270    860.000    808.706     51.294    688.304    807.834    689.108    688.304    688.304
 12.370    833.000    811.901     21.099    687.390    811.017    688.204    687.390    687.390
 12.470    795.000    792.930      2.070    686.480    792.047    687.304    686.480    686.480
 12.570    757.048    763.642     -6.595    685.574    762.765    686.408    685.574    685.574
 12.670    707.000    736.507    -29.507    684.673    735.634    685.518    684.673    684.673
 12.770    734.997    716.633     18.364    683.777    715.760    684.632    683.777    683.777
 12.870    681.000    703.955    -22.955    682.885    703.078    683.751    682.885    682.885
 12.970    670.117    696.395    -26.278    681.998    695.511    682.874    681.998    681.998
 13.070    680.000    691.808    -11.808    681.115    690.915    682.003    681.115    681.115
 13.170    701.000    688.747     12.253    680.237    687.845    681.136    680.237    680.237
 13.270    662.724    686.451    -23.727    679.363    685.538    680.273    679.363    679.363
 13.370    725.413    684.571     40.842    678.494    683.646    679.416    678.494    678.494
 13.470    713.507    682.947     30.560    677.629    682.011    678.563    677.629    677.629
 13.570    710.639    681.499     29.140    676.769    680.551    677.715    676.769    676.769
 13.670    626.000    680.180    -54.180    675.913    679.220    676.872    675.913    675.913
 13.770    614.000    678.961    -64.961    675.062    677.988    676.033    675.062    675.062
 13.870    722.369    677.836     44.532    674.215    676.851    675.199    674.215    674.215
 13.970    714.684    676.759     37.925    673.373    675.760    674.370    673.373    673.373
 14.070    688.000    675.719     12.281    672.535    674.707    673.546    672.535    672.535
 14.170    700.000    674.717     25.283    671.701    673.691    672.726    671.701    671.701
 14.270    622.129    673.747    -51.618    670.872    672.708    671.911    670.872    670.872
 14.370    672.506    672.804     -0.298    670.048    671.750    671.101    670.048    670.048
 14.470    676.553    671.885      4.668    669.228    670.816    670.295    669.228    669.228
 14.570    720.891    670.985     49.907    668.412    669.901    669.494    668.412    668.412
 14.670    672.000    670.102      1.898    667.600    669.004    668.698    667.600    667.600
 14.770    653.840    669.236    -15.396    666.794    668.122    667.907    666.794    666.794
 14.870    710.231    668.388     41.843    665.991    667.258    667.121    665.991    665.991
 14.970    652.000    667.547    -15.547    665.193    666.401    666.339    665.193    665.193
 15.070    639.000    666.718    -27.718    664.399    665.555    665.562    664.399    664.399
 15.170    659.049    665.899     -6.850    663.610    664.719    664.789    663.610    663.610
 15.270    618.000    665.090    -47.090    662.825    663.893    664.022    662.825    662.825
 15.370    713.467    664.290     49.177    662.045    663.075    663.259    662.045    662.045
 15.470    629.747    663.499    -33.752    661.269    662.266    662.501    661.269    661.269
 15.570    598.000    662.716    -64.716    660.497    661.465    661.748    660.497    660.497
 15.670    688.631    661.940     26.690    659.730    660.670    660.999    659.730    659.730
 15.770    656.000    661.173     -5.173    658.967    659.883    660.256    658.967    658.967
 15.870    662.000    660.412      1.588    658.208    659.103    659.517    658.208    658.208
 15.970    617.000    659.658    -42.658    657.454    658.329    658.783    657.454    657.454
 16.070    658.947    658.911      0.035    656.704    657.561    658.054    656.704    656.704
 16.170    703.352    658.171     45.181    655.958    656.799    657.329    655.958    655.958
 16.270    622.746    657.438    -34.692    655.217    656.044    656.610    655.217    655.217
 16.370    682.000    656.716     25.284    654.479    655.300    655.895    654.479    654.479
 16.470    621.632    655.997    -34.365    653.747    654.558    655.185    653.747    653.747
 16.570    615.000    655.282    -40.282    653.018    653.820    654.480    653.018    653.018
 16.670    706.594    654.572     52.022    652.294    653.086    653.780    652.294    652.294
 16.770    612.000    653.870    -41.870    651.574    652.359    653.085    651.574    651.574
 16.870    618.000    653.186    -35.186    650.859    651.649    652.395    650.859    650.859
 16.970    651.000    652.529     -1.529    650.148    650.966    651.711    650.148    650.148
 17.070    648.000    651.893     -3.893    649.441    650.302    651.032    649.441    649.441
 17.170    586.000    651.218    -65.218    648.738    649.599    650.356    648.738    648.738
 17.270    676.000    650.544     25.456    648.039    648.897    649.686    648.039    648.039
 17.370    635.000    649.878    -14.878    647.345    648.203    649.020    647.345    647.345
 17.470    604.589    649.244    -44.654    646.655    647.539    648.360    646.655    646.655
 17.570    677.989    648.590     29.398    645.969    646.855    647.704    645.969    645.969
 17.670    665.596    647.939     17.657    645.288    646.173    647.054    645.288    645.288
 17.770    621.000    647.293    -26.293    644.611    645.495    646.408    644.611    644.611
 17.870    605.000    646.653    -41.653    643.937    644.822    645.768    643.937    643.937
 17.970    630.685    646.018    -15.333    643.269    644.154    645.133    643.269    643.269
 18.070    642.000    645.389     -3.389    642.604    643.490    644.503    642.604    642.604
 18.170    639.000    644.766     -5.766    641.943    642.831    643.878    641.943    641.943
 18.270    626.501    644.148    -17.647    641.287    642.177    643.258    641.287    641.287
 18.370    671.000    643.537     27.463    640.635    641.528    642.643    640.635    640.635
 18.470    646.000    642.936      3.064    639.987    640.889    642.034    639.987    639.987
 18.570    650.000    642.344      7.656    639.343    640.256    641.430    639.343    639.343
 18.670    639.000    641.750     -2.750    638.703    639.621    640.832    638.703    638.703
 18.770    659.000    641.161     17.839    638.068    638.990    640.239    638.068    638.068
 18.870    642.865    640.578      2.286    637.436    638.363    639.651    637.436    637.436
 18.970    597.400    640.001    -42.601    636.809    637.742    639.068    636.809    636.809
 19.070    610.000    639.430    -29.430    636.186    637.124    638.491    636.186    636.186
 19.170    698.000    638.872     59.128    635.566    636.516    637.922    635.566    635.566
 19.270    679.000    638.380     40.620    634.951    635.957    637.375    634.951    634.951
 19.370    600.266    637.865    -37.599    634.340    635.386    636.819    634.340    634.340
 19.470    622.000    637.322    -15.322    633.734    634.791    636.265    633.734    633.734
 19.570    614.000    636.784    -22.784    633.131    634.198    635.717    633.131    633.131
 19.670    678.744    636.252     42.492    632.532    633.609    635.174    632.532    632.532
 19.770    651.000    635.726     15.274    631.938    633.025    634.638    631.938    631.938
 19.870    596.870    635.221    -38.350    631.347    632.453    634.114    631.347    631.347
 19.970    644.000    634.757      9.243    630.760    631.910    633.607    630.760    630.760
 20.070    667.000    634.281     32.719    630.178    631.367    633.091    630.178    630.178
 20.170    643.525    633.845      9.680    629.599    630.863    632.581    629.599    629.599
 20.270    614.000    633.361    -19.361    629.025    630.310    632.075    629.025    629.025
 20.370    635.000    632.889      2.111    628.454    629.767    631.577    628.454    628.454
 20.470    603.000    632.443    -29.443    627.888    629.246    631.085    627.888    627.888
 20.570    577.000    632.013    -55.013    627.325    628.738    630.600    627.325    627.325
 20.670    611.000    631.555    -20.555    626.767    628.200    630.121    626.767    626.767
 20.770    638.000    631.102      6.898    626.212    627.664    629.649    626.212    626.212
 20.870    631.000    630.662      0.338    625.662    627.137    629.186    625.662    625.662
 20.970    647.000    630.240     16.760    625.115    626.621    628.734    625.115    625.115
 21.070    647.301    629.814     17.487    624.572    626.102    628.284    624.572    624.572
 21.170    675.002    629.402     45.600    624.033    625.593    627.842    624.033    624.033
 21.270    618.000    629.003    -11.003    623.498    625.094    627.408    623.498    623.498
 21.370    673.317    628.603     44.713    622.968    624.590    626.981    622.968    622.968
 21.470    643.492    628.213     15.279    622.440    624.091    626.562    622.440    622.440
 21.570    679.000    627.832     51.168    621.917    623.597    626.152    621.917    621.917
 21.670    663.000    627.463     35.537    621.398    623.110    625.751    621.398    621.398
 21.770    619.360    627.104     -7.745    620.883    622.629    625.358    620.883    620.883
 21.870    638.000    626.759     11.241    620.371    622.155    624.975    620.371    620.371
 21.970    623.000    626.424     -3.424    619.863    621.686    624.601    619.863    619.863
 22.070    649.000    626.102     22.898    619.360    621.225    624.237    619.360    619.360
 22.170    601.511    625.796    -24.284    618.860    620.771    623.884    618.860    618.860
 22.270    663.000    625.504     37.496    618.363    620.326    623.541    618.363    618.363
 22.370    606.751    625.226    -18.475    617.871    619.888    623.209    617.871    617.871
 22.470    629.000    624.964      4.036    617.383    619.458    622.889    617.383    617.383
 22.570    599.000    624.723    -25.723    616.898    619.039    622.581    616.898    616.898
 22.670    599.000    624.505    -25.505    616.417    618.635    622.287    616.417    616.417
 22.770    626.808    624.303      2.505    615.940    618.238    622.005    615.940    615.940
 22.870    656.000    624.123     31.877    615.466    617.853    621.736    615.466    615.466
 22.970    621.000    623.968     -2.968    614.997    617.483    621.482    614.997    614.997
 23.070    630.684    623.842      6.842    614.531    617.129    621.244    614.531    614.531
 23.170    595.000    623.748    -28.748    614.069    616.795    621.022    614.069    614.069
 23.270    605.141    623.689    -18.548    613.610    616.484    620.816    613.610    613.610
 23.370    583.000    623.671    -40.671    613.155    616.199    620.628    613.155    613.155
 23.470    627.000    623.702      3.298    612.704    615.948    620.459    612.704    612.704
 23.570    603.000    623.789    -20.789    612.257    615.736    620.311    612.257    612.257
 23.670    622.000    623.945     -1.945    611.814    615.575    620.184    611.814    611.814
 23.770    639.000    624.184     14.816    611.374    615.479    620.080    611.374    611.374
 23.870    644.000    624.528     19.472    610.937    615.466    620.001    610.937    610.937
 23.970    619.290    625.011     -5.720    610.505    615.569    619.948    610.505    610.505
 24.070    672.058    625.683     46.375    610.076    615.836    619.925    610.076    610.076
 24.170    589.340    626.638    -37.299    609.650    616.360    619.931    609.650    609.650
 24.270    617.000    628.085    -11.085    609.229    617.347    619.971    609.229    609.229
 24.370    629.000    630.466     -1.466    608.811    619.235    620.046    608.811    608.811
 24.470    642.000    634.622      7.378    608.396    622.865    620.161    608.396    608.396
 24.570    625.000    641.848    -16.848    607.985    629.528    620.318    607.985    607.985
 24.670    663.604    653.536     10.068    607.578    640.613    620.522    607.578    607.578
 24.770    669.000    670.149     -1.149    607.174    656.580    620.776    607.174    607.174
 24.870    694.000    689.464      4.536    606.774    675.197    621.087    606.774    606.774
 24.970    683.000    704.881    -21.881    606.378    689.857    621.459    606.378    606.378
 25.070    684.759    707.860    -23.102    605.984    692.004    621.899    605.984    605.984
 25.170    751.483    696.527     54.956    605.595    679.757    622.415    605.595    605.595
 25.270    627.376    678.413    -51.037    605.209    660.642    623.016    605.209    605.209
 25.370    667.000    661.580      5.420    604.826    642.719    623.711    604.826    604.826
 25.470    635.000    649.498    -14.498    604.447    629.447    624.512    604.447    604.447
 25.570    682.904    642.292     40.612    604.072    620.939    625.433    604.072    604.072
 25.670    653.431    638.710     14.721    603.700    615.925    626.489    603.700    603.700
 25.770    674.272    637.372     36.900    603.331    613.007    627.700    603.331    603.331
 25.870    647.000    637.315      9.685    602.966    611.196    629.087    602.966    602.966
 25.970    654.000    638.025     15.975    602.604    609.953    630.678    602.604    602.604
 26.070    648.000    639.286      8.714    602.246    609.025    632.507    602.246    602.246
 26.170    647.000    641.014      5.986    601.891    608.298    634.607    601.891    601.891
 26.270    635.000    643.202     -8.202    601.540    607.714    637.027    601.540    601.540
 26.370    610.000    645.873    -35.873    601.192    607.240    639.824    601.192    601.192
 26.470    631.556    649.085    -17.528    600.847    606.860    643.070    600.847    600.847
 26.570    700.000    652.917     47.083    600.506    606.565    646.855    600.506    600.506
 26.670    645.078    657.479    -12.400    600.168    606.351    651.293    600.168    600.168
 26.770    692.000    662.916     29.084    599.834    606.217    656.529    599.834    599.834
 26.870    618.000    669.423    -51.423    599.503    606.169    662.752    599.503    599.503
 26.970    736.000    677.259     58.741    599.175    606.216    670.212    599.175    599.175
 27.070    666.032    686.774    -20.742    598.850    606.374    679.243    598.850    598.850
 27.170    729.397    698.448     30.948    598.529    606.666    690.303    598.529    598.529
 27.270    677.000    712.957    -35.957    598.211    607.128    704.030    598.211    598.211
 27.370    749.000    731.264     17.736    597.896    607.808    721.340    597.896    597.896
 27.470    803.025    754.802     48.222    597.585    608.782    743.589    597.585    597.585
 27.570    757.000    786.001    -29.001    597.277    610.177    773.080    597.277    597.277
 27.670    820.000    830.073    -10.073    596.972    612.266    814.748    596.972    596.972
 27.770    846.239    901.710    -55.471    596.670    615.816    882.514    596.670    596.670
 27.870   1045.000   1044.731      0.269    596.372    623.103   1017.901    596.372    596.372
 27.970   1421.491   1369.761     51.730    596.077    639.868   1325.759    596.077    596.077
 28.070   1984.000   2079.937    -95.937    595.785    676.654   1998.658    595.785    595.785
 28.170   3183.000   3390.958   -207.958    595.496    744.663   3241.123    595.496    595.496
 28.270   5025.000   5271.345   -246.345    595.211    842.310   5023.389    595.211    595.211
 28.370   7154.000   7137.440     16.560    594.928    939.439   6792.135    594.928    594.928
 28.470   7868.423   7921.693    -53.270    594.649    980.945   7534.925    594.649    594.649
 28.570   7184.000   7053.292    130.708    594.373    937.804   6709.696    594.373    594.373
 28.670   5568.000   5335.661    232.339    594.100    852.858   5076.869    594.100    594.100
 28.770   3992.000   3917.657     74.343    593.830    787.493   3723.946    593.830    593.830
 28.870   3382.000   3366.765     15.235    593.563    772.685   3187.545    593.563    593.563
 28.970   3681.000   3617.002     63.998    593.300    804.250   3405.964    593.300    593.300
 29.070   4211.000   4188.077     22.923    593.039    851.895   3929.259    593.039    593.039
 29.170   4575.000   4429.984    145.016    592.782    872.035   4150.951    592.782    592.782
 29.270   3925.000   3970.458    -45.458    592.527    839.419   3723.877    592.527    592.527
 29.370   3051.151   3073.837    -22.686    592.276    774.235   2892.158    592.276    592.276
 29.470   2099.000   2184.986    -85.986    592.027    709.403   2067.805    592.027    592.027
 29.570   1462.208   1535.507    -73.300    591.782    662.026   1465.376    591.782    591.782
 29.670   1127.000   1148.551    -21.551    591.540    633.853   1106.295    591.540    591.540
 29.770   1011.000    947.107     63.893    591.301    619.260    919.174    591.301    591.301
 29.870    961.000    846.032    114.968    591.064    612.021    825.088    591.064    591.064
 29.970    781.550    790.870     -9.320    590.831    608.159    773.549    590.831    590.831
 30.070    740.214    755.960    -15.747    590.601    605.810    740.755    590.601    590.601
 30.170    759.638    731.176     28.462    590.373    604.259    717.292    590.373    590.373
 30.270    681.142    712.608    -31.466    590.149    603.262    699.495    590.149    590.149
 30.370    672.692    698.575    -25.883    589.927    602.782    685.718    589.927    589.927
 30.470    638.474    688.446    -49.973    589.709    602.975    675.176    589.709    589.709
 30.570    664.733    682.512    -17.779    589.493    604.299    667.699    589.493    589.493
 30.670    656.974    682.121    -25.147    589.280    607.647    663.742    589.280    589.280
 30.770    733.000    689.437     43.563    589.070    614.258    664.227    589.070    589.070
 30.870    670.176    706.174    -35.998    588.863    625.105    669.896    588.863    588.863
 30.970    765.000    731.155     33.845    588.659    639.693    680.068    588.659    588.659
 31.070    708.768    757.307    -48.539    588.457    654.566    691.128    588.457    588.457
 31.170    816.000    770.886     45.114    588.259    662.934    696.135    588.259    588.259
 31.270    765.000    760.919      4.081    588.063    659.371    689.544    588.063    588.063
 31.370    812.000    732.053     79.947    587.870    646.225    673.649    587.870    587.870
 31.470    766.000    698.055     67.945    587.680    630.380    655.322    587.680    587.680
 31.570    703.000    669.133     33.867    587.493    616.947    639.660    587.493    587.493
 31.670    704.000    648.798     55.202    587.308    607.692    628.402    587.308    587.308
 31.770    639.828    636.163      3.665    587.126    602.192    621.090    587.126    587.126
 31.870    640.334    628.752     11.582    586.947    599.227    616.468    586.947    586.947
 31.970    610.848    624.307    -13.460    586.771    597.682    613.392    586.771    586.771
 32.070    658.000    621.408     36.592    586.597    596.861    611.140    586.597    586.597
 32.170    590.221    619.343    -29.123    586.426    596.420    609.346    586.426    586.426
 32.270    643.000    617.804     25.196    586.258    596.214    607.845    586.258    586.258
 32.370    654.000    616.659     37.341    586.092    596.187    606.562    586.092    586.092
 32.470    644.405    615.852     28.552    585.929    596.321    605.459    585.929    585.929
 32.570    625.000    615.362      9.638    585.769    596.613    604.515    585.769    585.769
 32.670    653.000    615.185     37.815    585.612    597.076    603.718    585.612    585.612
 32.770    603.012    615.339    -12.327    585.457    597.730    603.063    585.457    585.457
 32.870    658.000    615.861     42.139    585.304    598.612    602.552    585.304    585.304
 32.970    657.105    616.810     40.295    585.154    599.770    602.192    585.154    585.154
 33.070    634.000    618.278     15.722    585.007    601.280    602.003    585.007    585.007
 33.170    649.000    620.407     28.593    584.863    603.253    602.014    584.863    584.863
 33.270    635.089    623.432     11.657    584.721    605.867    602.282    584.721    584.721
 33.370    656.000    627.797     28.203    584.581    609.461    602.914    584.581    584.581
 33.470    599.000    634.452    -35.452    584.444    614.748    604.143    584.444    584.444
 33.570    631.000    645.465    -14.465    584.310    623.284    606.484    584.310    584.310
 33.670    645.000    665.003    -20.003    584.178    638.198    610.972    584.178    584.178
 33.770    696.000    700.170     -4.170    584.048    664.825    619.377    584.048    584.048
 33.870    697.000    760.405    -63.405    583.921    710.250    634.049    583.921    583.921
 33.970    864.000    853.738     10.262    583.797    780.505    656.989    583.797    583.797
 34.070    911.000    979.298    -68.298    583.675    874.939    687.980    583.675    583.675
 34.170   1144.568   1117.233     27.335    583.555    978.655    722.073    583.555    583.555
 34.270   1287.000   1222.132     64.868    583.438   1057.568    747.949    583.438    583.438
 34.370   1199.000   1240.671    -41.671    583.324   1071.647    752.315    583.324    583.324
 34.470   1214.915   1160.433     54.482    583.211   1011.560    732.073    583.211    583.211
 34.570   1025.032   1026.112     -1.080    583.101    910.854    698.359    583.101    583.101
 34.670    892.000    891.378      0.622    582.994    809.823    664.552    582.994    582.994
 34.770    781.000    785.034     -4.034    582.889    730.092    637.834    582.889    582.889
 34.870    718.000    713.214      4.786    582.786    676.269    619.733    582.786    582.786
 34.970    665.739    669.830     -4.091    582.685    643.784    608.732    582.685    582.685
 35.070    708.000    645.201     62.799    582.587    625.371    602.417    582.587    582.587
 35.170    714.000    631.150     82.850    582.492    614.891    598.750    582.492    582.492
 35.270    648.000    622.535     25.465    582.398    608.483    596.449    582.398    582.398
 35.370    620.000    616.693      3.307    582.307    604.148    594.851    582.307    582.307
 35.470    629.000    612.389     16.611    582.218    600.959    593.647    582.218    582.218
 35.570    565.455    609.055    -43.600    582.131    598.489    592.696    582.131    582.131
 35.670    602.000    606.400     -4.400    582.047    596.519    591.927    582.047    582.047
 35.770    580.000    604.251    -24.251    581.965    594.919    591.296    581.965    581.965
 35.870    650.000    602.493     47.507    581.885    593.600    590.776    581.885    581.885
 35.970    572.582    601.044    -28.462    581.807    592.502    590.348    581.807    581.807
 36.070    574.000    599.846    -25.846    581.731    591.579    589.998    581.731    581.731
 36.170    587.000    598.856    -11.856    581.658    590.796    589.717    581.658    581.658
 36.270    579.665    598.042    -18.377    581.587    590.129    589.499    581.587    581.587
 36.370    598.000    597.384      0.616    581.518    589.558    589.342    581.518    581.518
 36.470    605.000    596.865      8.135    581.451    589.069    589.246    581.451    581.451
 36.570    616.000    596.477     19.523    581.386    588.650    589.212    581.386    581.386
 36.670    619.000    596.218     22.782    581.323    588.295    589.246    581.323    581.323
 36.770    638.103    596.091     42.013    581.263    587.997    589.356    581.263    581.263
 36.870    550.000    596.105    -46.105    581.204    587.754    589.554    581.204    581.204
 36.970    607.465    596.279     11.186    581.148    587.568    589.858    581.148    581.148
 37.070    637.601    596.646     40.954    581.093    587.446    590.294    581.093    581.093
 37.170    594.985    597.268     -2.283    581.041    587.409    590.900    581.041    581.041
 37.270    581.808    598.259    -16.451    580.991    587.503    591.745    580.991    580.991
 37.370    613.000    599.838     13.162    580.943    587.823    592.958    580.943    580.943
 37.470    639.201    602.427     36.774    580.896    588.518    594.804    580.896    580.896
 37.570    624.000    606.770     17.230    580.852    589.789    597.832    580.852    580.852
 37.670    613.000    614.062     -1.062    580.810    591.811    603.059    580.810    580.810
 37.770    584.000    625.926    -41.926    580.770    594.607    612.086    580.770    580.770
 37.870    693.000    644.026     48.974    580.731    597.856    626.897    580.731    580.731
 37.970    667.000    669.095     -2.095    580.695    600.717    649.068    580.695    580.695
 38.070    676.685    699.689    -23.005    580.660    601.979    678.363    580.660    580.660
 38.170    723.928    731.314     -7.386    580.628    601.024    710.911    580.628    580.628
 38.270    741.000    755.573    -14.573    580.597    598.494    737.671    580.597    580.597
 38.370    720.000    761.424    -41.424    580.569    595.424    746.569    580.569    580.569
 38.470    725.000    744.199    -19.199    580.542    592.491    732.252    580.542    580.542
 38.570    664.000    712.163    -48.163    580.517    590.069    702.615    580.517    580.517
 38.670    648.000    677.691    -29.691    580.494    588.289    669.899    580.494    580.494
 38.770    643.000    648.533     -5.533    580.472    587.088    641.921    580.472    580.472
 38.870    663.000    627.310     35.690    580.453    586.317    621.448    580.453    580.453
 38.970    627.000    613.477     13.523    580.435    585.832    608.081    580.435    580.435
 39.070    624.000    605.117     18.883    580.419    585.525    600.012    580.419    580.419
 39.170    625.119    600.205     24.913    580.405    585.324    595.287    580.405    580.405
 39.270    640.734    597.234     43.500    580.393    585.186    592.440    580.393    580.393
 39.370    607.744    595.295     12.448    580.382    585.090    590.588    580.382    580.382
 39.470    564.000    593.920    -29.920    580.373    585.022    589.271    580.373    580.373
 39.570    544.000    592.880    -48.880    580.366    584.976    588.270    580.366    580.366
 39.670    598.000    592.065      5.935    580.361    584.948    587.478    580.361    580.361
 39.770    620.000    591.413     28.587    580.357    584.936    586.834    580.357    580.357
 39.870    610.000    590.887     19.113    580.355    584.938    586.304    580.355    580.355
 39.970    615.000    590.460     24.540    580.354    584.953    585.862    580.354    580.354
 40.070    590.000    590.112     -0.112    580.356    584.978    585.489    580.356    580.356
 40.170    594.643    589.828      4.815    580.359    585.014    585.173    580.359    580.359
 40.270    589.681    589.605      0.075    580.363    585.066    584.903    580.363    580.363
 40.370    574.000    589.431    -15.431    580.369    585.131    584.670    580.369    580.369
 40.470    586.000    589.301     -3.301    580.377    585.209    584.470    580.377    580.377
 40.570    623.000    589.210     33.790    580.387    585.301    584.296    580.387    580.387
 40.670    576.509    589.155    -12.645    580.398    585.408    584.145    580.398    580.398
 40.770    571.000    589.135    -18.135    580.410    585.532    584.014    580.410    580.410
 40.870    579.000    589.150    -10.150    580.424    585.674    583.901    580.424    580.424
 40.970    611.800    589.200     22.600    580.440    585.838    583.803    580.440    580.440
 41.070    609.000    589.287     19.713    580.457    586.026    583.718    580.457    580.457
 41.170    567.492    589.413    -21.921    580.476    586.243    583.646    580.476    580.476
 41.270    597.000    589.583      7.417    580.496    586.494    583.586    580.496    580.496
 41.370    557.000    589.803    -32.803    580.517    586.785    583.536    580.517    580.517
 41.470    545.000    590.082    -45.082    580.541    587.127    583.497    580.541    580.541
 41.570    591.000    590.430      0.570    580.565    587.529    583.467    580.565    580.565
 41.670    570.000    590.864    -20.864    580.591    588.010    583.447    580.591    580.591
 41.770    578.000    591.409    -13.409    580.618    588.591    583.438    580.618    580.618
 41.870    585.370    592.102     -6.733    580.647    589.312    583.440    580.647    580.647
 41.970    599.768    593.016      6.752    580.678    590.241    583.455    580.678    580.678
 42.070    595.000    594.289      0.711    580.709    591.512    583.489    580.709    580.709
 42.170    567.000    596.197    -29.197    580.742    593.391    583.552    580.742    580.742
 42.270    617.807    599.255     18.552    580.777    596.374    583.663    580.777    580.777
 42.370    574.000    604.303    -30.303    580.812    601.268    583.853    580.812    580.812
 42.470    581.000    612.496    -31.496    580.849    609.187    584.168    580.849    580.849
 42.570    643.000    625.043     17.957    580.888    621.294    584.652    580.888    580.888
 42.670    613.000    642.637    -29.637    580.927    638.256    585.331    580.927    580.927
 42.770    709.443    664.598     44.845    580.968    659.419    586.181    580.968    580.968
 42.870    661.000    687.882    -26.882    581.011    681.854    587.084    581.011    581.011
 42.970    743.921    706.389     37.532    581.054    699.690    587.808    581.054    581.054
 43.070    720.000    712.578      7.422    581.099    705.672    588.066    581.099    581.099
 43.170    733.109    703.222     29.887    581.145    696.690    587.736    581.145    581.145
 43.270    667.000    683.011    -16.011    581.192    677.258    586.994    581.192    581.192
 43.370    644.044    659.676    -15.632    581.240    654.817    586.137    581.240    581.240
 43.470    617.742    638.681    -20.939    581.290    634.626    585.372    581.290    581.290
 43.570    638.000    622.420     15.580    581.341    618.990    584.789    581.341    581.341
 43.670    637.000    611.154     25.846    581.393    608.159    584.399    581.393    581.393
 43.770    587.000    603.992    -16.992    581.446    601.277    584.169    581.446    581.446
 43.870    587.579    599.687    -12.109    581.500    597.144    584.049    581.500    581.500
 43.970    646.000    597.141     48.859    581.556    594.702    583.999    581.556    581.556
 44.070    600.000    595.592      4.408    581.612    593.217    583.990    581.612    581.612
 44.170    586.447    594.591     -8.145    581.670    592.260    584.004    581.670    581.670
 44.270    598.000    593.906      4.094    581.729    591.603    584.033    581.729    581.729
 44.370    555.000    593.417    -38.417    581.789    591.135    584.072    581.789    581.789
 44.470    571.000    593.065    -22.065    581.850    590.797    584.119    581.850    581.850
 44.570    576.000    592.815    -16.815    581.911    590.556    584.172    581.911    581.911
 44.670    592.000    592.647     -0.647    581.974    590.392    584.231    581.974    581.974
 44.770    581.565    592.544    -10.979    582.038    590.289    584.295    582.038    582.038
 44.870    628.000    592.496     35.504    582.103    590.237    584.364    582.103    582.103
 44.970    550.136    592.495    -42.359    582.169    590.228    584.437    582.169    582.169
 45.070    637.065    592.534     44.531    582.236    590.256    584.515    582.236    582.236
 45.170    641.000    592.608     48.392    582.304    590.316    584.597    582.304    582.304
 45.270    592.879    592.716      0.164    582.373    590.405    584.684    582.373    582.373
 45.370    566.000    592.853    -26.853    582.443    590.522    584.774    582.443    582.443
 45.470    591.000    593.019     -2.019    582.514    590.663    584.869    582.514    582.514
 45.570    593.000    593.212     -0.212    582.586    590.828    584.969    582.586    582.586
 45.670    621.000    593.432     27.568    582.658    591.017    585.073    582.658    582.658
 45.770    617.000    593.680     23.320    582.732    591.228    585.183    582.732    582.732
 45.870    573.000    593.955    -20.955    582.806    591.464    585.297    582.806    582.806
 45.970    600.715    594.259      6.456    582.882    591.724    585.417    582.882    582.882
 46.070    567.000    594.594    -27.594    582.958    592.009    585.542    582.958    582.958
 46.170    602.000    594.962      7.038    583.035    592.322    585.674    583.035    583.035
 46.270    608.495    595.366     13.129    583.112    592.665    585.812    583.112    583.112
 46.370    665.000    595.810     69.190    583.191    593.042    585.958    583.191    583.191
 46.470    621.000    596.298     24.702    583.270    593.455    586.112    583.270    583.270
 46.570    626.000    596.838     29.162    583.350    593.911    586.276    583.350    583.350
 46.670    563.635    597.436    -33.801    583.431    594.417    586.449    583.431    583.431
 46.770    606.415    598.104      8.311    583.513    594.981    586.635    583.513    583.513
 46.870    603.000    598.855      4.145    583.596    595.615    586.834    583.596    583.596
 46.970    600.000    599.710      0.290    583.679    596.337    587.049    583.679    583.679
 47.070    644.575    600.703     43.872    583.763    597.178    587.285    583.763    583.763
 47.170    609.953    601.894      8.059    583.847    598.190    587.548    583.847    583.847
 47.270    633.000    603.396     29.604    583.933    599.473    587.852    583.933    583.933
 47.370    623.000    605.418     17.582    584.018    601.213    588.218    584.018    584.018
 47.470    585.000    608.310    -23.310    584.105    603.723    588.686    584.105    584.105
 47.570    672.000    612.604     59.396    584.192    607.474    589.313    584.192    584.192
 47.670    567.000    618.973    -51.973    584.280    613.068    590.172    584.280    584.280
 47.770    605.000    628.080    -23.080    584.369    621.095    591.334    584.369    584.369
 47.870    636.000    640.283     -4.283    584.458    631.873    592.840    584.458    584.458
 47.970    620.000    655.235    -35.235    584.548    645.090    594.656    584.548    584.548
 48.070    676.000    671.423      4.577    584.638    659.393    596.621    584.638    584.638
 48.170    690.000    685.788      4.212    584.729    672.046    598.415    584.729    584.729
 48.270    747.605    694.195     53.409    584.821    679.356    599.600    584.821    584.821
 48.370    693.000    693.814     -0.814    584.913    678.789    599.881    584.913    584.913
 48.470    637.000    685.576    -48.576    585.005    671.172    599.361    585.005    585.005
 48.570    648.799    673.275    -24.476    585.098    659.884    598.451    585.098    585.098
 48.670    649.426    660.769    -11.342    585.192    648.361    597.571    585.192    585.192
 48.770    616.000    650.517    -34.517    585.286    638.791    596.992    585.286    585.286
 48.870    591.000    643.589    -52.589    585.381    632.114    596.842    585.381    585.381
 48.970    642.000    640.103      1.897    585.476    628.416    597.151    585.476    585.476
 49.070    634.000    639.674     -5.674    585.571    627.333    597.904    585.571    585.571
 49.170    615.000    641.804    -26.804    585.667    628.384    599.080    585.667    585.667
 49.270    604.272    646.163    -41.892    585.764    631.224    600.697    585.764    585.764
 49.370    646.000    652.826     -6.826    585.861    635.822    602.858    585.861    585.861
 49.470    645.000    662.624    -17.624    585.958    642.717    605.857    585.958    585.958
 49.570    711.863    677.931     33.932    586.056    653.564    610.413    586.056    586.056
 49.670    681.000    704.255    -23.255    586.154    672.253    618.140    586.154    586.154
 49.770    699.000    752.701    -53.701    586.252    706.653    632.274    586.252    586.252
 49.870    873.358    842.435     30.923    586.351    770.353    658.388    586.351    586.351
 49.970    909.000   1000.576    -91.576    586.450    882.583    704.364    586.450    586.450
 50.070   1162.000   1255.833    -93.833    586.549   1063.710    778.547    586.549    586.549
 50.170   1537.000   1623.828    -86.828    586.649   1324.840    885.455    586.649    586.649
 50.270   1919.000   2087.316   -168.316    586.749   1653.839   1019.994    586.749    586.749
 50.370   2522.000   2580.563    -58.563    586.850   2003.873   1163.289    586.850    586.850
 50.470   3027.018   2986.282     40.736    586.950   2291.881   1281.136    586.950    586.950
 50.570   3197.977   3167.294     30.682    587.051   2420.600   1333.629    587.051    587.051
 50.670   3030.440   3048.998    -18.558    587.152   2337.129   1299.040    587.152    587.152
 50.770   2653.000   2683.654    -30.654    587.254   2078.560   1192.479    587.254    587.254
 50.870   2261.000   2202.645     58.355    587.355   1738.154   1052.031    587.355    587.355
 50.970   1746.000   1730.969     15.031    587.457   1404.699    913.915    587.457    587.457
 51.070   1281.914   1346.368    -64.453    587.559   1133.462    800.623    587.559    587.559
 51.170   1081.000   1075.654      5.346    587.662    943.532    719.902    587.662    587.662
 51.270    932.000    908.509     23.491    587.764    827.521    668.834    587.764    587.764
 51.370    784.353    816.964    -32.611    587.867    765.305    639.583    587.867    587.867
 51.470    796.430    771.326     25.104    587.970    735.245    624.094    587.970    587.970
 51.570    868.000    748.399    119.601    588.073    720.075    616.433    588.073    588.073
 51.670    761.532    733.743     27.789    588.176    708.834    613.115    588.176    588.176
 51.770    751.841    720.956     30.886    588.279    696.824    612.435    588.279    588.279
 51.870    744.000    709.024     34.976    588.382    683.809    613.614    588.382    588.382
 51.970    701.725    698.921      2.804    588.485    671.261    616.155    588.485    588.485
 52.070    672.058    691.367    -19.309    588.589    660.522    619.436    588.589    588.589
 52.170    698.000    686.120     11.880    588.693    652.280    622.529    588.693    588.693
 52.270    707.005    682.132     24.873    588.796    646.650    624.271    588.796    588.796
 52.370    723.000    678.219     44.781    588.900    643.383    623.728    588.900    588.900
 52.470    713.000    673.910     39.090    589.004    642.093    620.813    589.004    589.004
 52.570    658.978    669.677    -10.698    589.107    642.442    616.336    589.107    589.107
 52.670    640.000    666.470    -26.470    589.211    644.275    611.402    589.211    589.211
 52.770    642.000    665.294    -23.294    589.315    647.725    606.881    589.315    589.315
 52.870    711.000    667.189     43.811    589.418    653.347    603.258    589.418    589.418
 52.970    705.000    673.488     31.512    589.522    662.319    600.689    589.522    589.522
 53.070    701.000    686.174     14.826    589.626    676.683    599.115    589.626    589.626
 53.170    746.000    708.187     37.813    589.729    699.522    598.391    589.729    589.729
 53.270    759.000    743.400     15.600    589.833    734.845    598.383    589.833    589.833
 53.370    745.000    795.994    -50.994    589.937    786.916    599.006    589.937    589.937
 53.470    865.000    869.085     -4.085    590.040    858.903    600.212    590.040    590.040
 53.570    900.965    962.743    -61.778    590.143    950.939    601.934    590.143    590.143
 53.670   1119.000   1071.667     47.333    590.246   1057.886    604.013    590.246    590.246
 53.770   1143.503   1182.795    -39.293    590.350   1167.057    606.075    590.350    590.350
 53.870   1327.432   1274.464     52.968    590.453   1257.036    607.872    590.453    590.453
 53.970   1288.000   1320.266    -32.266    590.555   1302.062    608.760    590.555    590.555
 54.070   1314.000   1303.954     10.046    590.658   1286.236    608.387    590.658    590.658
 54.170   1206.707   1232.104    -25.397    590.761   1215.996    606.888    590.761    590.761
 54.270   1160.916   1128.269     32.647    590.863   1114.410    604.743    590.863    590.863
 54.370   1062.714   1017.262     45.452    590.965   1005.785    602.464    590.965    590.965
 54.470    897.000    916.266    -19.266    591.067    906.950    600.402    591.067    591.067
 54.570    831.000    833.984     -2.984    591.169    826.432    598.735    591.169    591.169
 54.670    737.000    772.609    -35.609    591.270    766.382    597.508    591.270    591.270
 54.770    685.470    730.161    -44.691    591.372    724.861    596.678    591.372    591.372
 54.870    686.927    702.644    -15.717    591.473    697.956    596.164    591.473    591.473
 54.970    705.000    685.742     19.258    591.573    681.442    595.876    591.573    591.573
 55.070    666.000    675.832     -9.832    591.674    671.768    595.739    591.674    591.674
 55.170    630.080    670.329    -40.249    591.774    666.405    595.698    591.774    591.774
 55.270    634.584    667.616    -33.032    591.874    663.769    595.722    591.874    591.874
 55.370    707.184    666.787     40.397    591.974    662.970    595.791    591.974    591.974
 55.470    705.000    667.387     37.613    592.073    663.565    595.895    592.073    592.073
 55.570    633.200    669.232    -36.032    592.172    665.372    596.032    592.172    592.172
 55.670    704.933    672.304     32.629    592.271    668.372    596.201    592.271    592.271
 55.770    709.000    676.716     32.284    592.369    672.678    596.406    592.369    592.369
 55.870    672.000    682.752    -10.752    592.467    678.565    596.653    592.467    592.467
 55.970    736.000    690.982     45.018    592.565    686.588    596.957    592.565    592.565
 56.070    672.324    702.514    -30.191    592.662    697.828    597.345    592.662    592.662
 56.170    717.000    719.428     -2.428    592.759    714.312    597.868    592.759    592.759
 56.270    740.786    745.402     -4.616    592.855    739.630    598.617    592.855    592.855
 56.370    794.000    786.436      7.564    592.951    779.632    599.739    592.951    592.951
 56.470    858.000    851.327      6.673    593.047    842.899    601.449    593.047    593.047
 56.570    942.000    951.341     -9.341    593.142    940.421    604.023    593.142    593.142
 56.670   1074.980   1098.426    -23.446    593.237   1083.853    607.755    593.237    593.237
 56.770   1240.000   1301.627    -61.627    593.331   1282.022    612.866    593.331    593.331
 56.870   1547.000   1562.040    -15.040    593.425   1536.000    619.385    593.425    593.425
 56.970   1930.000   1867.296     62.704    593.518   1833.725    627.009    593.518    593.518
 57.070   2199.000   2186.743     12.257    593.611   2145.303    634.990    593.611    593.611
 57.170   2535.620   2469.299     66.321    593.703   2420.905    642.079    593.703    593.703
 57.270   2774.000   2650.333    123.667    593.795   2597.479    646.696    593.795    593.795
 57.370   2632.559   2676.566    -44.007    593.886   2623.032    647.539    593.886    593.886
 57.470   2610.000   2539.357     70.643    593.977   2489.106    644.399    593.977    593.977
 57.570   2280.576   2281.602     -1.026    594.067   2237.531    638.330    594.067    594.067
 57.670   1949.000   1968.663    -19.663    594.157   1932.064    630.939    594.157    594.157
 57.770   1600.000   1657.408    -57.408    594.246   1628.180    623.632    594.246    594.246
 57.870   1327.000   1384.640    -57.640    594.335   1361.763    617.337    594.335    594.335
 57.970   1124.414   1167.868    -43.454    594.423   1149.846    612.536    594.423    594.423
 58.070   1059.232   1009.837     49.395    594.510    995.004    609.405    594.510    594.510
 58.170    892.000    904.114    -12.114    594.597    890.770    607.978    594.597    594.597
 58.270    884.038    840.595     43.444    594.683    826.968    608.328    594.683    594.683
 58.370    789.000    809.745    -20.745    594.769    793.842    610.675    594.769    594.769
 58.470    752.224    804.894    -52.669    594.853    784.326    615.411    594.853    594.853
 58.570    793.000    822.536    -29.536    594.938    794.488    622.962    594.938    594.938
 58.670    870.113    861.257      8.856    595.021    822.707    633.536    595.021    595.021
 58.770    900.169    919.945    -19.776    595.104    868.198    646.805    595.104    595.104
 58.870   1041.757    995.921     45.837    595.187    929.413    661.641    595.187    595.187
 58.970    946.000   1083.454   -137.454    595.268   1002.655    676.013    595.268    595.268
 59.070   1174.496   1173.275      1.221    595.349   1081.376    687.203    595.349    595.349
 59.170   1219.000   1254.321    -35.321    595.429   1157.094    692.626    595.429    595.429
 59.270   1206.000   1317.706   -111.706    595.509   1222.041    691.164    595.509    595.509
 59.370   1337.000   1358.789    -21.789    595.588   1270.578    683.810    595.588    595.588
 59.470   1371.000   1374.927     -3.927    595.666   1297.863    672.762    595.666    595.666
 59.570   1363.000   1364.805     -1.805    595.743   1300.380    660.212    595.743    595.743
 59.670   1317.000   1332.627    -15.627    595.820   1280.594    647.896    595.820    595.820
 59.770   1348.000   1290.416     57.584    595.895   1249.302    637.036    595.895    595.895
 59.870   1324.000   1253.311     70.689    595.970   1221.006    628.272    595.970    595.970
 59.970   1266.000   1233.380     32.620    596.045   1207.717    621.662    596.045    596.045
 60.070   1300.876   1237.458     63.418    596.118   1216.601    616.882    596.118    596.118
 60.170   1223.750   1268.371    -44.621    596.191   1250.938    613.481    596.191    596.191
 60.270   1347.000   1326.043     20.957    596.263   1311.044    611.070    596.263    596.263
 60.370   1452.313   1405.857     46.456    596.334   1392.573    609.383    596.334    596.334
 60.470   1449.000   1495.750    -46.750    596.404   1483.645    608.243    596.404    596.404
 60.570   1652.000   1575.333     76.667    596.473   1563.997    607.531    596.473    596.473
 60.670   1661.000   1619.441     41.559    596.542   1608.554    607.162    596.542    596.542
 60.770   1644.000   1607.703     36.297    596.609   1596.999    607.081    596.609    596.609
 60.870   1528.000   1536.009     -8.009    596.676   1525.249    607.250    596.676    596.676
 60.970   1479.863   1418.931     60.932    596.742   1407.884    607.650    596.742    596.742
 61.070   1293.000   1280.265     12.735    596.807   1268.691    608.282    596.807    596.807
 61.170   1174.610   1142.262     32.348    596.871   1129.888    609.178    596.871    596.871
 61.270    990.583   1020.742    -30.158    596.935   1007.208    610.422    596.935    596.935
 61.370    945.306    924.569     20.736    596.997    909.342    612.189    596.997    596.997
 61.470    856.148    856.969     -0.821    597.059    839.195    614.802    597.059    597.059
 61.570    870.900    817.674     53.226    597.119    795.958    618.803    597.119    597.119
 61.670    769.000    805.302    -36.302    597.179    777.419    625.022    597.179    597.179
 61.770    806.000    819.252    -13.252    597.237    781.832    634.604    597.237    597.237
 61.870    817.961    860.519    -42.558    597.295    808.820    648.921    597.295    597.295
 61.970    921.852    931.215     -9.363    597.352    859.125    669.340    597.352    597.352
 62.070   1030.000   1032.899     -2.899    597.407    933.364    696.805    597.407    597.407
 62.170   1167.000   1164.220      2.780    597.462   1030.200    731.305    597.462    597.462
 62.270   1261.079   1318.517    -57.439    597.516   1144.472    771.341    597.516    597.516
 62.370   1546.883   1481.945     64.938    597.569   1265.742    813.515    597.569    597.569
 62.470   1637.000   1632.613      4.387    597.621   1377.605    852.347    597.621    597.621
 62.570   1664.006   1742.198    -78.193    597.671   1458.876    880.711    597.671    597.671
 62.670   1768.000   1783.585    -15.585    597.721   1489.279    891.771    597.721    597.721
 62.770   1711.000   1744.645    -33.645    597.770   1459.734    882.473    597.770    597.770
 62.870   1569.404   1636.386    -66.982    597.818   1378.444    855.610    597.818    597.818
 62.970   1472.620   1485.393    -12.773    597.864   1265.251    817.908    597.864    597.864
 63.070   1257.375   1320.011    -62.637    597.910   1141.319    776.544    597.910    597.910
 63.170   1168.000   1162.334      5.666    597.955   1023.149    737.110    597.955    597.955
 63.270    972.000   1026.269    -54.269    597.998    921.123    703.130    597.998    597.998
 63.370    913.000    918.160     -5.160    598.040    839.978    676.216    598.040    598.040
 63.470    827.000    838.389    -11.389    598.082    779.996    656.470    598.082    598.082
 63.570    806.000    783.493     22.507    598.122    738.588    643.021    598.122    598.122
 63.670    737.286    748.320    -11.034    598.161    711.903    634.570    598.161    598.161
 63.770    695.000    727.757    -32.757    598.199    696.118    629.826    598.199    598.199
 63.870    724.000    717.801      6.199    598.236    688.237    627.785    598.236    598.236
 63.970    749.000    716.055     32.945    598.272    686.435    627.872    598.272    598.272
 64.070    733.638    721.796     11.842    598.307    690.092    629.986    598.307    598.307
 64.170    705.000    735.761    -30.761    598.340    699.575    634.493    598.340    598.340
 64.270    774.465    759.911     14.554    598.372    716.007    642.233    598.372    598.372
 64.370    769.000    797.007    -28.007    598.404    740.884    654.468    598.404    598.404
 64.470    829.000    849.978    -20.978    598.434    775.589    672.744    598.434    598.434
 64.570    873.109    921.057    -47.948    598.463    820.799    698.617    598.463    598.463
 64.670    991.000   1010.695    -19.695    598.490    875.831    733.222    598.490    598.490
 64.770   1092.000   1116.377    -24.377    598.517    938.019    776.714    598.517    598.517
 64.870   1283.000   1231.539     51.461    598.542   1002.196    827.697    598.542    598.542
 64.970   1295.787   1344.983    -49.196    598.566   1060.600    882.742    598.566    598.566
 65.070   1460.000   1441.678     18.322    598.589   1103.936    936.117    598.589    598.589
 65.170   1523.383   1505.807     17.576    598.611   1124.191    980.022    598.611    598.611
 65.270   1545.636   1525.576     20.060    598.632   1118.052   1005.976    598.632    598.632
 65.370   1464.000   1497.569    -33.569    598.651   1088.249   1007.827    598.651    598.651
 65.470   1399.623   1428.358    -28.735    598.669   1041.945    984.976    598.669    598.669
 65.570   1434.000   1332.009    101.991    598.686    987.814    942.812    598.686    598.686
 65.670   1195.012   1224.614    -29.602    598.701    933.491    889.787    598.701    598.701
 65.770   1137.000   1119.456     17.544    598.716    884.121    834.036    598.716    598.716
 65.870    983.000   1024.980    -41.980    598.729    842.045    781.666    598.729    598.729
 65.970    961.000    944.999     16.001    598.741    807.321    736.432    598.741    598.741
 66.070    907.000    880.010     26.990    598.751    778.794    699.987    598.751    598.751
 66.170    769.000    828.779    -59.779    598.760    755.211    672.348    598.760    598.760
 66.270    818.551    789.448     29.102    598.768    735.772    652.461    598.768    598.768
 66.370    772.600    760.014     12.586    598.775    720.047    638.753    598.775    598.775
 66.470    708.000    738.527    -30.527    598.781    707.726    629.589    598.781    598.781
 66.570    759.293    723.277     36.015    598.785    698.521    623.545    598.785    598.785
 66.670    696.000    712.911    -16.911    598.787    692.166    619.533    598.787    598.787
 66.770    691.000    706.454    -15.454    598.789    688.444    616.797    598.789    598.789
 66.870    681.000    703.265    -22.265    598.789    687.197    614.855    598.789    598.789
 66.970    686.000    703.005    -17.005    598.788    688.370    613.420    598.788    598.788
 67.070    704.646    705.656     -1.010    598.785    692.106    612.333    598.785    598.785
 67.170    680.000    711.631    -31.631    598.782    698.894    611.516    598.782    598.782
 67.270    710.000    721.954    -11.954    598.776    709.783    610.945    598.776    598.776
 67.370    685.000    738.502    -53.502    598.770    726.634    610.635    598.770    598.770
 67.470    747.000    764.273    -17.273    598.762    752.390    610.642    598.762    598.762
 67.570    752.330    803.575    -51.245    598.753    791.266    611.056    598.753    598.753
 67.670    812.000    861.993    -49.993    598.742    848.722    612.005    598.742    598.742
 67.770    886.000    945.969    -59.969    598.730    931.048    613.640    598.730    598.730
 67.870   1004.000   1061.815    -57.815    598.717   1044.410    616.108    598.717    598.717
 67.970   1204.000   1214.174    -10.174    598.702   1193.343    619.518    598.702    598.702
 68.070   1433.000   1404.071     28.929    598.686   1378.853    623.890    598.686    598.686
 68.170   1575.000   1626.901    -51.901    598.668   1596.456    629.106    598.668    598.668
 68.270   1813.000   1870.687    -57.687    598.649   1834.479    634.866    598.649    598.649
 68.370   2158.244   2114.852     43.392    598.629   2072.856    640.658    598.629    598.629
 68.470   2327.888   2330.024     -2.136    598.607   2282.947    645.754    598.607    598.607
 68.570   2553.000   2480.996     72.004    598.584   2430.416    649.281    598.584    598.584
 68.670   2524.000   2536.265    -12.265    598.559   2484.536    650.458    598.559    598.559
 68.770   2546.000   2482.600     63.400    598.533   2432.395    648.956    598.533    598.533
 68.870   2277.000   2332.837    -55.837    598.506   2286.502    645.090    598.506    598.506
 68.970   2111.760   2118.283     -6.523    598.477   2077.385    639.634    598.477    598.477
 69.070   1837.000   1874.158    -37.158    598.447   1839.397    633.456    598.447    598.447
 69.170   1601.196   1629.958    -28.762    598.415   1601.311    627.284    598.415    598.415
 69.270   1426.000   1406.408     19.592    598.382   1383.347    621.631    598.382    598.382
 69.370   1275.316   1215.618     59.699    598.347   1197.322    616.796    598.347    598.347
 69.470   1153.000   1062.299     90.701    598.311   1047.835    612.893    598.311    598.311
 69.570    931.863    945.495    -13.632    598.273    933.956    609.900    598.273    598.273
 69.670    932.000    860.594     71.406    598.234    851.190    607.701    598.234    598.234
 69.770    881.000    801.271     79.729    598.194    793.369    606.140    598.194    598.194
 69.870    703.376    761.045    -57.670    598.152    754.170    605.056    598.152    598.152
 69.970    766.636    734.254     32.381    598.108    728.073    604.310    598.108    598.108
 70.070    726.000    716.485      9.515    598.063    710.770    603.791    598.063    598.063
 70.170    678.934    704.593    -25.659    598.017    699.198    603.421    598.017    598.017
 70.270    665.000    696.502    -31.502    597.969    691.331    603.145    597.969    597.969
 70.370    683.000    690.939     -7.939    597.920    685.920    602.942    597.920    597.920
 70.470    771.000    687.152     83.848    597.869    682.233    602.788    597.869    597.869
 70.570    732.000    684.731     47.269    597.816    679.873    602.673    597.816    597.816
 70.670    667.989    683.484    -15.495    597.762    678.651    602.593    597.762    597.762
 70.770    682.836    683.370     -0.534    597.707    678.526    602.547    597.707    597.707
 70.870    718.000    684.485     33.515    597.650    679.589    602.541    597.650    597.650
 70.970    706.000    687.091     18.909    597.592    682.092    602.582    597.592    597.592
 71.070    671.000    691.683    -20.683    597.532    686.516    602.688    597.532    597.532
 71.170    730.649    699.098     31.551    597.470    693.667    602.886    597.470    597.470
 71.270    723.000    710.650     12.350    597.407    704.816    603.221    597.407    597.407
 71.370    701.129    728.263    -27.135    597.342    721.823    603.755    597.342    597.342
 71.470    757.000    754.568      2.432    597.276    747.231    604.575    597.276    597.276
 71.570    775.743    792.878    -17.136    597.209    784.242    605.792    597.209    597.209
 71.670    816.000    846.972    -30.972    597.139    836.511    607.529    597.139    597.139
 71.770    908.000    920.613    -12.613    597.069    907.675    609.910    597.069    597.069
 71.870    970.000   1016.798    -46.798    596.997   1000.632    613.036    596.997    596.997
 71.970   1129.000   1136.789     -7.789    596.923   1116.604    616.948    596.923    596.923
 72.070   1249.000   1279.075    -30.075    596.847   1254.129    621.598    596.847    596.847
 72.170   1416.000   1438.416    -22.416    596.770   1408.141    626.817    596.770    596.770
 72.270   1635.668   1605.094     30.574    596.692   1569.241    632.287    596.692    596.692
 72.370   1820.777   1764.515     56.262    596.612   1723.318    637.533    596.612    596.612
 72.470   1844.958   1897.702    -52.743    596.530   1852.018    641.935    596.530    596.530
 72.570   1980.000   1983.982     -3.982    596.447   1935.347    644.817    596.447    596.447
 72.670   1971.000   2006.974    -35.974    596.362   1957.455    645.645    596.362    596.362
 72.770   1971.000   1961.735      9.265    596.276   1913.555    644.258    596.276    596.276
 72.870   1827.244   1857.409    -30.165    596.188   1812.480    640.959    596.188    596.188
 72.970   1756.000   1712.643     43.357    596.099   1672.265    636.356    596.099    596.099
 73.070   1526.000   1548.161    -22.161    596.008   1512.956    631.124    596.008    596.008
 73.170   1425.118   1381.707     43.412    595.915   1351.724    625.834    595.915    595.915
 73.270   1269.000   1226.250     42.750    595.821   1201.133    620.893    595.821    595.821
 73.370   1082.000   1089.936     -7.936    595.725   1069.081    616.549    595.725    595.725
 73.470    945.000    976.645    -31.645    595.628    959.342    612.910    595.628    595.628
 73.570    827.346    886.847    -59.500    595.529    872.379    609.981    595.529    595.529
 73.670    771.934    818.604    -46.670    595.429    806.313    607.707    595.429    595.429
 73.770    732.000    768.612    -36.612    595.327    757.922    606.005    595.327    595.327
 73.870    729.000    733.093     -4.093    595.223    723.521    604.785    595.223    595.223
 73.970    676.555    708.457    -31.902    595.118    699.601    603.967    595.118    595.118
 74.070    699.000    691.686      7.314    595.011    683.203    603.489    595.011    595.011
 74.170    710.000    680.474     29.526    594.902    672.061    603.312    594.902    594.902
 74.270    655.030    673.200    -18.169    594.792    664.572    603.418    594.792    594.792
 74.370    728.000    668.796     59.204    594.681    659.673    603.805    594.681    594.681
 74.470    617.975    666.592    -48.617    594.568    656.692    604.472    594.568    594.568
 74.570    663.000    666.158     -3.158    594.453    655.202    605.417    594.453    594.453
 74.670    653.475    667.176    -13.701    594.336    654.904    606.623    594.336    594.336
 74.770    671.000    669.345      1.655    594.218    655.537    608.046    594.218    594.218
 74.870    641.000    672.313    -31.313    594.099    656.820    609.616    594.099    594.099
 74.970    700.000    675.635     24.365    593.978    658.417    611.226    593.978    593.978
 75.070    693.531    678.761     14.770    593.855    659.916    612.736    593.855    593.855
 75.170    735.000    681.075     53.925    593.730    660.863    613.983    593.730    593.730
 75.270    716.312    682.026     34.287    593.604    660.846    614.828    593.604    593.604
 75.370    741.000    681.326     59.674    593.477    659.641    615.206    593.477    593.477
 75.470    694.000    679.112     14.888    593.348    657.319    615.182    593.348    593.348
 75.570    698.504    675.926     22.577    593.217    654.233    614.947    593.217    593.217
 75.670    677.678    672.562      5.117    593.084    650.898    614.779    593.084    593.084
 75.770    715.000    669.912     45.088    592.950    647.879    615.007    592.950    592.950
 75.870    674.381    668.895      5.486    592.815    645.730    615.994    592.815    592.815
 75.970    699.000    670.441     28.559    592.678    644.984    618.140    592.678    592.678
 76.070    645.000    675.493    -30.493    592.539    646.153    621.876    592.539    592.539
 76.170    693.000    684.987      8.013    592.398    649.717    627.654    592.398    592.398
 76.270    704.000    699.780      4.220    592.256    656.105    635.907    592.256    592.256
 76.370    712.000    720.547     -8.547    592.113    665.636    646.987    592.113    592.113
 76.470    737.000    747.622    -10.622    591.968    678.453    661.086    591.968    591.968
 76.570    747.000    780.825    -33.825    591.821    694.442    678.139    591.821    591.821
 76.670    863.770    819.282     44.489    591.672    713.141    697.734    591.672    591.672
 76.770    867.000    861.273      5.727    591.522    733.671    719.031    591.522    591.522
 76.870    890.097    904.120    -14.023    591.371    754.678    740.708    591.371    591.371
 76.970    931.243    944.153    -12.909    591.218    774.316    760.941    591.218    591.218
 77.070    916.445    976.885    -60.440    591.063    790.336    777.493    591.063    591.063
 77.170    965.487    997.668    -32.181    590.906    800.411    788.046    590.906    590.906
 77.270   1031.419   1002.944     28.474    590.748    802.758    790.824    590.748    590.748
 77.370   1005.765    991.644     14.122    590.589    796.838    785.294    590.589    590.589
 77.470    967.000    965.690      1.310    590.428    783.613    772.417    590.428    590.428
 77.570    880.787    929.124    -48.337    590.265    765.097    754.218    590.265    590.265
 77.670    863.000    886.641    -23.641    590.101    743.632    733.049    590.101    590.101
 77.770    833.177    842.481     -9.304    589.935    721.335    711.032    589.935    589.935
 77.870    759.000    799.952    -40.952    589.767    699.857    689.824    589.767    589.767
 77.970    759.000    761.340     -2.340    589.598    680.339    670.570    589.598    589.598
 78.070    675.000    727.985    -52.985    589.428    663.449    653.942    589.428    589.428
 78.170    686.586    700.413    -13.828    589.255    649.448    640.204    589.255    589.255
 78.270    687.352    678.511      8.840    589.081    638.281    629.299    589.081    589.081
 78.370    667.556    661.726      5.830    588.906    629.669    620.954    588.906    588.906
 78.470    640.000    649.261     -9.261    588.729    623.214    614.769    588.729    588.729
 78.570    668.000    640.246     27.754    588.551    618.480    610.310    588.551    588.551
 78.670    675.700    633.857     41.843    588.371    615.056    607.166    588.371    588.371
 78.770    673.997    629.391     44.607    588.189    612.588    604.986    588.189    588.189
 78.870    606.000    626.294    -20.294    588.006    610.800    603.495    588.006    588.006
 78.970    612.000    624.160    -12.160    587.821    609.487    602.489    587.821    587.821
 79.070    570.000    622.707    -52.707    587.635    608.507    601.830    587.635    587.635
 79.170    595.000    621.754    -26.754    587.447    607.769    601.427    587.447    587.447
 79.270    591.148    621.195    -30.047    587.257    607.217    601.231    587.257    587.257
 79.370    597.000    620.980    -23.980    587.066    606.824    601.218    587.066    587.066
 79.470    576.000    621.099    -45.099    586.874    606.581    601.388    586.874    586.874
 79.570    588.000    621.581    -33.581    586.680    606.494    601.762    586.680    586.680
 79.670    629.000    622.493      6.507    586.484    606.583    602.389    586.484    586.484
 79.770    607.000    623.945    -16.945    586.287    606.878    603.349    586.287    586.287
 79.870    606.000    626.111    -20.111    586.088    607.421    604.771    586.088    586.088
 79.970    589.325    629.248    -39.923    585.888    608.271    606.857    585.888    585.888
 80.070    594.309    633.731    -39.423    585.686    609.503    609.905    585.686    585.686
 80.170    640.050    640.086     -0.036    585.483    611.216    614.341    585.483    585.483
 80.270    651.000    649.025      1.975    585.278    613.539    620.750    585.278    585.278
 80.370    691.577    661.471     30.105    585.072    616.635    629.890    585.072    585.072
 80.470    691.635    678.548     13.087    584.864    620.704    642.683    584.864    584.864
 80.570    699.000    701.525     -2.525    584.655    625.982    660.167    584.655    584.655
 80.670    740.000    731.708      8.292    584.444    632.724    683.389    584.444    584.444
 80.770    814.000    770.269     43.731    584.232    641.196    713.259    584.232    584.232
 80.870    876.000    818.038     57.962    584.018    651.651    750.351    584.018    584.018
 80.970    896.486    875.261     21.225    583.803    664.308    794.693    583.803    583.803
 81.070    939.531    941.339     -1.808    583.586    679.306    845.550    583.586    583.586
 81.170   1035.000   1014.570     20.430    583.368    696.621    901.243    583.368    583.368
 81.270   1076.732   1091.962    -15.230    583.148    715.990    959.044    583.148    583.148
 81.370   1227.000   1169.200     57.800    582.927    736.849   1015.206    582.927    582.927
 81.470   1267.000   1240.891     26.109    582.704    758.332   1065.199    582.704    582.704
 81.570   1273.585   1301.203    -27.617    582.480    779.340   1104.292    582.480    582.480
 81.670   1455.000   1344.904    110.096    582.254    798.689   1128.435    582.254    582.254
 81.770   1468.000   1368.445     99.555    582.027    815.286   1135.169    582.027    582.027
 81.870   1412.000   1370.525     41.475    581.799    828.255   1124.071    581.799    581.799
 81.970   1401.000   1351.992     49.008    581.569    836.982   1096.599    581.569    581.569
 82.070   1372.000   1315.661     56.339    581.337    841.297   1055.740    581.337    581.337
 82.170   1349.000   1265.526     83.474    581.105    841.246   1005.439    581.105    581.105
 82.270   1237.000   1206.225     30.775    580.870    837.083    950.077    580.870    580.870
 82.370   1196.000   1142.239     53.761    580.635    829.126    893.821    580.635    580.635
 82.470   1128.814   1077.366     51.447    580.398    817.738    840.104    580.398    580.398
 82.570   1086.000   1014.579     71.421    580.159    803.450    791.368    580.159    580.159
 82.670    942.000    956.059    -14.059    579.919    787.019    749.038    579.919    579.919
 82.770    914.742    903.206     11.536    579.678    769.318    713.641    579.678    579.678
 82.870    855.000    856.635     -1.635    579.435    751.138    685.002    579.435    579.435
 82.970    849.358    816.289     33.068    579.191    733.079    662.466    579.191    579.191
 83.070    821.228    781.705     39.523    578.946    715.580    645.128    578.946    578.946
 83.170    733.535    752.294    -18.759    578.699    699.020    632.023    578.699    578.699
 83.270    774.011    727.539     46.472    578.451    683.775    622.257    578.451    578.451
 83.370    664.624    707.053    -42.429    578.201    670.208    615.079    578.201    578.201
 83.470    690.366    690.557     -0.192    577.951    658.630    609.903    577.951    577.951
 83.570    709.705    677.837     31.868    577.698    649.259    606.292    577.698    577.698
 83.670    681.000    668.703     12.297    577.445    642.215    603.940    577.445    577.445
 83.770    681.192    662.959     18.232    577.190    637.515    602.633    577.190    577.190
 83.870    700.498    660.366     40.132    576.934    635.075    602.214    576.934    576.934
 83.970    652.066    660.608     -8.542    576.676    634.711    602.554    576.676    576.676
 84.070    701.874    663.264     38.610    576.417    636.135    603.518    576.417    576.417
 84.170    616.000    667.795    -51.795    576.157    638.963    604.952    576.157    576.157
 84.270    629.000    673.537    -44.537    575.896    642.717    606.671    575.896    575.896
 84.370    637.000    679.709    -42.709    575.633    646.837    608.454    575.633    575.633
 84.470    662.000    685.442    -23.442    575.369    650.706    610.049    575.369    575.369
 84.570    680.000    689.838     -9.838    575.104    653.689    611.194    575.104    575.104
 84.670    657.000    692.089    -35.089    574.837    655.217    611.649    574.837    574.837
 84.770    735.306    691.637     43.669    574.569    654.897    611.252    574.569    574.569
 84.870    665.000    688.323    -23.323    574.300    652.609    609.960    574.300    574.300
 84.970    641.000    682.414    -41.414    574.030    648.528    607.866    574.030    574.030
 85.070    709.444    674.498     34.946    573.759    643.051    605.161    573.759    573.759
 85.170    663.000    665.314     -2.314    573.486    636.675    602.086    573.486    573.486
 85.270    687.490    655.599     31.890    573.212    629.894    598.885    573.212    573.212
 85.370    589.000    646.003    -57.003    572.937    623.135    595.777    572.937    572.937
 85.470    601.000    637.057    -36.057    572.660    616.744    592.950    572.660    572.660
 85.570    630.000    629.157      0.843    572.383    610.962    590.557    572.383    572.383
 85.670    670.124    622.569     47.555    572.104    605.939    588.716    572.104    572.104
 85.770    601.000    617.445    -16.445    571.824    601.739    587.515    571.824    571.824
 85.870    596.243    613.844    -17.601    571.543    598.357    587.014    571.543    571.543
 85.970    641.000    611.750     29.250    571.261    595.743    587.253    571.261    571.261
 86.070    600.000    611.101    -11.101    570.977    593.816    588.246    570.977    570.977
 86.170    605.644    611.801     -6.157    570.693    592.490    589.985    570.693    570.693
 86.270    578.440    613.729    -35.290    570.407    591.685    592.431    570.407    570.407
 86.370    652.000    616.753     35.247    570.120    591.340    595.510    570.120    570.120
 86.470    635.776    620.722     15.055    569.833    591.423    599.104    569.833    569.833
 86.570    613.000    625.466    -12.466    569.544    591.933    603.046    569.544    569.544
 86.670    619.000    630.800    -11.800    569.254    592.902    607.116    569.254    569.254
 86.770    652.848    636.515     16.334    568.962    594.397    611.040    568.962    568.962
 86.870    672.714    642.386     30.328    568.670    596.509    614.503    568.670    568.670
 86.970    610.369    648.195    -37.826    568.377    599.355    617.167    568.377    568.377
 87.070    681.430    653.760     27.670    568.083    603.061    618.726    568.083    568.083
 87.170    735.000    658.996     76.004    567.787    607.752    618.969    567.787    567.787
 87.270    657.034    663.952     -6.918    567.491    613.533    617.842    567.491    567.491
 87.370    671.000    668.802      2.198    567.194    620.466    615.455    567.194    567.194
 87.470    669.000    673.780     -4.780    566.895    628.545    612.047    566.895    566.895
 87.570    739.000    679.083     59.917    566.596    637.672    607.914    566.596    566.596
 87.670    679.741    684.797     -5.056    566.295    647.636    603.354    566.295    566.295
 87.770    662.870    690.845    -27.975    565.994    658.095    598.631    565.994    565.994
 87.870    668.469    696.966    -28.497    565.692    668.568    593.967    565.692    565.692
 87.970    685.655    702.719    -17.064    565.388    678.440    589.537    565.388    565.388
 88.070    723.000    707.512     15.488    565.084    686.993    585.467    565.084    565.084
 88.170    682.000    710.685    -28.685    564.779    693.490    581.836    564.779    564.779
 88.270    690.000    711.661    -21.661    564.473    697.319    578.678    564.473    564.473
 88.370    701.000    710.111     -9.111    564.166    698.156    575.991    564.166    564.166
 88.470    683.000    706.073    -23.073    563.858    696.067    573.743    563.858    563.858
 88.570    665.000    699.932    -34.932    563.549    691.483    571.890    563.549    563.549
 88.670    721.000    692.306     28.694    563.240    685.075    570.377    563.240    563.240
 88.770    647.000    683.912    -36.912    562.929    677.612    569.151    562.929    562.929
 88.870    695.000    675.467     19.533    562.618    669.859    568.163    562.618    562.618
 88.970    659.000    667.633     -8.633    562.306    662.521    567.369    562.306    562.306
 89.070    701.000    660.977     40.023    561.993    656.202    566.734    561.993    561.993
 89.170    649.881    655.938     -6.057    561.679    651.367    566.228    561.679    561.679
 89.270    615.000    652.795    -37.795    561.364    648.321    565.829    561.364    561.364
 89.370    673.000    651.653     21.347    561.049    647.189    565.515    561.049    561.049
 89.470    614.000    652.444    -38.444    560.733    647.919    565.269    560.733    560.733
 89.570    659.000    654.930      4.070    560.416    650.294    565.074    560.416    560.416
 89.670    651.000    658.721     -7.721    560.098    653.940    564.911    560.098    560.098
 89.770    709.267    663.297     45.969    559.780    658.355    564.761    559.780    559.780
 89.870    695.000    668.032     26.968    559.461    662.935    564.605    559.461    559.461
 89.970    679.000    672.236      6.764    559.141    667.011    564.421    559.141    559.141
 90.070    685.916    675.225     10.692    558.821    669.919    564.187    558.821    558.821
 90.170    671.000    676.412     -5.412    558.499    671.090    563.885    558.499    558.499
 90.270    643.956    675.425    -31.469    558.178    670.163    563.507    558.178    558.178
 90.370    667.000    672.184     -5.184    557.855    667.057    563.049    557.855    557.855
 90.470    637.340    666.897    -29.556    557.532    661.973    562.521    557.532    557.532
 90.570    612.053    659.987    -47.934    557.208    655.319    561.938    557.208    557.208
 90.670    677.004    651.980     25.024    556.884    647.602    561.318    556.884    556.884
 90.770    654.000    643.405     10.595    556.559    639.334    560.680    556.559    556.559
 90.870    680.027    634.739     45.288    556.233    630.976    560.040    556.233    556.233
 90.970    590.000    626.376    -36.376    555.907    622.910    559.411    555.907    555.907
 91.070    609.000    618.619     -9.619    555.580    615.427    558.803    555.580    555.580
 91.170    613.000    611.676      1.324    555.253    608.729    558.225    555.253    555.253
 91.270    634.595    605.671     28.924    554.925    602.937    557.679    554.925    554.925
 91.370    611.000    600.652     10.348    554.597    598.096    557.168    554.597    554.597
 91.470    617.000    596.608     20.392    554.268    594.196    556.691    554.268    554.268
 91.570    606.000    593.485     12.515    553.939    591.185    556.247    553.939    553.939
 91.670    571.000    591.210    -20.210    553.609    588.991    555.832    553.609    553.609
 91.770    621.000    589.700     31.300    553.279    587.537    555.445    553.279    553.279
 91.870    566.439    588.887    -22.448    552.949    586.753    555.082    552.949    552.949
 91.970    606.000    588.721     17.279    552.618    586.593    554.744    552.618    552.618
 92.070    626.000    589.184     36.816    552.286    587.039    554.428    552.286    552.286
 92.170    618.000    590.296     27.704    551.954    588.109    554.136    551.954    551.954
 92.270    587.334    592.111     -4.778    551.622    589.855    553.871    551.622    551.622
 92.370    631.000    594.722     36.278    551.290    592.367    553.635    551.290    551.290
 92.470    579.449    598.252    -18.804    550.957    595.765    553.432    550.957    550.957
 92.570    602.046    602.852     -0.806    550.624    600.192    553.268    550.624    550.624
 92.670    625.000    608.685     16.315    550.290    605.809    553.148    550.290    550.290
 92.770    609.528    615.916     -6.389    549.957    612.774    553.076    549.957    549.957
 92.870    642.000    624.698     17.302    549.622    621.236    553.056    549.622    549.622
 92.970    678.664    635.151     43.513    549.288    631.313    553.092    549.288    549.288
 93.070    635.452    647.348    -11.897    548.954    643.079    553.182    548.954    548.954
 93.170    703.899    661.301     42.598    548.619    656.545    553.326    548.619    548.619
 93.270    711.000    676.941     34.059    548.284    671.651    553.519    548.284    548.284
 93.370    746.000    694.115     51.885    547.949    688.246    553.755    547.949    547.949
 93.470    663.000    712.571    -49.571    547.613    706.087    554.026    547.613    547.613
 93.570    699.000    731.955    -32.955    547.278    724.830    554.325    547.278    547.278
 93.670    740.434    751.824    -11.390    546.942    744.037    554.644    546.942    546.942
 93.770    773.000    771.676      1.324    546.606    763.209    554.982    546.606    546.606
 93.870    812.000    791.021     20.979    546.271    781.851    555.345    546.271    546.271
 93.970    759.000    809.488    -50.488    545.935    799.572    555.752    545.935    545.935
 94.070    787.000    826.924    -39.924    545.599    816.180    556.242    545.599    545.599
 94.170    847.000    843.419      3.581    545.263    831.711    556.869    545.263    545.263
 94.270    819.000    859.323    -40.323    544.927    846.440    557.707    544.927    544.927
 94.370    910.000    875.026     34.974    544.590    860.680    558.834    544.590    544.590
 94.470    853.000    890.852    -37.852    544.254    874.678    560.326    544.254    544.254
 94.570    900.402    906.970     -6.568    543.918    888.538    562.248    543.918    543.918
 94.670    864.000    923.362    -59.362    543.582    902.204    564.640    543.582    543.582
 94.770    905.000    939.880    -34.880    543.246    915.516    567.511    543.246    543.246
 94.870    947.502    956.319     -8.816    542.910    928.299    570.833    542.910    542.910
 94.970   1024.538    972.470     52.068    542.575    940.416    574.534    542.575    542.575
 95.070    932.223    988.081    -55.858    542.239    951.733    578.495    542.239    542.239
 95.170    964.000   1002.764    -38.764    541.903    962.027    582.553    541.903    541.903
 95.270    971.784   1015.894    -44.110    541.568    970.878    586.501    541.568    541.568
 95.370    978.862   1026.566    -47.704    541.233    977.622    590.100    541.233    541.233
 95.470   1110.000   1033.646     76.354    540.898    981.381    593.094    540.898    540.898
 95.570   1008.000   1035.922    -27.922    540.563    981.194    595.230    540.563    540.563
 95.670    993.000   1032.347    -39.347    540.229    976.223    596.302    540.229    540.229
 95.770   1011.000   1022.319    -11.319    539.894    965.992    596.181    539.894    539.894
 95.870   1066.459   1005.910     60.550    539.560    950.586    594.853    539.560    539.560
 95.970   1029.000    983.881     45.119    539.227    930.673    592.413    539.227    539.227
 96.070    996.000    957.587     38.413    538.893    907.418    589.048    538.893    538.893
 96.170    901.000    928.746    -27.746    538.560    882.299    584.999    538.560    538.560
 96.270    975.000    899.221     75.779    538.228    856.917    580.525    538.228    538.228
 96.370    873.030    870.857      2.173    537.895    832.872    575.876    537.895    537.895
 96.470    790.375    845.394    -55.018    537.563    811.680    571.271    537.563    537.563
 96.570    813.241    824.407    -11.166    537.232    794.735    566.895    537.232    537.232
 96.670    765.255    809.284    -44.030    536.901    783.286    562.886    536.901    536.901
 96.770    847.000    801.211     45.789    536.570    778.419    559.343    536.570    536.570
 96.870    875.000    801.159     73.841    536.240    781.052    556.320    536.240    536.240
 96.970    754.968    809.881    -54.912    535.911    791.918    553.837    535.911    535.911
 97.070    838.038    827.900     10.138    535.582    811.551    551.884    535.582    535.582
 97.170    890.000    855.500     34.500    535.253    840.267    550.428    535.253    535.253
 97.270    878.000    892.699    -14.699    534.925    878.127    549.428    534.925    534.925
 97.370   1001.000    939.217     61.783    534.598    924.902    548.831    534.598    534.598
 97.470   1009.591    994.432     15.160    534.271    980.026    548.583    534.271    534.271
 97.570   1020.498   1057.329    -36.831    533.945   1042.542    548.628    533.945    533.945
 97.670   1121.000   1126.434     -5.434    533.620   1111.035    548.905    533.620    533.620
 97.770   1187.047   1199.827    -12.780    533.295   1183.648    549.353    533.295    533.295
 97.870   1241.439   1275.134    -33.694    532.971   1258.070    549.907    532.971    532.971
 97.970   1307.353   1349.365    -42.012    532.648   1331.387    550.498    532.648    532.648
 98.070   1479.000   1419.130     59.870    532.325   1400.280    551.048    532.325    532.325
 98.170   1526.000   1480.685     45.315    532.003   1461.088    551.480    532.003    532.003
 98.270   1505.000   1530.250    -25.250    531.682   1510.107    551.717    531.682    531.682
 98.370   1649.000   1564.448     84.552    531.362   1544.026    551.691    531.362    531.362
 98.470   1630.000   1580.863     49.137    531.043   1560.477    551.354    531.043    531.043
 98.570   1525.383   1578.527    -53.144    530.724   1558.508    550.687    530.724    530.724
 98.670   1520.000   1558.117    -38.117    530.407   1538.784    549.704    530.407    530.407
 98.770   1534.000   1521.781     12.219    530.090   1503.407    548.445    530.090    530.090
 98.870   1449.799   1472.684    -22.885    529.774   1455.484    546.971    529.774    529.774
 98.970   1351.876   1414.500    -62.624    529.460   1398.618    545.350    529.460    529.460
 99.070   1315.000   1350.991    -35.991    529.146   1336.503    543.651    529.146    529.146
 99.170   1296.000   1285.730     10.270    528.833   1272.648    541.937    528.833    528.833
 99.270   1224.675   1221.945      2.730    528.521   1210.225    540.265    528.521    528.521
 99.370   1165.138   1162.443      2.695    528.211   1151.996    538.681    528.211    528.211
 99.470   1139.353   1109.590     29.764    527.901   1100.289    537.222    527.901    527.901
 99.570   1040.887   1065.330    -24.443    527.593   1057.020    535.918    527.593    527.593
 99.670    982.000   1031.222    -49.222    527.285   1023.730    534.786    527.285    527.285
 99.770   1070.883   1008.473     62.410    526.979   1001.617    533.838    526.979    526.979
 99.870    997.000    997.971     -0.971    526.674    991.563    533.078    526.674    526.674
 99.970   1023.000   1000.294     22.706    526.371    994.152    532.501    526.371    526.371
100.070   1082.000   1015.722     66.278    526.068   1009.673    532.100    526.068    526.068
100.170   1061.000   1044.241     16.759    525.767   1038.125    531.860    525.767    525.767
100.270   1089.892   1085.545      4.347    525.467   1079.220    531.764    525.467    525.467
100.370   1154.000   1139.030     14.970    525.168   1132.375    531.792    525.168    525.168
100.470   1221.000   1203.781     17.219    524.871   1196.699    531.920    524.871    524.871
100.570   1274.368   1278.545     -4.177    524.575   1270.965    532.123    524.575    524.575
100.670   1356.000   1361.703     -5.703    524.280   1353.583    532.372    524.280    524.280
100.770   1562.000   1451.236    110.764    523.987   1442.563    532.637    523.987    523.987
100.870   1576.178   1544.721     31.457    523.695   1535.513    532.889    523.695    523.695
100.970   1595.129   1639.363    -44.234    523.405   1629.670    533.096    523.405    523.405
101.070   1741.000   1732.117      8.883    523.116   1722.016    533.230    523.116    523.116
101.170   1868.000   1819.922     48.078    522.829   1809.516    533.265    522.829    522.829
101.270   1836.520   1899.996    -63.476    522.544   1889.402    533.187    522.544    522.544
101.370   2022.000   1970.020     51.980    522.259   1959.357    532.991    522.259    522.259
101.470   1982.101   2028.286    -46.185    521.977   2017.668    532.685    521.977    521.977
101.570   2007.861   2073.590    -65.730    521.696   2063.109    532.288    521.696    521.696
101.670   2049.000   2105.003    -56.003    521.417   2094.724    531.824    521.417    521.417
101.770   2115.997   2121.676     -5.679    521.139   2111.636    531.324    521.139    521.139
101.870   2107.824   2122.823    -14.999    520.864   2113.029    530.815    520.864    520.864
101.970   2135.000   2107.934     27.066    520.590   2098.369    530.323    520.590    520.590
102.070   2073.379   2077.153     -3.773    520.317   2067.778    529.869    520.317    520.317
102.170   1979.739   2031.636    -51.896    520.047   2022.394    529.470    520.047    520.047
102.270   1916.322   1973.673    -57.351    519.778   1964.498    529.137    519.778    519.778
102.370   1938.000   1906.494     31.506    519.512   1897.313    528.875    519.512    519.512
102.470   1780.000   1833.819    -53.819    519.247   1824.560    528.683    519.247    519.247
102.570   1686.122   1759.348    -73.225    518.984   1749.950    528.551    518.984    518.984
102.670   1750.615   1686.354     64.261    518.723   1676.770    528.467    518.723    518.723
102.770   1611.000   1617.436     -6.436    518.464   1607.636    528.412    518.464    518.464
102.870   1571.000   1554.409     16.591    518.207   1544.388    528.366    518.207    518.207
102.970   1504.167   1498.300      5.867    517.952   1488.070    528.309    517.952    517.952
103.070   1445.000   1449.380     -4.380    517.699   1438.974    528.221    517.699    517.699
103.170   1365.000   1407.228    -42.228    517.448   1396.696    528.088    517.448    517.448
103.270   1303.974   1370.821    -66.847    517.199   1360.226    527.895    517.199    517.199
103.370   1280.181   1338.654    -58.473    516.952   1328.072    527.631    516.952    516.952
103.470   1279.000   1308.916    -29.916    516.708   1298.431    527.285    516.708    516.708
103.570   1280.539   1279.720      0.819    516.466   1269.426    526.850    516.466    516.466
103.670   1298.582   1249.371     49.211    516.226   1239.365    526.321    516.226    516.226
103.770   1212.325   1216.610     -4.285    515.988   1206.989    525.699    515.988    515.988
103.870   1179.000   1180.761     -1.761    515.753   1171.611    524.992    515.753    515.753
103.970   1102.000   1141.764    -39.764    515.520   1133.157    524.213    515.520    515.520
104.070   1086.000   1100.048    -14.048    515.289   1092.041    523.382    515.289    515.289
104.170   1081.000   1056.372     24.628    515.061   1048.998    522.518    515.061    515.061
104.270    963.000   1011.657    -48.657    514.835   1004.931    521.640    514.835    514.835
104.370   1003.000    966.855     36.145    514.612    960.774    520.768    514.612    514.612
104.470    913.000    922.867     -9.867    514.391    917.411    519.915    514.391    514.391
104.570    897.000    880.492     16.508    514.172    875.632    519.096    514.172    514.172
104.670    825.000    840.405    -15.405    513.957    836.101    518.318    513.957    513.957
104.770    799.000    803.139     -4.139    513.743    799.343    517.590    513.743    513.743
104.870    716.810    769.077    -52.267    513.533    765.740    516.914    513.533    513.533
104.970    737.000    738.457     -1.457    513.325    735.528    516.293    513.325    513.325
105.070    753.235    711.378     41.858    513.119    708.804    515.726    513.119    513.119
105.170    652.717    687.814    -35.096    512.917    685.546    515.213    512.917    512.917
105.270    702.907    667.638     35.269    512.717    665.629    514.749    512.717    512.717
105.370    606.238    650.640    -44.402    512.520    648.848    514.331    512.520    512.520
105.470    682.000    636.535     45.465    512.326    634.928    513.947    512.326    512.326
105.570    647.723    625.098     22.626    512.134    623.634    513.609    512.134    512.134
105.670    595.479    616.011    -20.532    511.946    614.659    513.306    511.946    511.946
105.770    656.000    608.991     47.009    511.760    607.725    513.032    511.760    511.760
105.870    602.179    603.786     -1.608    511.578    602.583    512.784    511.578    511.578
105.970    645.000    600.180     44.820    511.398    599.018    512.559    511.398    511.398
106.070    616.000    597.995     18.005    511.221    596.858    512.355    511.221    511.221
106.170    584.000    597.098    -13.098    511.048    595.971    512.170    511.048    511.048
106.270    598.000    597.397      0.603    510.877    596.263    512.003    510.877    510.877
106.370    636.266    598.831     37.435    510.710    597.678    511.853    510.710    510.710
106.470    625.000    601.374     23.626    510.545    600.188    511.719    510.545    510.545
106.570    594.324    605.020    -10.696    510.384    603.787    511.602    510.384    510.384
106.670    618.000    609.777      8.223    510.227    608.484    511.501    510.227    510.227
106.770    620.000    615.663      4.337    510.072    614.296    511.417    510.072    510.072
106.870    679.000    622.691     56.309    509.921    621.237    511.350    509.921    509.921
106.970    656.885    630.867     26.017    509.773    629.312    511.299    509.773    509.773
107.070    641.200    640.176      1.024    509.628    638.506    511.265    509.628    509.628
107.170    637.000    650.571    -13.571    509.487    648.774    511.248    509.487    509.487
107.270    681.000    661.969     19.031    509.349    660.034    511.245    509.349    509.349
107.370    682.058    674.241      7.817    509.215    672.157    511.255    509.215    509.215
107.470    696.000    687.206      8.794    509.084    684.967    511.276    509.084    509.084
107.570    698.249    700.632     -2.384    508.956    698.234    511.305    508.956    508.956
107.670    714.000    714.236     -0.236    508.833    711.679    511.337    508.833    508.833
107.770    713.000    727.688    -14.688    508.713    724.976    511.369    508.713    508.713
107.870    751.000    740.618     10.382    508.596    737.761    511.396    508.596    508.596
107.970    749.000    752.631     -3.631    508.483    749.646    511.411    508.483    508.483
108.070    757.422    763.335     -5.912    508.374    760.242    511.410    508.374    508.374
108.170    769.548    772.371     -2.823    508.269    769.197    511.387    508.269    508.269
108.270    774.000    779.464     -5.464    508.167    776.239    511.338    508.167    508.167
108.370    747.000    784.466    -37.466    508.070    781.223    511.261    508.070    508.070
108.470    793.000    787.391      5.609    507.976    784.164    511.155    507.976    507.976
108.570    770.000    788.420    -18.420    507.886    785.240    511.022    507.886    507.886
108.670    806.000    787.878     18.122    507.800    784.772    510.866    507.800    507.800
108.770    749.000    786.185    -37.185    507.718    783.178    510.690    507.718    507.718
108.870    779.000    783.806     -4.806    507.640    780.914    510.501    507.640    507.640
108.970    730.086    781.193    -51.106    507.566    778.427    510.305    507.566    507.566
109.070    756.000    778.744    -22.744    507.496    776.111    510.107    507.496    507.496
109.170    828.676    776.783     51.893    507.431    774.283    509.911    507.431    507.431
109.270    732.912    775.534    -42.622    507.369    773.165    509.723    507.369    507.369
109.370    720.000    775.117    -55.117    507.312    772.872    509.545    507.312    507.312
109.470    753.083    775.543    -22.460    507.259    773.414    509.380    507.259    507.259
109.570    751.000    776.711    -25.711    507.210    774.689    509.228    507.210    507.210
109.670    736.000    778.418    -42.418    507.166    776.491    509.091    507.166    507.166
109.770    735.000    780.360    -45.360    507.126    778.518    508.969    507.126    507.126
109.870    771.000    782.156    -11.156    507.090    780.391    508.860    507.090    507.090
109.970    801.175    783.373     17.802    507.059    781.678    508.762    507.059    507.059
110.070    743.000    783.568    -40.568    507.032    781.936    508.675    507.032    507.032
110.170    755.000    782.333    -27.333    507.010    780.762    508.595    507.010    507.010
110.270    754.000    779.356    -25.356    506.992    777.842    508.522    506.992    506.992
110.370    698.000    774.459    -76.459    506.979    773.004    508.453    506.979    506.979
110.470    757.000    767.626    -10.626    506.971    766.229    508.388    506.971    506.971
110.570    740.551    758.989    -18.438    506.967    757.650    508.326    506.967    506.967
110.670    782.647    748.802     33.845    506.968    747.524    508.268    506.968    506.968
110.770    756.000    737.392     18.608    506.974    736.178    508.209    506.974    506.974
110.870    723.000    725.127     -2.127    506.985    723.980    508.153    506.985    506.985
110.970    703.000    712.391     -9.391    507.000    711.301    508.110    507.000    507.000
111.070    703.000    699.521      3.479    507.021    698.485    508.074    507.021    507.021
111.170    665.000    686.826    -21.826    507.046    685.842    508.047    507.046    507.046
111.270    700.000    674.578     25.422    507.076    673.642    508.027    507.076    507.076
111.370    686.000    663.001     22.999    507.111    662.108    508.017    507.111    507.111
111.470    703.000    652.274     50.726    507.152    651.420    508.016    507.152    507.152
111.570    662.000    642.528     19.472    507.197    641.709    508.026    507.197    507.197
111.670    596.000    633.853    -37.853    507.248    633.063    508.045    507.248    507.248
111.770    604.000    626.290    -22.290    507.304    625.524    508.074    507.304    507.304
111.870    618.000    619.853     -1.853    507.365    619.106    508.114    507.365    507.365
111.970    607.121    614.529     -7.408    507.431    613.797    508.164    507.431    507.431
112.070    651.000    610.265     40.735    507.503    609.543    508.223    507.503    507.503
112.170    645.000    606.993     38.007    507.580    606.278    508.292    507.580    507.580
112.270    586.000    604.633    -18.633    507.662    603.920    508.371    507.662    507.662
112.370    634.000    603.096     30.904    507.750    602.382    508.457    507.750    507.750
112.470    618.000    602.290     15.710    507.843    601.573    508.552    507.843    507.843
112.570    565.622    602.126    -36.504    507.942    601.405    508.655    507.942    507.942
112.670    623.000    602.521     20.479    508.046    601.793    508.765    508.046    508.046
112.770    555.349    603.397    -48.048    508.156    602.662    508.881    508.156    508.156
112.870    547.000    604.686    -57.686    508.272    603.943    509.004    508.272    508.272
112.970    621.000    606.334     14.666    508.393    605.582    509.133    508.393    508.393
113.070    641.752    608.298     33.454    508.521    607.538    509.268    508.521    508.521
113.170    564.344    610.551    -46.207    508.654    609.783    509.409    508.654    508.654
113.270    600.000    613.081    -13.081    508.792    612.304    509.556    508.792    508.792
113.370    618.000    615.890      2.110    508.937    615.104    509.710    508.937    508.937
113.470    634.000    618.999     15.001    509.088    618.203    509.870    509.088    509.088
113.570    650.000    622.443     27.557    509.244    621.636    510.037    509.244    509.244
113.670    613.000    626.276    -13.276    509.407    625.456    510.212    509.407    509.407
113.770    624.614    630.573     -5.959    509.576    629.736    510.396    509.576    509.576
113.870    633.219    635.431     -2.212    509.750    634.575    510.590    509.750    509.750
113.970    659.000    640.978     18.022    509.931    640.098    510.795    509.931    509.931
114.070    678.139    647.380     30.760    510.119    646.468    511.011    510.119    510.119
114.170    623.000    654.845    -31.845    510.312    653.896    511.241    510.312    510.312
114.270    619.000    663.643    -44.643    510.512    662.647    511.486    510.512    510.512
114.370    664.218    674.110     -9.892    510.718    673.056    511.747    510.718    510.718
114.470    677.424    686.669     -9.245    510.930    685.544    512.026    510.930    510.930
114.570    703.032    701.844      1.188    511.149    700.634    512.326    511.149    511.149
114.670    673.000    720.279    -47.279    511.375    718.967    512.648    511.375    511.375
114.770    736.000    742.754     -6.754    511.606    741.321    512.994    511.606    511.606
114.870    801.000    770.204     30.796    511.845    768.628    513.367    511.845    511.845
114.970    782.000    803.735    -21.735    512.090    801.991    513.769    512.090    512.090
115.070    848.000    844.633      3.367    512.342    842.693    514.203    512.342    512.342
115.170    861.000    894.368    -33.368    512.600    892.203    514.672    512.600    512.600
115.270    877.000    954.597    -77.597    512.866    952.174    515.176    512.866    512.866
115.370   1017.000   1027.146    -10.146    513.138   1024.429    515.720    513.138    513.138
115.470   1171.123   1113.986     57.136    513.417   1110.939    516.304    513.417    513.417
115.570   1173.000   1217.194    -44.194    513.703   1213.776    516.931    513.703    513.703
115.670   1328.000   1338.894    -10.894    513.996   1335.065    517.601    513.996    513.996
115.770   1435.000   1481.183    -46.183    514.296   1476.902    518.316    514.296    514.296
115.870   1590.850   1646.046    -55.197    514.603   1641.270    519.075    514.603    514.603
115.970   1927.000   1835.246     91.754    514.917   1829.935    519.879    514.917    514.917
116.070   2137.620   2050.208     87.412    515.238   2044.324    520.725    515.238    515.238
116.170   2319.000   2291.897     27.103    515.566   2285.405    521.611    515.566    515.566
116.270   2620.000   2560.686     59.314    515.902   2553.556    522.533    515.902    515.902
116.370   2788.739   2856.239    -67.500    516.245   2848.445    523.487    516.245    516.245
116.470   3228.000   3177.392     50.608    516.596   3168.917    524.466    516.596    516.596
116.570   3628.086   3522.066    106.020    516.954   3512.902    525.465    516.954    516.954
116.670   3731.000   3887.193   -156.193    517.319   3877.340    526.474    517.319    517.319
116.770   4260.168   4268.679     -8.511    517.692   4258.147    527.487    517.692    517.692
116.870   4652.000   4661.394     -9.394    518.072   4650.202    528.495    518.072    518.072
116.970   4845.000   5059.195   -214.195    518.460   5047.374    529.492    518.460    518.460
117.070   5452.000   5454.993     -2.993    518.856   5442.579    530.470    518.856    518.856
117.170   5722.000   5840.844   -118.844    519.259   5827.884    531.422    519.259    519.259
117.270   6218.815   6208.061     10.754    519.670   6194.609    532.342    519.670    519.670
117.370   6477.522   6547.631    -70.109    520.089   6533.746    533.225    520.089    520.089
117.470   6862.000   6850.198     11.802    520.516   6835.950    534.064    520.516    520.516
117.570   7214.000   7106.673    107.327    520.951   7092.135    534.852    520.951    520.951
117.670   7356.000   7308.714     47.286    521.394   7293.966    535.582    521.394    521.394
117.770   7605.000   7449.323    155.677    521.844   7434.448    536.249    521.844    521.844
117.870   7539.588   7523.453     16.135    522.303   7508.537    536.848    522.303    522.303
117.970   7567.940   7528.511     39.429    522.770   7513.638    537.376    522.770    522.770
118.070   7509.000   7464.631     44.369    523.245   7449.882    537.832    523.245    523.245
118.170   7343.000   7334.657      8.343    523.729   7320.108    538.217    523.729    523.729
118.270   7151.956   7143.832      8.124    524.221   7129.550    538.534    524.221    524.221
118.370   7039.359   6899.270    140.089    524.721   6885.317    538.789    524.721    524.721
118.470   6617.095   6609.343      7.752    525.229   6595.775    538.985    525.229    525.229
118.570   6186.000   6283.088    -97.088    525.746   6269.951    539.129    525.746    525.746
118.670   5881.000   5929.691    -48.691    526.272   5917.027    539.227    526.272    526.272
118.770   5496.000   5558.100    -62.100    526.806   5545.944    539.286    526.806    526.806
118.870   5245.000   5176.729     68.271    527.348   5165.108    539.312    527.348    527.348
118.970   4888.000   4793.256     94.744    527.899   4782.193    539.314    527.899    527.899
119.070   4538.000   4414.482    123.518    528.459   4403.990    539.301    528.459    528.459
119.170   4146.000   4046.238     99.762    529.028   4036.324    539.280    529.028    529.028
119.270   3796.000   3693.334    102.666    529.606   3683.998    539.262    529.606    529.606
119.370   3315.772   3359.555    -43.783    530.192   3350.788    539.255    530.192    530.192
119.470   2961.235   3047.680    -86.445    530.788   3039.469    539.267    530.788    530.788
119.570   2840.742   2759.547     81.194    531.392   2751.871    539.306    531.392    531.392
119.670   2435.920   2496.143    -60.223    532.006   2488.974    539.380    532.006    532.006
119.770   2267.047   2257.705      9.342    532.629   2251.014    539.494    532.629    532.629
119.870   2082.000   2043.850     38.150    533.260   2037.600    539.654    533.260    533.260
119.970   1875.113   1853.686     21.427    533.902   1847.841    539.863    533.902    533.902
120.070   1722.000   1685.939     36.061    534.552   1680.455    540.126    534.552    534.552
120.170   1575.000   1539.053     35.947    535.212   1533.887    540.445    535.212    535.212
120.270   1490.000   1411.296     78.704    535.881   1406.401    540.823    535.881    535.881
120.370   1236.000   1300.841    -64.841    536.559   1296.170    541.261    536.559    536.559
120.470   1223.874   1205.843     18.031    537.247   1201.347    541.760    537.247    537.247
120.570   1203.000   1124.502     78.498    537.945   1120.131    542.322    537.945    537.945
120.670   1145.000   1055.106     89.894    538.652   1050.808    542.947    538.652    538.652
120.770    999.000    996.069      2.931    539.369    991.792    543.637    539.369    539.369
120.870    970.000    945.951     24.049    540.096    941.644    544.390    540.096    540.096
120.970    932.000    903.473     28.527    540.832    899.081    545.209    540.832    540.832
121.070    919.769    867.514     52.255    541.578    862.982    546.094    541.578    541.578
121.170    833.000    837.106     -4.106    542.335    832.379    547.045    542.335    542.335
121.270    835.000    811.427     23.573    543.101    806.449    548.063    543.101    543.101
121.370    837.363    789.784     47.579    543.877    784.496    549.150    543.877    543.877
121.470    786.327    771.598     14.729    544.663    765.941    550.307    544.663    544.663
121.570    741.000    756.390    -15.390    545.460    750.303    551.535    545.460    545.460
121.670    727.563    743.763    -16.200    546.266    737.185    552.835    546.266    546.266
121.770    726.000    733.391     -7.391    547.083    726.258    554.208    547.083    547.083
121.870    695.000    725.005    -30.005    547.911    717.253    555.657    547.911    547.911
121.970    713.000    718.381     -5.381    548.748    709.944    557.181    548.748    548.748
122.070    706.228    713.333     -7.105    549.596    704.145    558.781    549.596    549.596
122.170    695.000    709.701    -14.701    550.455    699.696    560.459    550.455    550.455
122.270    640.000    707.350    -67.350    551.324    696.461    562.213    551.324    551.324
122.370    690.000    706.160    -16.160    552.204    694.322    564.044    552.204    552.204
122.470    666.000    706.024    -40.024    553.094    693.171    565.950    553.094    553.094
122.570    674.000    706.841    -32.841    553.996    692.912    567.930    553.996    553.996
122.670    640.000    708.517    -68.517    554.908    693.451    569.981    554.908    554.908
122.770    656.000    710.957    -54.957    555.831    694.699    572.097    555.831    555.831
122.870    756.663    714.069     42.594    556.764    696.570    574.274    556.764    556.764
122.970    735.976    717.754     18.222    557.709    698.975    576.502    557.709    557.709
123.070    674.000    721.913    -47.913    558.665    701.823    578.771    558.665    558.665
123.170    751.000    726.439     24.561    559.632    705.022    581.068    559.632    559.632
123.270    696.000    731.220    -35.220    560.610    708.475    583.377    560.610    560.610
123.370    792.000    736.137     55.863    561.600    712.081    585.680    561.600    561.600
123.470    743.000    741.067      1.933    562.601    715.738    587.957    562.601    562.601
123.570    769.000    745.879     23.121    563.613    719.337    590.185    563.613    563.613
123.670    779.158    750.439     28.718    564.636    722.769    592.341    564.636    564.636
123.770    779.000    754.614     24.386    565.671    725.923    594.399    565.671    565.671
123.870    757.000    758.268     -1.268    566.718    728.691    596.335    566.718    566.718
123.970    744.000    761.277    -17.277    567.776    730.971    598.125    567.776    567.776
124.070    781.000    763.527     17.473    568.846    732.672    599.746    568.846    568.846
124.170    785.000    764.921     20.079    569.928    733.716    601.181    569.928    569.928
124.270    782.000    765.391     16.609    571.021    734.047    602.416    571.021    571.021
124.370    793.000    764.896     28.104    572.126    733.631    603.443    572.126    572.126
124.470    766.632    763.429      3.203    573.244    732.464    604.264    573.244    573.244
124.570    777.560    761.017     16.542    574.373    730.562    604.883    574.373    574.373
124.670    781.000    757.715     23.285    575.514    727.971    605.313    575.514    575.514
124.770    789.000    753.593     35.407    576.668    724.743    605.573    576.668    576.668
124.870    782.000    748.737     33.263    577.833    720.942    605.684    577.833    577.833
124.970    765.000    743.320     21.680    579.011    716.715    605.671    579.011    579.011
