neutron_powder_diffraction_0036
R_wp: 3.795
Temperature (K): 573.769
Counts: 83285.00
Wavelength (Ã…): 2.52098
COMMENTS
Test file for demonstrating the .xyy file format in Reel1.0
END OF HEADER
   tth       Y_obs     Y_calc      Y_res    Background    Phase_1_Nuc    Phase_1_Mag    Phase_2_Nuc    Phase_2_Mag
  9.970    695.000    692.217      2.783    690.734    691.722    691.228    690.734    690.734
 10.070    702.000    691.427     10.573    689.858    690.926    690.358    689.858    689.858
 10.170    714.000    690.651     23.349    688.986    690.145    689.491    688.986    688.986
 10.270    653.000    689.891    -36.891    688.117    689.380    688.627    688.117    688.117
 10.370    727.000    689.151     37.849    687.251    688.634    687.767    687.251    687.251
 10.470    697.000    688.433      8.567    686.388    687.910    686.910    686.388    686.388
 10.570    658.630    687.742    -29.112    685.529    687.214    686.057    685.529    685.529
 10.670    700.000    687.084     12.916    684.674    686.550    685.207    684.674    684.674
 10.770    675.357    686.467    -11.110    683.821    685.927    684.360    683.821    683.821
 10.870    686.000    685.899      0.101    682.972    685.353    683.517    682.972    682.972
 10.970    739.000    685.395     53.605    682.126    684.843    682.677    682.126    682.126
 11.070    731.679    684.974     46.705    681.284    684.415    681.841    681.284    681.284
 11.170    678.000    684.662     -6.662    680.445    684.096    681.008    680.445    680.445
 11.270    666.000    684.498    -18.498    679.609    683.925    680.179    679.609    679.609
 11.370    698.000    684.546     13.454    678.776    683.967    679.353    678.776    678.776
 11.470    649.465    684.927    -35.462    677.947    684.340    678.530    677.947    677.947
 11.570    695.000    685.905      9.095    677.122    685.311    677.711    677.122    677.122
 11.670    689.000    688.083      0.917    676.299    687.480    676.896    676.299    676.299
 11.770    816.000    692.707    123.293    675.480    692.094    676.084    675.480    675.480
 11.870    712.566    701.840     10.726    674.665    701.214    675.275    674.665    674.665
 11.970    801.000    717.868     83.132    673.852    717.226    674.470    673.852    673.852
 12.070    764.447    741.757     22.690    673.043    741.094    673.669    673.043    673.043
 12.170    822.000    769.940     52.060    672.238    769.253    672.871    672.238    672.238
 12.270    829.000    791.416     37.584    671.436    790.708    672.076    671.436    671.436
 12.370    806.153    792.591     13.562    670.637    791.874    671.285    670.637    670.637
 12.470    764.381    771.885     -7.504    669.841    771.172    670.498    669.841    669.841
 12.570    723.000    742.119    -19.119    669.049    741.414    669.714    669.049    669.049
 12.670    685.000    715.551    -30.551    668.261    714.852    668.933    668.261    668.261
 12.770    715.000    696.817     18.183    667.475    696.120    668.156    667.475    667.475
 12.870    703.000    685.280     17.720    666.693    684.581    667.383    666.693    666.693
 12.970    619.000    678.573    -59.573    665.915    677.868    666.613    665.915    665.915
 13.070    660.000    674.562    -14.562    665.140    673.850    665.847    665.140    665.140
 13.170    672.138    671.884      0.254    664.368    671.164    665.084    664.368    664.368
 13.270    625.000    669.861    -44.861    663.600    669.133    664.325    663.600    663.600
 13.370    676.839    668.196      8.643    662.835    667.459    663.569    662.835    662.835
 13.470    678.000    666.756     11.244    662.073    666.010    662.817    662.073    662.073
 13.570    642.538    665.472    -22.934    661.315    664.716    662.069    661.315    661.315
 13.670    676.000    664.302     11.698    660.560    663.536    661.324    660.560    660.560
 13.770    710.000    663.217     46.783    659.809    662.442    660.582    659.809    659.809
 13.870    664.302    662.200      2.102    659.060    661.414    659.845    659.060    659.060
 13.970    685.000    661.234     23.766    658.316    660.438    659.111    658.316    658.316
 14.070    653.000    660.310     -7.310    657.575    659.503    658.380    657.575    657.575
 14.170    611.846    659.420    -47.574    656.837    658.603    657.653    656.837    656.837
 14.270    641.000    658.562    -17.562    656.102    657.734    656.930    656.102    656.102
 14.370    680.000    657.725     22.275    655.371    656.885    656.210    655.371    655.371
 14.470    700.000    656.906     43.094    654.644    656.055    655.494    654.644    654.644
 14.570    651.000    656.104     -5.104    653.919    655.241    654.782    653.919    653.919
 14.670    608.260    655.318    -47.058    653.199    654.443    654.073    653.199    653.199
 14.770    642.000    654.545    -12.545    652.481    653.658    653.368    652.481    652.481
 14.870    623.000    653.791    -30.791    651.767    652.891    652.667    651.767    651.767
 14.970    607.000    653.064    -46.064    651.056    652.151    651.970    651.056    651.056
 15.070    612.091    652.326    -40.235    650.349    651.399    651.276    650.349    650.349
 15.170    656.000    651.594      4.406    649.645    650.653    650.585    649.645    649.645
 15.270    671.000    650.870     20.130    648.945    649.916    649.899    648.945    648.945
 15.370    695.570    650.154     45.417    648.248    649.185    649.216    648.248    648.248
 15.470    636.000    649.445    -13.445    647.554    648.462    648.537    647.554    647.554
 15.570    609.229    648.742    -39.513    646.864    647.745    647.861    646.864    646.864
 15.670    629.696    648.047    -18.350    646.177    647.034    647.190    646.177    646.177
 15.770    607.000    647.357    -40.357    645.494    646.329    646.522    645.494    645.494
 15.870    661.000    646.674     14.326    644.814    645.630    645.858    644.814    644.814
 15.970    661.000    646.000     15.000    644.137    644.940    645.197    644.137    644.137
 16.070    619.000    645.328    -26.328    643.464    644.252    644.540    643.464    643.464
 16.170    612.747    644.661    -31.914    642.794    643.567    643.888    642.794    642.794
 16.270    617.000    643.999    -26.999    642.128    642.888    643.239    642.128    642.128
 16.370    604.000    643.343    -39.343    641.465    642.214    642.593    641.465    641.465
 16.470    627.000    642.691    -15.691    640.805    641.544    641.952    640.805    640.805
 16.570    651.320    642.044      9.276    640.149    640.878    641.314    640.149    640.149
 16.670    631.000    641.402    -10.402    639.496    640.217    640.681    639.496    639.496
 16.770    612.000    640.765    -28.765    638.846    639.560    640.051    638.846    638.846
 16.870    602.562    640.132    -37.570    638.200    638.907    639.425    638.200    638.200
 16.970    679.733    639.504     40.229    637.558    638.259    638.803    637.558    637.558
 17.070    610.000    638.881    -28.881    636.918    637.615    638.185    636.918    636.918
 17.170    678.000    638.263     39.737    636.282    636.975    637.570    636.282    636.282
 17.270    646.000    637.649      8.351    635.650    636.338    636.960    635.650    635.650
 17.370    689.000    637.041     51.959    635.021    635.708    636.354    635.021    635.021
 17.470    629.443    636.443     -6.999    634.395    635.085    635.752    634.395    634.395
 17.570    621.870    635.844    -13.974    633.772    634.462    635.154    633.772    633.772
 17.670    682.515    635.253     47.262    633.153    633.846    634.560    633.153    633.153
 17.770    589.000    634.714    -45.714    632.538    633.280    633.971    632.538    632.538
 17.870    588.000    634.152    -46.152    631.926    632.692    633.385    631.926    631.926
 17.970    635.000    633.573      1.427    631.317    632.087    632.803    631.317    631.317
 18.070    600.743    633.005    -32.262    630.711    631.490    632.225    630.711    630.711
 18.170    679.301    632.439     46.862    630.109    630.896    631.652    630.109    630.109
 18.270    669.551    631.872     37.679    629.510    630.300    631.082    629.510    629.510
 18.370    619.603    631.309    -11.706    628.915    629.707    630.517    628.915    628.915
 18.470    606.136    630.751    -24.614    628.323    629.117    629.956    628.323    628.323
 18.570    638.000    630.197      7.803    627.734    628.532    629.399    627.734    627.734
 18.670    673.360    629.648     43.712    627.148    627.950    628.846    627.148    627.148
 18.770    623.674    629.106     -5.433    626.566    627.374    628.298    626.566    626.566
 18.870    596.000    628.591    -32.591    625.988    626.824    627.755    625.988    625.988
 18.970    658.000    628.063     29.937    625.412    626.260    627.215    625.412    625.412
 19.070    624.101    627.534     -3.432    624.840    625.694    626.680    624.840    624.840
 19.170    601.000    627.009    -26.009    624.272    625.131    626.150    624.272    624.272
 19.270    660.180    626.490     33.691    623.707    624.572    625.624    623.707    623.707
 19.370    631.000    625.976      5.024    623.145    624.018    625.103    623.145    623.145
 19.470    626.000    625.478      0.522    622.586    623.477    624.587    622.586    622.586
 19.570    604.744    624.994    -20.250    622.031    622.945    624.079    622.031    622.031
 19.670    606.000    624.550    -18.550    621.479    622.442    623.586    621.479    621.479
 19.770    609.495    624.062    -14.567    620.930    621.906    623.085    620.930    620.930
 19.870    622.000    623.574     -1.574    620.385    621.371    622.588    620.385    620.385
 19.970    616.612    623.092     -6.480    619.843    620.839    622.096    619.843    619.843
 20.070    582.095    622.616    -40.521    619.304    620.311    621.608    619.304    619.304
 20.170    617.000    622.145     -5.145    618.769    619.787    621.126    618.769    618.769
 20.270    569.000    621.680    -52.680    618.236    619.267    620.649    618.236    618.236
 20.370    630.858    621.223      9.635    617.708    618.753    620.178    617.708    617.708
 20.470    629.000    620.791      8.209    617.182    618.262    619.712    617.182    617.182
 20.570    580.042    620.366    -40.324    616.660    617.771    619.255    616.660    616.660
 20.670    574.445    619.962    -45.517    616.141    617.291    618.812    616.141    616.141
 20.770    593.000    619.536    -26.536    615.625    616.796    618.366    615.625    615.625
 20.870    628.000    619.128      8.872    615.113    616.319    617.923    615.113    615.113
 20.970    617.850    618.764     -0.914    614.604    615.882    617.485    614.604    614.604
 21.070    570.000    618.399    -48.399    614.098    615.443    617.054    614.098    614.098
 21.170    629.955    618.001     11.954    613.596    614.968    616.629    613.596    613.596
 21.270    628.000    617.605     10.395    613.096    614.491    616.210    613.096    613.096
 21.370    616.000    617.219     -1.219    612.600    614.022    615.797    612.600    612.600
 21.470    637.528    616.869     20.659    612.108    613.584    615.393    612.108    612.108
 21.570    655.703    616.515     39.188    611.618    613.138    614.994    611.618    611.618
 21.670    657.044    616.154     40.891    611.132    612.683    614.602    611.132    611.132
 21.770    597.000    615.808    -18.808    610.649    612.238    614.218    610.649    610.649
 21.870    567.000    615.478    -48.478    610.169    611.802    613.845    610.169    610.169
 21.970    565.000    615.153    -50.153    609.693    611.368    613.478    609.693    609.693
 22.070    599.000    614.835    -15.835    609.219    610.937    613.117    609.219    609.219
 22.170    543.000    614.527    -71.527    608.749    610.512    612.765    608.749    608.749
 22.270    595.494    614.230    -18.736    608.282    610.092    612.421    608.282    608.282
 22.370    641.332    613.945     27.387    607.819    609.678    612.086    607.819    607.819
 22.470    601.000    613.675    -12.675    607.358    609.273    611.760    607.358    607.358
 22.570    585.152    613.422    -28.270    606.901    608.878    611.445    606.901    606.901
 22.670    615.000    613.183      1.817    606.447    608.491    611.140    606.447    606.447
 22.770    602.000    612.962    -10.962    605.996    608.113    610.845    605.996    605.996
 22.870    580.000    612.761    -32.761    605.549    607.748    610.562    605.549    605.549
 22.970    622.000    612.587      9.413    605.104    607.400    610.292    605.104    605.104
 23.070    596.636    612.439    -15.803    604.663    607.068    610.034    604.663    604.663
 23.170    570.000    612.312    -42.312    604.225    606.750    609.788    604.225    604.225
 23.270    627.000    612.217     14.783    603.790    606.452    609.556    603.790    603.790
 23.370    634.000    612.159     21.841    603.358    606.179    609.339    603.358    603.358
 23.470    655.550    612.143     43.407    602.929    605.936    609.137    602.929    602.929
 23.570    605.000    612.179     -7.179    602.504    605.732    608.952    602.504    602.504
 23.670    657.000    612.276     44.724    602.082    605.575    608.784    602.082    602.082
 23.770    620.847    612.450      8.397    601.663    605.479    608.635    601.663    601.663
 23.870    596.000    612.723    -16.723    601.246    605.463    608.507    601.246    601.246
 23.970    638.045    613.123     24.922    600.834    605.557    608.401    600.834    600.834
 24.070    601.676    613.700    -12.024    600.424    605.810    608.317    600.424    600.424
 24.170    650.916    614.552     36.363    600.017    606.315    608.258    600.017    600.017
 24.270    601.000    615.892    -14.892    599.614    607.284    608.226    599.614    599.614
 24.370    648.000    618.192     29.808    599.213    609.187    608.223    599.213    599.213
 24.470    610.878    622.369    -11.491    598.816    612.941    608.252    598.816    598.816
 24.570    610.530    629.839    -19.310    598.421    619.958    608.316    598.421    598.421
 24.670    678.000    642.066     35.934    598.030    631.701    608.418    598.030    598.030
 24.770    692.000    659.329     32.671    597.642    648.444    608.561    597.642    597.642
 24.870    671.000    678.715     -7.715    597.257    667.271    608.749    597.257    597.257
 24.970    703.000    692.562     10.438    596.875    680.506    608.988    596.875    596.875
 25.070    632.000    692.557    -60.557    596.496    679.828    609.283    596.496    596.496
 25.170    683.000    678.986      4.014    596.120    665.515    609.639    596.120    596.120
 25.270    676.000    660.320     15.680    595.748    646.038    610.064    595.748    595.748
 25.370    652.000    644.022      7.978    595.378    628.855    610.566    595.378    595.378
 25.470    680.000    632.837     47.163    595.011    616.706    611.155    595.011    595.011
 25.570    588.282    626.418    -38.136    594.648    609.232    611.841    594.648    594.648
 25.670    651.000    623.303     27.697    594.287    604.956    612.639    594.287    594.287
 25.770    577.000    622.119    -45.119    593.929    602.489    613.562    593.929    593.929
 25.870    646.748    621.990     24.758    593.575    600.937    614.630    593.575    593.575
 25.970    586.634    622.487    -35.852    593.223    599.847    615.864    593.223    593.223
 26.070    594.515    623.432    -28.917    592.874    599.016    617.290    592.874    592.874
 26.170    625.908    624.768      1.140    592.529    598.355    618.941    592.529    592.529
 26.270    653.000    626.489     26.511    592.186    597.819    620.856    592.186    592.186
 26.370    646.000    628.619     17.381    591.846    597.383    623.081    591.846    591.846
 26.470    688.000    631.204     56.796    591.509    597.034    625.678    591.509    591.509
 26.570    640.424    634.316      6.108    591.176    596.767    628.723    591.176    591.176
 26.670    605.943    638.028    -32.086    590.845    596.566    632.304    590.845    590.845
 26.770    676.000    642.473     33.527    590.517    596.440    636.546    590.517    590.517
 26.870    637.000    647.815    -10.815    590.192    596.394    641.610    590.192    590.192
 26.970    698.000    654.276     43.724    589.870    596.438    647.704    589.870    589.870
 27.070    627.225    662.154    -34.929    589.551    596.588    655.112    589.551    589.551
 27.170    704.000    671.861     32.139    589.235    596.867    664.222    589.235    589.235
 27.270    666.000    683.976    -17.976    588.922    597.310    675.579    588.922    588.922
 27.370    727.746    699.335     28.412    588.611    597.966    689.970    588.611    588.611
 27.470    719.526    719.214      0.311    588.304    598.913    708.592    588.304    588.304
 27.570    702.000    745.855    -43.855    587.999    600.287    733.550    587.999    587.999
 27.670    818.000    784.468     33.532    587.697    602.403    769.738    587.697    587.697
 27.770    897.000    850.471     46.529    587.399    606.185    831.643    587.399    587.399
 27.870   1003.057    989.477     13.580    587.103    614.367    962.129    587.103    587.103
 27.970   1347.000   1311.400     35.600    586.809    633.529   1264.497    586.809    586.809
 28.070   1827.000   2003.173   -176.173    586.519    674.862   1914.467    586.519    586.519
 28.170   3079.000   3233.035   -154.035    586.232    748.450   3070.220    586.232    586.232
 28.270   4770.684   4901.842   -131.158    585.947    848.412   4638.615    585.947    585.947
 28.370   6354.000   6408.313    -54.313    585.665    938.900   6054.390    585.665    585.665
 28.470   6757.386   6855.371    -97.985    585.386    966.529   6473.851    585.386    585.386
 28.570   6123.000   5941.613    181.387    585.110    913.909   5612.721    585.110    585.110
 28.670   4519.157   4445.948     73.209    584.837    828.909   4201.890    584.837    584.837
 28.770   3310.000   3314.207     -4.207    584.566    769.947   3128.812    584.566    584.566
 28.870   2963.000   2958.560      4.440    584.298    762.977   2779.806    584.298    584.298
 28.970   3367.000   3250.922    116.078    584.033    798.894   3035.985    584.033    584.033
 29.070   3805.000   3728.558     76.442    583.771    843.797   3468.562    583.771    583.771
 29.170   3899.000   3847.897     51.103    583.512    855.777   3575.817    583.512    583.512
 29.270   3419.000   3374.908     44.092    583.255    816.959   3141.467    583.255    583.255
 29.370   2674.564   2579.856     94.708    583.001    750.689   2412.404    583.001    583.001
 29.470   1710.000   1832.562   -122.562    582.750    688.249   1727.225    582.750    582.750
 29.570   1295.000   1307.957    -12.957    582.501    644.418   1246.132    582.501    582.501
 29.670    979.795   1006.722    -26.928    582.255    619.296    969.726    582.255    582.255
 29.770    902.844    854.570     48.275    582.012    606.669    829.934    582.012    582.012
 29.870    823.000    779.289     43.711    581.772    600.490    760.581    581.772    581.772
 29.970    710.563    737.928    -27.365    581.534    597.170    722.298    581.534    581.534
 30.070    753.000    711.359     41.641    581.299    595.121    697.540    581.299    581.299
 30.170    731.000    692.321     38.679    581.067    593.761    679.628    581.067    581.067
 30.270    696.694    678.036     18.659    580.837    592.897    665.975    580.837    580.837
 30.370    685.000    667.313     17.687    580.610    592.517    655.403    580.610    580.610
 30.470    673.000    659.794     13.206    580.385    592.805    647.370    580.385    580.385
 30.570    697.000    655.991     41.009    580.163    594.282    641.865    580.163    580.163
 30.670    691.000    657.506     33.494    579.944    597.975    639.464    579.944    579.944
 30.770    653.000    666.784    -13.784    579.728    605.305    641.185    579.728    579.728
 30.870    700.000    685.634     14.366    579.514    617.328    647.784    579.514    579.514
 30.970    699.070    712.438    -13.368    579.302    633.260    658.426    579.302    579.302
 31.070    688.985    738.964    -49.979    579.094    648.803    669.184    579.094    579.094
 31.170    762.856    750.179     12.676    578.888    656.048    672.944    578.888    578.888
 31.270    759.000    736.097     22.903    578.684    649.745    664.973    578.684    578.684
 31.370    682.044    704.924    -22.880    578.483    634.261    649.102    578.483    578.483
 31.470    669.000    671.615     -2.615    578.284    617.531    632.341    578.284    578.284
 31.570    677.000    645.148     31.852    578.089    604.325    618.896    578.089    578.089
 31.670    600.089    627.647    -27.559    577.895    595.782    609.751    577.895    577.895
 31.770    702.000    617.364     84.636    577.704    590.992    604.070    577.704    577.704
 31.870    676.000    611.557     64.443    577.516    588.515    600.554    577.516    577.516
 31.970    559.179    608.101    -48.923    577.330    587.236    598.192    577.330    577.330
 32.070    662.000    605.815     56.185    577.147    586.540    596.419    577.147    577.147
 32.170    604.000    604.163     -0.163    576.966    586.151    594.975    576.966    576.966
 32.270    598.116    602.925     -4.809    576.788    585.961    593.749    576.788    576.788
 32.370    618.000    602.012     15.988    576.612    585.931    592.690    576.612    576.612
 32.470    626.000    601.384     24.616    576.438    586.048    591.772    576.438    576.438
 32.570    607.000    601.025      5.975    576.267    586.312    590.978    576.267    576.267
 32.670    588.822    600.938    -12.116    576.099    586.736    590.298    576.099    576.099
 32.770    629.000    601.141     27.859    575.932    587.342    589.730    575.932    575.932
 32.870    642.000    601.670     40.330    575.769    588.163    589.273    575.769    575.769
 32.970    578.000    602.581    -24.581    575.607    589.251    588.935    575.607    575.607
 33.070    640.000    603.961     36.039    575.449    590.677    588.731    575.449    575.449
 33.170    646.087    605.946     40.141    575.292    592.552    588.684    575.292    575.292
 33.270    626.000    608.759     17.241    575.138    595.055    588.839    575.138    575.138
 33.370    599.896    612.836    -12.940    574.986    598.533    589.286    574.986    574.986
 33.470    640.000    619.135     20.865    574.837    603.744    590.223    574.837    574.837
 33.570    587.551    629.812    -42.261    574.690    612.392    592.104    574.690    574.690
 33.670    641.000    649.282     -8.282    574.545    627.962    595.855    574.545    574.545
 33.770    681.000    685.074     -4.074    574.403    656.398    603.061    574.403    574.403
 33.870    729.000    746.924    -17.924    574.263    705.387    615.772    574.263    574.263
 33.970    845.443    842.287      3.155    574.125    780.815    635.556    574.125    574.125
 34.070    966.000    967.897     -1.897    573.990    880.106    661.724    573.990    573.990
 34.170   1097.000   1099.236     -2.236    573.857    983.913    689.114    573.857    573.857
 34.270   1158.000   1186.558    -28.558    573.726   1052.976    707.250    573.726    573.726
 34.370   1210.000   1182.168     27.832    573.597   1049.645    706.084    573.597    573.597
 34.470   1123.000   1088.777     34.223    573.471    976.049    686.185    573.471    573.471
 34.570    938.000    955.931    -17.931    573.347    871.291    657.985    573.347    573.347
 34.670    818.000    831.554    -13.554    573.225    773.204    631.578    573.225    573.225
 34.770    781.329    738.193     43.136    573.105    699.589    611.712    573.105    573.105
 34.870    684.000    677.961      6.039    572.988    652.116    598.834    572.988    572.988
 34.970    652.000    643.005      8.995    572.873    624.588    591.290    572.873    572.873
 35.070    643.000    623.676     19.324    572.760    609.389    587.046    572.760    572.760
 35.170    622.000    612.694      9.306    572.649    600.772    584.570    572.649    572.649
 35.270    643.000    605.852     37.148    572.541    595.415    582.976    572.541    572.541
 35.370    616.000    601.111     14.889    572.434    591.710    581.834    572.434    572.434
 35.470    617.000    597.562     19.438    572.330    588.938    580.953    572.330    572.330
 35.570    620.000    594.787     25.213    572.228    586.769    580.245    572.228    572.228
 35.670    657.000    592.564     64.436    572.128    585.027    579.664    572.128    572.128
 35.770    612.000    590.756     21.244    572.030    583.604    579.181    572.030    572.030
 35.870    550.939    589.271    -38.332    571.934    582.426    578.778    571.934    571.934
 35.970    606.000    588.042     17.958    571.841    581.439    578.442    571.841    571.841
 36.070    602.000    587.021     14.979    571.749    580.605    578.164    571.749    571.749
 36.170    582.041    586.172     -4.131    571.660    579.894    577.937    571.660    571.660
 36.270    591.000    585.472      5.528    571.572    579.284    577.759    571.572    571.572
 36.370    599.000    584.902     14.098    571.487    578.760    577.628    571.487    571.487
 36.470    534.867    584.449    -49.582    571.404    578.307    577.546    571.404    571.404
 36.570    552.000    584.109    -32.109    571.322    577.917    577.513    571.322    571.322
 36.670    589.000    583.878      5.122    571.243    577.584    577.536    571.243    571.243
 36.770    582.000    583.760     -1.760    571.166    577.303    577.622    571.166    571.166
 36.870    588.000    583.765      4.235    571.091    577.073    577.782    571.091    571.091
 36.970    586.000    583.912      2.088    571.018    576.896    578.033    571.018    571.018
 37.070    617.000    584.233     32.767    570.947    576.782    578.397    570.947    570.947
 37.170    635.087    584.789     50.298    570.877    576.756    578.910    570.877    570.877
 37.270    628.000    585.700     42.300    570.810    576.873    579.636    570.810    570.810
 37.370    541.713    587.196    -45.483    570.745    577.241    580.699    570.745    570.745
 37.470    554.608    589.717    -35.109    570.681    578.031    582.367    570.681    570.681
 37.570    598.000    594.026      3.974    570.620    579.454    585.190    570.620    570.620
 37.670    629.000    601.308     27.692    570.561    581.672    590.194    570.561    570.561
 37.770    625.729    613.090     12.639    570.503    584.635    598.956    570.503    570.503
 37.870    590.009    630.757    -40.748    570.447    587.870    613.330    570.447    570.447
 37.970    698.000    654.551     43.449    570.394    590.372    634.567    570.394    570.394
 38.070    649.906    682.518    -32.612    570.342    591.007    661.845    570.342    570.342
 38.170    682.875    709.723    -26.848    570.292    589.509    690.497    570.292    570.292
 38.270    721.000    727.696     -6.696    570.243    586.705    711.228    570.243    570.243
 38.370    763.000    727.456     35.544    570.197    583.586    714.064    570.197    570.197
 38.470    675.000    707.839    -32.839    570.153    580.765    697.227    570.153    570.153
 38.570    668.090    677.748     -9.658    570.110    578.537    669.323    570.110    570.110
 38.670    630.000    647.611    -17.611    570.069    576.958    640.724    570.069    570.069
 38.770    590.521    623.296    -32.775    570.030    575.918    617.410    570.030    570.030
 38.870    590.962    606.315    -15.352    569.993    575.258    601.051    569.993    569.993
 38.970    599.000    595.656      3.344    569.957    574.841    590.773    569.957    569.957
 39.070    606.000    589.399     16.601    569.923    574.569    584.753    569.923    569.923
 39.170    549.000    585.770    -36.770    569.891    574.381    581.280    569.891    569.891
 39.270    560.000    583.557    -23.557    569.861    574.245    579.174    569.861    569.861
 39.370    565.000    582.087    -17.087    569.832    574.145    577.775    569.832    569.832
 39.470    561.000    581.022    -20.022    569.806    574.069    576.758    569.806    569.806
 39.570    587.000    580.205      6.795    569.780    574.013    575.972    569.780    569.780
 39.670    563.000    579.557    -16.557    569.757    573.973    575.341    569.757    569.757
 39.770    597.000    579.036     17.964    569.735    573.947    574.825    569.735    569.735
 39.870    591.000    578.613     12.387    569.715    573.933    574.395    569.715    569.715
 39.970    597.000    578.268     18.732    569.697    573.932    574.034    569.697    569.697
 40.070    602.957    577.988     24.969    569.680    573.941    573.726    569.680    569.680
 40.170    574.000    577.760     -3.760    569.665    573.962    573.463    569.665    569.665
 40.270    547.503    577.578    -30.076    569.652    573.995    573.235    569.652    569.652
 40.370    606.140    577.436     28.704    569.640    574.039    573.038    569.640    569.640
 40.470    591.805    577.330     14.475    569.629    574.095    572.865    569.629    569.629
 40.570    555.000    577.256    -22.256    569.621    574.164    572.713    569.621    569.621
 40.670    544.653    577.214    -32.561    569.614    574.247    572.580    569.614    569.614
 40.770    585.000    577.201      7.799    569.608    574.346    572.463    569.608    569.608
 40.870    575.000    577.218     -2.218    569.604    574.463    572.360    569.604    569.604
 40.970    574.000    577.267     -3.267    569.602    574.600    572.269    569.602    569.602
 41.070    580.000    577.348      2.652    569.601    574.760    572.190    569.601    569.601
 41.170    568.000    577.465     -9.465    569.602    574.947    572.120    569.602    569.602
 41.270    622.988    577.622     45.366    569.604    575.166    572.061    569.604    569.604
 41.370    598.000    577.826     20.174    569.607    575.424    572.010    569.607    569.607
 41.470    609.129    578.085     31.044    569.613    575.730    571.968    569.613    569.613
 41.570    553.000    578.410    -25.410    569.619    576.096    571.934    569.619    569.619
 41.670    597.000    578.817     18.183    569.627    576.536    571.910    569.627    569.627
 41.770    595.751    579.332     16.419    569.637    577.076    571.894    569.637    569.637
 41.870    545.876    579.994    -34.118    569.648    577.755    571.889    569.648    569.648
 41.970    592.000    580.881     11.119    569.660    578.647    571.896    569.660    569.660
 42.070    627.134    582.146     44.988    569.674    579.900    571.923    569.674    569.674
 42.170    583.000    584.104     -1.104    569.689    581.817    571.980    569.689    569.689
 42.270    599.000    587.332     11.668    569.706    584.953    572.089    569.706    569.706
 42.370    546.000    592.765    -46.765    569.724    590.209    572.287    569.724    569.724
 42.470    612.596    601.640     10.956    569.743    598.774    572.620    569.743    569.743
 42.570    597.000    615.151    -18.151    569.764    611.798    573.133    569.764    569.764
 42.670    600.000    633.758    -33.758    569.786    629.722    573.846    569.786    569.786
 42.770    586.000    656.215    -70.215    569.810    651.351    574.709    569.810    569.810
 42.870    627.000    678.558    -51.558    569.834    672.868    575.570    569.834    569.834
 42.970    704.000    693.939     10.061    569.860    687.688    576.168    569.860    569.860
 43.070    680.000    695.674    -15.674    569.888    689.377    576.244    569.888    569.888
 43.170    671.000    682.863    -11.863    569.917    677.068    575.766    569.917    569.917
 43.270    661.000    661.409     -0.409    569.946    656.442    574.959    569.946    569.946
 43.370    604.000    638.619    -34.619    569.978    634.528    574.103    569.978    569.978
 43.470    629.000    619.135      9.865    570.010    615.793    573.376    570.010    570.010
 43.570    585.185    604.683    -19.498    570.044    601.898    572.844    570.044    570.044
 43.670    571.192    595.066    -23.874    570.079    592.654    572.501    570.079    570.079
 43.770    617.157    589.166     27.990    570.115    586.986    572.302    570.115    570.115
 43.870    604.000    585.711     18.289    570.152    583.668    572.199    570.152    570.152
 43.970    627.128    583.687     43.441    570.191    581.727    572.154    570.191    570.191
 44.070    583.000    582.446      0.554    570.231    580.538    572.141    570.231    570.231
 44.170    626.000    581.630     44.370    570.272    579.757    572.147    570.272    570.272
 44.270    571.000    581.061    -10.061    570.314    579.212    572.164    570.314    570.314
 44.370    579.000    580.651     -1.651    570.357    578.819    572.190    570.357    570.357
 44.470    594.000    580.355     13.645    570.401    578.534    572.223    570.401    570.401
 44.570    645.000    580.145     64.855    570.447    578.332    572.261    570.447    570.447
 44.670    562.000    580.004    -18.004    570.493    578.194    572.304    570.493    570.493
 44.770    580.000    579.920      0.080    570.541    578.109    572.352    570.541    570.541
 44.870    612.000    579.882     32.118    570.590    578.068    572.404    570.590    570.590
 44.970    583.000    579.885      3.115    570.640    578.064    572.461    570.640    570.640
 45.070    586.000    579.924      6.076    570.690    578.093    572.521    570.690    570.690
 45.170    611.370    579.994     31.376    570.742    578.151    572.585    570.742    570.742
 45.270    604.000    580.092     23.908    570.795    578.235    572.653    570.795    570.795
 45.370    567.866    580.218    -12.352    570.849    578.343    572.724    570.849    570.849
 45.470    610.000    580.368     29.632    570.904    578.473    572.800    570.904    570.904
 45.570    522.000    580.544    -58.544    570.961    578.625    572.880    570.961    570.961
 45.670    620.000    580.744     39.256    571.018    578.798    572.963    571.018    571.018
 45.770    639.000    580.969     58.031    571.076    578.993    573.051    571.076    571.076
 45.870    603.132    581.220     21.912    571.135    579.210    573.144    571.135    571.135
 45.970    591.512    581.497     10.015    571.195    579.450    573.241    571.195    571.195
 46.070    629.003    581.803     47.200    571.255    579.714    573.344    571.255    571.255
 46.170    573.000    582.139     -9.139    571.317    580.004    573.452    571.317    571.317
 46.270    566.648    582.509    -15.861    571.380    580.322    573.566    571.380    571.380
 46.370    581.000    582.916     -1.916    571.444    580.672    573.687    571.444    571.444
 46.470    601.000    583.365     17.635    571.508    581.058    573.814    571.508    571.508
 46.570    613.842    583.862     29.980    571.574    581.485    573.950    571.574    571.574
 46.670    599.668    584.415     15.253    571.640    581.959    574.095    571.640    571.640
 46.770    578.000    585.034     -7.034    571.707    582.489    574.251    571.707    571.707
 46.870    562.000    585.732    -23.732    571.775    583.087    574.418    571.775    571.775
 46.970    598.000    586.530     11.470    571.844    583.771    574.600    571.844    571.844
 47.070    601.000    587.461     13.539    571.914    584.572    574.801    571.914    571.914
 47.170    575.000    588.589    -13.589    571.984    585.544    575.026    571.984    571.984
 47.270    573.000    590.032    -17.032    572.055    586.794    575.290    572.055    572.055
 47.370    604.679    592.017     12.662    572.128    588.525    575.614    572.128    572.128
 47.470    603.000    594.931      8.069    572.200    591.085    576.040    572.200    572.200
 47.570    581.587    599.363    -17.776    572.274    594.999    576.628    572.274    572.274
 47.670    634.000    606.049     27.951    572.348    600.930    577.453    572.348    572.348
 47.770    624.000    615.677      8.323    572.424    609.494    578.585    572.424    572.424
 47.870    632.000    628.530      3.470    572.499    620.944    580.056    572.499    572.499
 47.970    641.000    644.020     -3.020    572.576    634.750    581.807    572.576    572.576
 48.070    629.000    660.203    -31.203    572.653    649.163    583.643    572.653    572.653
 48.170    664.000    673.464     -9.464    572.731    660.936    585.203    572.731    572.731
 48.270    655.000    679.389    -24.389    572.810    666.099    586.042    572.810    572.810
 48.370    653.229    675.852    -22.624    572.889    662.739    585.949    572.889    572.889
 48.470    647.268    665.204    -17.937    572.969    652.962    585.167    572.969    572.969
 48.570    639.000    651.951    -12.951    573.050    640.810    584.156    573.050    573.050
 48.670    602.000    639.701    -37.701    573.131    629.517    583.290    573.131    573.131
 48.770    582.000    630.397    -48.397    573.213    620.820    582.772    573.213    573.213
 48.870    612.000    624.656    -12.656    573.296    615.260    582.679    573.296    573.296
 48.970    596.000    622.273    -26.273    573.379    612.639    583.003    573.379    573.379
 49.070    612.000    622.687    -10.687    573.462    612.431    583.710    573.462    573.462
 49.170    621.000    625.364     -4.364    573.547    614.128    584.776    573.547    573.547
 49.270    647.000    630.044     16.956    573.631    617.446    586.223    573.631    573.631
 49.370    608.000    636.963    -28.963    573.717    622.502    588.171    573.717    573.717
 49.470    618.805    647.258    -28.454    573.803    630.103    590.949    573.803    573.803
 49.570    693.782    663.910     29.872    573.889    642.437    595.348    573.889    573.889
 49.670    696.226    693.536      2.690    573.976    664.400    603.089    573.976    573.976
 49.770    721.000    748.905    -27.905    574.064    705.473    617.454    574.064    574.064
 49.870    829.304    851.020    -21.716    574.152    781.226    643.874    574.152    574.152
 49.970    966.000   1027.907    -61.907    574.240    912.264    689.767    574.240    574.240
 50.070   1186.000   1305.585   -119.585    574.329   1117.940    761.805    574.329    574.329
 50.170   1599.000   1692.088    -93.088    574.418   1404.226    862.068    574.418    574.418
 50.270   2103.892   2157.877    -53.984    574.508   1749.263    982.892    574.508    574.508
 50.370   2522.000   2623.066   -101.066    574.598   2093.917   1103.553    574.598    574.598
 50.470   2859.313   2964.112   -104.799    574.689   2346.716   1191.986    574.689    574.689
 50.570   2994.000   3058.430    -64.430    574.780   2416.881   1216.357    574.780    574.780
 50.670   2816.000   2865.614    -49.614    574.872   2274.489   1166.130    574.872    574.872
 50.770   2431.000   2464.451    -33.451    574.964   1977.923   1061.673    574.964    574.964
 50.870   1964.000   1988.462    -24.462    575.056   1626.162    937.538    575.056    575.056
 50.970   1495.272   1549.306    -54.034    575.149   1302.020    822.585    575.149    575.149
 51.070   1176.000   1208.307    -32.307    575.242   1051.027    732.632    575.242    575.242
 51.170   1038.000    979.139     58.861    575.335    883.348    671.202    575.335    575.335
 51.270    826.354    844.192    -17.838    575.428    785.826    633.847    575.428    575.428
 51.370    800.765    773.772     26.993    575.522    736.126    613.209    575.522    575.522
 51.470    732.085    739.815     -7.730    575.617    712.838    602.629    575.617    575.617
 51.570    695.531    721.898    -26.367    575.711    700.043    597.599    575.711    575.711
 51.670    728.000    708.498     19.502    575.806    688.673    595.659    575.806    575.806
 51.770    726.000    695.712     30.288    575.901    675.955    595.681    575.901    575.901
 51.870    691.298    683.863      7.435    575.997    662.730    597.145    575.997    575.997
 51.970    715.000    674.154     40.846    576.092    650.619    599.635    576.092    576.092
 52.070    700.000    667.106     32.894    576.188    640.743    602.552    576.188    576.188
 52.170    617.797    662.262    -44.464    576.284    633.533    605.009    576.284    576.284
 52.270    704.000    658.504     45.496    576.381    628.889    605.989    576.381    576.381
 52.370    695.000    654.823     40.177    576.477    626.431    604.863    576.477    576.477
 52.470    674.000    651.018     22.982    576.574    625.726    601.860    576.574    576.574
 52.570    674.000    647.639     26.361    576.671    626.467    597.839    576.671    576.671
 52.670    694.000    645.518     48.482    576.768    628.566    593.717    576.768    576.768
 52.770    605.781    645.523    -39.741    576.865    632.250    590.136    576.865    576.865
 52.870    616.666    648.655    -31.989    576.962    638.208    587.407    576.962    576.962
 52.970    702.000    656.350     45.650    577.060    647.824    585.583    577.060    577.060
 53.070    680.000    670.851      9.149    577.157    663.455    584.550    577.157    577.157
 53.170    704.797    695.511      9.285    577.255    688.607    584.154    577.255    577.255
 53.270    782.000    734.825     47.175    577.353    727.731    584.439    577.353    577.353
 53.370    799.000    793.149      5.851    577.451    785.291    585.297    577.451    577.451
 53.470    890.000    873.248     16.752    577.549    864.089    586.694    577.549    577.549
 53.570    999.000    973.893     25.107    577.647    962.961    588.562    577.647    577.647
 53.670   1092.451   1087.309      5.142    577.745   1074.315    590.724    577.745    577.745
 53.770   1173.000   1196.956    -23.956    577.843   1181.950    592.839    577.843    577.843
 53.870   1323.000   1277.568     45.432    577.941   1261.110    594.397    577.941    577.941
 53.970   1365.000   1302.989     62.011    578.040   1286.163    594.875    578.040    578.040
 54.070   1276.000   1263.264     12.736    578.138   1247.347    594.072    578.138    578.138
 54.170   1187.120   1173.563     13.558    578.236   1159.534    592.286    578.236    578.236
 54.270    966.000   1061.498    -95.498    578.334   1049.786    590.067    578.334    578.334
 54.370    896.000    950.737    -54.737    578.433    941.305    587.882    578.433    578.433
 54.470    822.168    855.518    -33.350    578.531    848.047    586.015    578.531    578.531
 54.570    789.203    781.714      7.488    578.629    775.772    584.581    578.629    578.629
 54.670    724.000    729.262     -5.262    578.727    724.417    583.578    578.727    578.727
 54.770    674.000    694.663    -20.663    578.825    690.555    582.937    578.825    578.825
 54.870    684.616    673.218     11.398    578.923    669.582    582.562    578.923    578.923
 54.970    659.771    660.568     -0.797    579.021    657.224    582.366    579.021    579.021
 55.070    608.434    653.423    -44.988    579.118    650.257    582.284    579.118    579.118
 55.170    655.785    649.640      6.145    579.216    646.583    582.273    579.216    579.216
 55.270    662.834    647.986     14.848    579.314    644.992    582.308    579.314    579.314
 55.370    616.000    647.824    -31.824    579.411    644.859    582.375    579.411    579.411
 55.470    654.000    648.862      5.138    579.508    645.901    582.469    579.508    579.508
 55.570    656.000    651.009      4.991    579.605    648.027    582.587    579.605    579.605
 55.670    617.000    654.298    -37.298    579.702    651.268    582.730    579.702    579.702
 55.770    700.557    658.879     41.679    579.799    655.776    582.901    579.799    579.799
 55.870    682.395    665.080     17.315    579.895    661.870    583.104    579.895    579.895
 55.970    686.000    673.556     12.444    579.992    670.193    583.352    579.992    579.992
 56.070    708.810    685.586     23.224    580.088    682.003    583.667    580.088    580.088
 56.170    693.000    703.589    -10.589    580.184    699.673    584.094    580.184    580.184
 56.270    698.923    731.839    -32.916    580.280    727.401    584.708    580.280    580.280
 56.370    772.000    777.243     -5.243    580.375    771.968    585.635    580.375    580.375
 56.470    873.645    849.731     23.914    580.470    843.126    587.051    580.470    580.470
 56.570    943.000    961.583    -18.583    580.565    952.933    589.178    580.565    580.565
 56.670   1140.745   1124.997     15.748    580.660   1113.368    592.236    580.660    580.660
 56.770   1354.000   1347.677      6.323    580.754   1332.000    596.362    580.754    580.754
 56.870   1618.000   1627.107     -9.107    580.848   1606.363    601.512    580.848    580.848
 56.970   1923.030   1944.812    -21.782    580.942   1918.315    607.357    580.942    580.942
 57.070   2224.888   2261.954    -37.066    581.036   2229.724    613.200    581.036    581.036
 57.170   2566.000   2519.189     46.811    581.129   2482.313    617.981    581.129    581.129
 57.270   2541.019   2649.780   -108.761    581.221   2610.539    620.503    581.221    581.221
 57.370   2532.199   2612.678    -80.479    581.314   2574.068    620.032    581.314    581.314
 57.470   2465.000   2421.142     43.858    581.406   2385.898    616.811    581.406    581.406
 57.570   2145.000   2132.180     12.820    581.498   2101.994    611.864    581.498    581.498
 57.670   1810.000   1811.573     -1.573    581.589   1786.957    606.380    581.589    581.589
 57.770   1459.000   1510.072    -51.072    581.680   1490.614    601.288    581.680    581.680
 57.870   1245.000   1257.402    -12.402    581.771   1242.135    597.156    581.771    581.771
 57.970   1043.000   1064.776    -21.776    581.861   1052.468    594.254    581.861    581.861
 58.070    907.971    930.166    -22.194    581.951    919.490    592.683    581.951    581.951
 58.170    826.000    844.393    -18.393    582.040    833.949    592.518    582.040    582.040
 58.270    737.000    796.597    -59.597    582.129    784.802    593.939    582.129    582.129
 58.370    775.000    777.872     -2.872    582.217    762.795    597.295    582.217    582.217
 58.470    819.000    782.713     36.287    582.305    761.958    603.049    582.305    582.305
 58.570    766.000    808.606    -42.606    582.393    779.384    611.591    582.393    582.393
 58.670    853.000    854.489     -1.489    582.480    813.987    622.946    582.480    582.480
 58.770    908.000    918.825    -10.825    582.567    864.876    636.470    582.567    582.567
 58.870    944.275    997.843    -53.568    582.653    929.799    650.644    582.653    582.653
 58.970   1093.000   1084.419      8.581    582.738   1004.001    663.104    582.738    582.738
 59.070   1172.697   1168.458      4.240    582.823   1080.130    671.108    582.823    582.823
 59.170   1268.000   1239.708     28.292    582.908   1149.961    672.628    582.908    582.908
 59.270   1283.000   1291.260     -8.260    582.992   1206.746    667.499    582.992    582.992
 59.370   1295.000   1319.810    -24.810    583.075   1245.451    657.448    583.075    583.075
 59.470   1391.363   1323.667     67.696    583.158   1261.877    644.979    583.158    583.158
 59.570   1358.000   1303.898     54.102    583.240   1254.844    632.334    583.240    583.240
 59.670   1208.363   1267.857    -59.494    583.322   1230.129    621.086    583.322    583.322
 59.770   1255.000   1228.631     26.369    583.403   1199.990    612.061    583.403    583.403
 59.870   1193.987   1199.802     -5.815    583.484   1177.857    605.414    583.484    583.484
 59.970   1228.000   1191.024     36.976    583.564   1173.715    600.818    583.564    583.564
 60.070   1244.000   1207.312     36.688    583.643   1193.116    597.737    583.643    583.643
 60.170   1309.000   1250.559     58.441    583.722   1238.463    595.665    583.722    583.722
 60.270   1337.920   1319.670     18.250    583.800   1309.019    594.248    583.800    583.800
 60.370   1407.790   1407.764      0.026    583.877   1398.116    593.279    583.877    583.877
 60.470   1514.000   1499.406     14.594    583.954   1490.443    592.639    583.954    583.954
 60.570   1590.000   1571.133     18.867    584.030   1562.618    592.258    584.030    584.030
 60.670   1650.000   1597.452     52.548    584.106   1589.196    592.093    584.106    584.106
 60.770   1530.000   1562.795    -32.795    584.180   1554.637    592.112    584.180    584.180
 60.870   1430.519   1471.027    -40.508    584.255   1462.808    592.299    584.255    584.255
 60.970   1267.261   1342.081    -74.820    584.328   1333.638    592.648    584.328    584.328
 61.070   1218.000   1200.422     17.578    584.401   1191.569    593.171    584.401    584.401
 61.170   1061.249   1066.417     -5.169    584.473   1056.929    593.909    584.473    584.473
 61.270    915.769    953.375    -37.607    584.544    942.938    594.947    584.544    584.544
 61.370    846.852    867.776    -20.924    584.614    855.907    596.458    584.614    584.614
 61.470    813.000    810.989      2.011    584.684    796.904    598.744    584.684    584.684
 61.570    805.000    781.693     23.307    584.753    764.114    602.301    584.753    584.753
 61.670    795.000    778.245     16.755    584.821    755.165    607.860    584.821    584.821
 61.770    820.915    800.278     20.637    584.889    768.723    616.385    584.889    584.889
 61.870    840.000    849.048     -9.048    584.955    804.953    628.967    584.955    584.955
 61.970    891.000    926.487    -35.487    585.021    864.812    646.584    585.021    585.021
 62.070   1093.106   1033.237     59.869    585.086    948.444    669.730    585.086    585.086
 62.170   1133.938   1166.230    -32.291    585.151   1053.207    697.986    585.151    585.151
 62.270   1266.000   1316.492    -50.492    585.214   1171.864    729.620    585.214    585.214
 62.370   1447.024   1467.718    -20.694    585.277   1291.404    761.345    585.277    585.277
 62.470   1587.000   1596.436     -9.436    585.339   1393.154    788.368    585.339    585.339
 62.570   1683.000   1675.835      7.165    585.400   1455.799    805.200    585.400    585.400
 62.670   1628.000   1685.378    -57.378    585.460   1463.008    807.632    585.460    585.460
 62.770   1614.000   1622.033     -8.033    585.519   1412.352    795.048    585.519    585.519
 62.870   1473.000   1502.316    -29.316    585.577   1316.935    770.850    585.577    585.577
 62.970   1268.000   1352.562    -84.562    585.635   1197.668    740.458    585.635    585.635
 63.070   1177.000   1197.761    -20.761    585.692   1074.394    709.015    585.692    585.692
 63.170   1046.908   1056.091     -9.184    585.747    961.549    680.264    585.747    585.747
 63.270    923.653    937.973    -14.320    585.802    867.406    656.353    585.802    585.802
 63.370    829.771    847.056    -17.284    585.856    794.861    638.039    585.856    585.856
 63.470    771.000    781.993    -10.993    585.909    742.841    625.051    585.909    585.909
 63.570    688.215    738.577    -50.362    585.961    707.999    616.529    585.961    585.961
 63.670    729.000    711.704     17.296    586.012    686.277    611.428    586.012    586.012
 63.770    758.000    696.806     61.194    586.063    674.037    608.817    586.063    586.063
 63.870    703.002    690.629     12.373    586.112    668.677    608.048    586.112    586.112
 63.970    667.000    691.508    -24.508    586.160    668.823    608.826    586.160    586.160
 64.070    739.041    699.318     39.723    586.208    674.263    611.238    586.208    586.208
 64.170    720.949    715.288      5.662    586.254    685.748    615.761    586.254    586.254
 64.270    697.688    741.683    -43.994    586.299    704.683    623.256    586.299    586.299
 64.370    786.000    781.339      4.661    586.344    732.708    634.915    586.344    586.344
 64.470    825.135    836.957    -11.822    586.387    771.148    652.116    586.387    586.387
 64.570    903.121    910.155     -7.033    586.430    820.346    676.133    586.430    586.430
 64.670   1048.000   1000.343     47.657    586.471    878.973    707.706    586.471    586.471
 64.770   1103.000   1103.591     -0.591    586.511    943.397    746.541    586.511    586.511
 64.870   1148.641   1211.715    -63.075    586.551   1007.251    790.824    586.551    586.551
 64.970   1342.000   1312.151     29.849    586.589   1061.657    836.874    586.589    586.589
 65.070   1450.000   1389.682     60.318    586.626   1097.046    879.050    586.626    586.626
 65.170   1469.000   1430.561     38.439    586.663   1106.758    910.267    586.663    586.663
 65.270   1429.581   1427.303      2.278    586.698   1090.068    923.761    586.698    586.698
 65.370   1449.167   1381.564     67.603    586.732   1052.063    916.098    586.732    586.732
 65.470   1400.000   1303.633     96.367    586.765   1001.101    889.203    586.765    586.765
 65.570   1248.810   1208.307     40.503    586.797    945.858    849.189    586.797    586.797
 65.670   1103.000   1109.676     -6.676    586.828    893.150    803.328    586.828    586.828
 65.770   1056.000   1017.877     38.123    586.857    846.939    757.793    586.857    586.857
 65.870    899.000    938.334    -39.334    586.886    808.392    716.840    586.886    586.886
 65.970    872.181    872.578     -0.397    586.914    776.726    682.786    586.914    586.914
 66.070    854.000    819.862     34.138    586.940    750.517    656.307    586.940    586.940
 66.170    740.000    778.631    -38.631    586.965    728.721    636.895    586.965    586.965
 66.270    790.714    747.178     43.536    586.990    710.824    623.359    586.990    586.990
 66.370    668.040    723.785    -55.745    587.013    696.527    614.282    587.013    587.013
 66.470    734.261    706.851     27.410    587.034    685.553    608.339    587.034    587.034
 66.570    668.185    695.033    -26.848    587.055    677.626    604.465    587.055    587.055
 66.670    661.000    687.308    -26.308    587.075    672.488    601.895    587.075    587.075
 66.770    631.000    682.951    -51.951    587.093    669.916    600.126    587.093    587.093
 66.870    685.000    681.496      3.504    587.111    669.750    598.855    587.111    587.111
 66.970    648.000    682.749    -34.749    587.127    671.967    597.906    587.127    587.127
 67.070    657.321    686.858    -29.537    587.141    676.806    597.190    587.141    587.141
 67.170    693.088    694.466     -1.379    587.155    684.949    596.669    587.155    587.155
 67.270    645.000    706.933    -61.933    587.168    697.755    596.341    587.168    587.168
 67.370    691.000    726.597    -35.597    587.179    717.537    596.234    587.179    587.179
 67.470    730.845    757.040    -26.194    587.189    747.814    596.407    587.189    587.189
 67.570    764.000    803.214    -39.214    587.198    793.449    596.951    587.198    587.198
 67.670    860.737    871.273    -10.536    587.206    860.479    597.981    587.206    587.206
 67.770    967.000    967.907     -0.907    587.212    955.466    599.628    587.212    587.212
 67.870   1043.000   1099.080    -56.080    587.217   1084.261    602.007    587.217    587.217
 67.970   1242.457   1268.209    -25.751    587.221   1250.218    605.181    587.221    587.221
 68.070   1448.000   1474.048    -26.048    587.224   1452.123    609.122    587.224    587.224
 68.170   1714.221   1708.669      5.552    587.225   1682.213    613.666    587.225    587.225
 68.270   2003.593   1955.890     47.703    587.226   1924.640    618.484    587.226    587.226
 68.370   2126.000   2190.559    -64.559    587.225   2154.763    623.065    587.225    587.225
 68.470   2377.000   2379.896     -2.896    587.222   2340.470    626.744    587.222    587.222
 68.570   2515.270   2489.573     25.698    587.219   2448.120    628.825    587.219    587.219
 68.670   2526.757   2495.766     30.992    587.214   2454.364    628.824    587.214    587.214
 68.770   2410.000   2396.972     13.028    587.208   2357.716    626.711    587.208    587.208
 68.870   2355.000   2214.897    140.103    587.200   2179.436    622.922    587.200    587.200
 68.970   1890.614   1983.431    -92.816    587.191   1952.733    618.142    587.191    587.191
 69.070   1691.258   1736.012    -44.754    587.181   1710.376    613.046    587.181    587.181
 69.170   1502.000   1498.802      3.198    587.170   1478.004    608.163    587.170    587.170
 69.270   1359.621   1288.981     70.640    587.157   1272.459    603.837    587.157    587.157
 69.370   1154.354   1115.339     39.015    587.143   1102.358    600.246    587.143    587.143
 69.470   1036.000    979.780     56.220    587.128    969.563    597.434    587.128    587.128
 69.570    939.000    879.286     59.714    587.111    871.126    595.336    587.111    587.111
 69.670    823.499    808.062     15.437    587.093    801.365    593.834    587.093    587.093
 69.770    871.000    759.391    111.609    587.074    753.703    592.792    587.074    587.074
 69.870    818.000    726.973     91.027    587.053    721.964    592.082    587.053    587.053
 69.970    647.367    705.642    -58.274    587.031    701.085    591.600    587.031    587.031
 70.070    781.000    691.572     89.428    587.008    687.320    591.269    587.008    587.008
 70.170    680.000    682.160     -2.160    586.983    678.113    591.035    586.983    586.983
 70.270    708.000    675.753     32.247    586.957    671.847    590.865    586.957    586.957
 70.370    669.000    671.365     -2.365    586.929    667.555    590.740    586.929    586.929
 70.470    659.000    668.442     -9.442    586.901    664.694    590.648    586.901    586.901
 70.570    638.853    666.697    -27.845    586.870    662.982    590.584    586.870    586.870
 70.670    701.000    666.017     34.983    586.839    662.306    590.546    586.839    586.839
 70.770    659.000    666.418     -7.418    586.806    662.683    590.536    586.806    586.806
 70.870    678.000    668.056      9.944    586.771    664.263    590.558    586.771    586.771
 70.970    627.930    671.272    -43.343    586.735    667.378    590.621    586.735    586.735
 71.070    628.606    676.683    -48.077    586.698    672.625    590.744    586.698    586.698
 71.170    642.461    685.302    -42.841    586.660    680.992    590.955    586.660    586.660
 71.270    737.000    698.695     38.305    586.620    694.000    591.295    586.620    586.620
 71.370    733.000    719.113     13.887    586.578    713.836    591.827    586.578    586.578
 71.470    721.000    749.556    -28.556    586.535    743.419    592.632    586.535    586.535
 71.570    785.000    793.682     -8.682    586.491    786.307    593.811    586.491    586.491
 71.670    879.000    855.478     23.522    586.445    846.374    595.473    586.445    586.445
 71.770    936.000    938.622     -2.622    586.398    927.200    597.718    586.398    586.398
 71.870   1074.000   1045.582     28.418    586.350   1031.182    600.615    586.350    586.350
 71.970   1234.000   1176.530     57.470    586.300   1158.491    604.169    586.300    586.300
 72.070   1317.582   1328.266    -10.684    586.248   1306.012    608.294    586.248    586.248
 72.170   1518.000   1493.311     24.689    586.196   1466.474    612.789    586.196    586.196
 72.270   1674.000   1659.307     14.693    586.141   1627.856    617.320    586.141    586.141
 72.370   1796.000   1809.001    -13.001    586.085   1773.379    621.419    586.085    586.085
 72.470   1897.657   1921.759    -24.101    586.028   1882.970    624.528    586.028    586.028
 72.570   2029.430   1978.056     51.374    585.970   1937.638    626.118    585.970    585.970
 72.670   1870.000   1966.645    -96.645    585.909   1926.434    625.887    585.909    585.909
 72.770   1821.934   1889.903    -67.969    585.848   1851.662    623.900    585.848    585.848
 72.870   1778.000   1762.557     15.443    585.785   1727.640    620.558    585.785    585.785
 72.970   1621.316   1605.093     16.224    585.720   1574.294    616.414    585.720    585.720
 73.070   1486.000   1437.289     48.711    585.654   1410.871    612.000    585.654    585.654
 73.170   1264.000   1274.842    -10.842    585.587   1252.652    607.729    585.587    585.587
 73.270   1106.000   1128.471    -22.471    585.518   1110.082    603.876    585.518    585.518
 73.370    990.115   1004.165    -14.050    585.447    989.007    600.586    585.447    585.447
 73.470    887.000    903.907    -16.907    585.375    891.370    597.901    585.375    585.375
 73.570    841.000    826.671     14.329    585.302    816.174    595.790    585.302    585.302
 73.670    741.000    769.526    -28.526    585.227    760.555    594.191    585.227    585.227
 73.770    744.000    728.675     15.325    585.151    720.793    593.026    585.151    585.151
 73.870    703.000    700.262      2.738    585.073    693.106    592.223    585.073    585.073
 73.970    690.000    680.901      9.099    584.993    674.167    591.722    584.993    584.993
 74.070    650.000    667.917    -17.917    584.912    661.343    591.483    584.912    584.912
 74.170    638.000    659.379    -21.379    584.830    652.720    591.487    584.830    584.830
 74.270    698.000    653.994     44.006    584.746    647.010    591.730    584.746    584.746
 74.370    607.000    650.949    -43.949    584.661    643.397    592.216    584.661    584.661
 74.470    634.000    649.742    -15.742    584.574    641.374    592.948    584.574    584.574
 74.570    622.000    650.040    -28.040    584.485    640.615    593.921    584.485    584.485
 74.670    618.426    651.563    -33.137    584.395    640.865    595.110    584.395    584.395
 74.770    623.000    654.012    -31.012    584.304    641.874    596.463    584.304    584.304
 74.870    702.000    657.008     44.992    584.211    643.347    597.899    584.211    584.211
 74.970    694.000    660.075     33.925    584.116    644.922    599.302    584.116    584.116
 75.070    637.760    662.645    -24.885    584.020    646.174    600.528    584.020    584.020
 75.170    688.326    664.137     24.189    583.923    646.669    601.432    583.923    583.923
 75.270    672.973    664.123      8.849    583.824    646.082    601.908    583.824    583.824
 75.370    625.888    662.521    -36.633    583.723    644.335    601.950    583.723    583.723
 75.470    700.000    659.666     40.334    583.621    641.651    601.674    583.621    583.621
 75.570    679.000    656.217     22.783    583.517    638.474    601.293    583.517    583.517
 75.670    639.000    652.975    -13.975    583.412    635.340    601.073    583.412    583.412
 75.770    633.669    650.779    -17.109    583.306    632.792    601.310    583.306    583.306
 75.870    664.053    650.474     13.579    583.197    631.355    602.327    583.197    583.197
 75.970    625.000    652.917    -27.917    583.088    631.535    604.472    583.088    583.088
 76.070    618.275    658.969    -40.694    582.976    633.821    608.118    582.976    582.976
 76.170    702.104    669.462     32.641    582.864    638.668    613.642    582.864    582.864
 76.270    684.000    685.117     -1.117    582.749    646.456    621.382    582.749    582.749
 76.370    729.000    706.421     22.579    582.633    657.436    631.581    582.633    582.633
 76.470    756.000    733.478     22.522    582.516    671.640    644.302    582.516    582.516
 76.570    766.000    765.817      0.183    582.397    688.794    659.354    582.397    582.397
 76.670    764.297    802.252    -37.955    582.277    708.233    676.216    582.277    582.277
 76.770    863.000    840.753     22.247    582.154    728.839    693.975    582.154    582.154
 76.870    861.000    878.376    -17.376    582.031    748.999    711.303    582.031    582.031
 76.970    973.000    911.334     61.666    581.906    766.648    726.479    581.906    581.906
 77.070    968.231    935.367     32.864    581.779    779.462    737.569    581.779    581.779
 77.170   1014.000    946.667     67.333    581.651    785.367    742.838    581.651    581.651
 77.270    980.624    943.170     37.454    581.521    783.238    741.349    581.521    581.521
 77.370    982.559    925.442     57.118    581.390    773.380    733.359    581.390    581.390
 77.470    941.000    896.398     44.602    581.257    757.375    720.201    581.257    581.257
 77.570    889.808    860.139     29.668    581.123    737.453    703.745    581.123    581.123
 77.670    833.294    820.759     12.535    580.987    715.837    685.857    580.987    580.987
 77.770    790.000    781.668      8.332    580.850    694.383    668.095    580.850    580.850
 77.870    786.000    745.367     40.633    580.711    674.448    651.600    580.711    580.711
 77.970    692.000    713.446    -21.446    580.570    656.897    637.098    580.570    580.570
 78.070    667.000    686.680    -19.680    580.428    642.150    624.942    580.428    580.428
 78.170    617.000    665.176    -48.176    580.285    630.265    615.183    580.285    580.285
 78.270    698.631    648.552     50.078    580.140    621.035    607.648    580.140    580.140
 78.370    622.000    636.136    -14.136    579.993    614.092    602.030    579.993    579.993
 78.470    588.069    627.130    -39.061    579.845    609.002    597.967    579.845    579.845
 78.570    621.000    620.748      0.252    579.695    605.337    595.101    579.695    579.695
 78.670    577.708    616.300    -38.592    579.544    602.721    593.118    579.544    579.544
 78.770    577.000    613.229    -36.229    579.392    600.850    591.767    579.392    579.392
 78.870    601.112    611.119    -10.008    579.237    599.496    590.857    579.237    579.237
 78.970    643.090    609.679     33.411    579.082    598.501    590.257    579.082    579.082
 79.070    579.761    608.718    -28.957    578.924    597.758    589.880    578.924    578.924
 79.170    620.000    608.120     11.880    578.765    597.205    589.677    578.765    578.765
 79.270    600.000    607.824     -7.824    578.605    596.805    589.621    578.605    578.605
 79.370    597.000    607.812    -10.812    578.443    596.547    589.705    578.443    578.443
 79.470    643.210    608.095     35.115    578.280    596.431    589.940    578.280    578.280
 79.570    615.000    608.720      6.280    578.115    596.473    590.357    578.115    578.115
 79.670    599.000    609.764    -10.764    577.949    596.700    591.008    577.949    577.949
 79.770    633.258    611.354     21.904    577.781    597.148    591.982    577.781    577.781
 79.870    614.000    613.675      0.325    577.611    597.866    593.414    577.611    577.611
 79.970    575.000    617.001    -42.001    577.440    598.921    595.513    577.440    577.440
 80.070    658.386    621.718     36.668    577.268    600.393    598.584    577.268    577.268
 80.170    621.000    628.361     -7.361    577.094    602.388    603.055    577.094    577.094
 80.270    660.754    637.637     23.117    576.919    605.043    609.499    576.919    576.919
 80.370    617.000    650.436    -33.436    576.742    608.524    618.636    576.742    576.742
 80.470    673.000    667.806      5.194    576.563    613.032    631.313    576.563    576.563
 80.570    702.685    690.879     11.806    576.383    618.796    648.437    576.383    576.383
 80.670    724.000    720.757      3.243    576.202    626.059    670.864    576.202    576.202
 80.770    793.830    758.339     35.490    576.019    635.066    699.249    576.019    576.019
 80.870    836.143    804.135     32.008    575.835    646.052    733.866    575.835    575.835
 80.970    911.000    858.030     52.970    575.649    659.200    774.420    575.649    575.649
 81.070    890.335    919.053    -28.718    575.462    674.582    819.868    575.462    575.462
 81.170    967.774    985.169    -17.395    575.273    692.071    868.303    575.273    575.273
 81.270   1126.000   1053.177     72.823    575.082    711.278    916.913    575.082    575.082
 81.370   1215.000   1118.790     96.210    574.891    731.514    962.102    574.891    574.891
 81.470   1226.000   1177.014     48.986    574.697    751.819    999.837    574.697    574.697
 81.570   1196.261   1222.923    -26.662    574.503    771.077   1026.306    574.503    574.503
 81.670   1316.000   1252.759     63.241    574.307    788.265   1038.774    574.307    574.307
 81.770   1362.000   1264.434     97.566    574.109    802.429   1036.106    574.109    574.109
 81.870   1323.499   1257.849     65.651    573.910    812.888   1018.882    573.910    573.910
 81.970   1180.330   1234.597    -54.267    573.710    819.246    989.090    573.710    573.710
 82.070   1233.646   1197.590     36.056    573.508    821.402    949.741    573.508    573.508
 82.170   1240.000   1150.563     89.437    573.304    819.483    904.442    573.304    573.304
 82.270   1151.000   1097.427     53.573    573.099    813.728    856.865    573.099    573.099
 82.370   1062.335   1041.711     20.623    572.893    804.432    810.244    572.893    572.893
 82.470   1058.000    986.304     71.696    572.686    792.020    767.044    572.686    572.686
 82.570    934.663    933.442      1.222    572.476    777.141    728.852    572.476    572.476
 82.670    859.000    884.712    -25.712    572.266    760.617    696.433    572.266    572.266
 82.770    817.845    841.017    -23.172    572.054    743.268    669.872    572.054    572.054
 82.870    759.000    802.611    -43.611    571.841    725.760    648.756    571.841    571.841
 82.970    802.282    769.273     33.009    571.626    708.580    632.377    571.626    571.626
 83.070    770.508    740.570     29.938    571.410    692.119    619.912    571.410    571.410
 83.170    691.000    716.079    -25.079    571.192    676.753    610.562    571.192    571.192
 83.270    640.000    695.480    -55.480    570.974    662.857    603.633    570.974    570.974
 83.370    660.658    678.548    -17.890    570.753    650.763    598.566    570.753    570.753
 83.470    635.000    665.113    -30.113    570.532    640.722    594.943    570.532    570.532
 83.570    706.914    655.026     51.888    570.309    632.886    592.460    570.309    570.309
 83.670    619.000    648.129    -29.129    570.084    627.306    590.911    570.084    570.084
 83.770    616.000    644.233    -28.233    569.858    623.938    590.148    569.858    569.858
 83.870    642.528    643.083     -0.556    569.631    622.643    590.058    569.631    569.631
 83.970    647.000    644.338      2.662    569.403    623.183    590.536    569.403    569.403
 84.070    695.596    647.550     48.046    569.173    625.230    591.462    569.173    569.173
 84.170    702.332    652.159     50.173    568.942    628.365    592.697    568.942    568.942
 84.270    633.000    657.495    -24.495    568.709    632.087    594.073    568.709    568.709
 84.370    683.000    662.808     20.192    568.476    635.839    595.394    568.476    568.476
 84.470    617.000    667.285    -50.285    568.240    639.023    596.448    568.240    568.240
 84.570    574.000    670.151    -96.151    568.004    641.068    597.030    568.004    568.004
 84.670    634.000    670.793    -36.793    567.766    641.526    596.977    567.766    567.766
 84.770    648.000    668.910    -20.910    567.527    640.173    596.211    567.527    567.527
 84.870    616.000    664.591    -48.591    567.287    637.065    594.763    567.287    567.287
 84.970    589.000    658.259    -69.259    567.045    632.499    592.761    567.045    567.045
 85.070    600.818    650.533    -49.714    566.802    626.911    590.385    566.802    566.802
 85.170    640.000    642.078     -2.078    566.558    620.769    587.835    566.558    566.558
 85.270    631.763    633.512     -1.749    566.313    614.500    585.297    566.313    566.313
 85.370    601.000    625.350    -24.350    566.066    608.458    582.935    566.066    566.066
 85.470    564.000    617.993    -53.993    565.818    602.906    580.886    565.818    565.818
 85.570    574.000    611.723    -37.723    565.569    598.015    579.261    565.569    565.569
 85.670    548.000    606.715    -58.715    565.318    593.875    578.144    565.318    565.318
 85.770    609.000    603.048      5.952    565.067    590.503    577.599    565.067    565.067
 85.870    595.000    600.733     -5.733    564.814    587.863    577.670    564.814    564.814
 85.970    591.682    599.728     -8.046    564.560    585.888    578.385    564.560    564.560
 86.070    608.000    599.958      8.042    564.304    584.497    579.750    564.304    564.304
 86.170    600.000    601.328     -1.328    564.048    583.610    581.748    564.048    564.048
 86.270    592.000    603.728    -11.728    563.790    583.166    584.332    563.790    563.790
 86.370    610.532    607.035      3.497    563.531    583.128    587.416    563.531    563.531
 86.470    598.577    611.112    -12.536    563.271    583.487    590.870    563.271    563.271
 86.570    626.000    615.810     10.190    563.010    584.271    594.518    563.010    563.010
 86.670    579.883    620.960    -41.077    562.747    585.540    598.133    562.747    562.747
 86.770    603.187    626.383    -23.196    562.484    587.386    601.442    562.484    562.484
 86.870    668.593    631.895     36.697    562.219    589.926    604.144    562.219    562.219
 86.970    660.099    637.337     22.762    561.953    593.295    605.945    561.953    561.953
 87.070    659.945    642.613     17.332    561.686    597.630    606.614    561.686    561.686
 87.170    647.018    647.743     -0.725    561.418    603.055    606.044    561.418    561.418
 87.270    673.000    652.861     20.139    561.149    609.658    604.282    561.149    561.149
 87.370    619.628    658.173    -38.545    560.879    617.463    601.511    560.879    560.879
 87.470    675.584    663.872     11.712    560.607    626.403    597.989    560.607    560.607
 87.570    690.000    670.055     19.945    560.335    636.302    593.992    560.335    560.335
 87.670    682.000    676.666      5.334    560.061    646.847    589.774    560.061    560.061
 87.770    733.000    683.469     49.531    559.787    657.586    585.553    559.787    559.787
 87.870    693.000    690.043      2.957    559.511    667.923    581.505    559.511    559.511
 87.970    684.617    695.799    -11.183    559.234    677.143    577.758    559.234    559.234
 88.070    733.000    700.056     32.944    558.956    684.478    574.398    558.956    558.956
 88.170    752.000    702.159     49.841    558.678    689.235    571.466    558.678    558.678
 88.270    736.000    701.666     34.334    558.398    690.967    568.965    558.398    558.398
 88.370    654.221    698.480    -44.259    558.117    689.600    566.873    558.117    558.117
 88.470    706.000    692.895     13.105    557.835    685.468    565.150    557.835    557.835
 88.570    654.561    685.490    -30.929    557.553    679.196    563.748    557.553    557.553
 88.670    724.366    676.991     47.375    557.269    671.562    562.615    557.269    557.269
 88.770    686.000    668.154     17.846    556.984    663.365    561.705    556.984    556.984
 88.870    705.554    659.690     45.864    556.698    655.358    560.977    556.698    556.698
 88.970    639.378    652.220    -12.842    556.412    648.194    560.398    556.412    556.412
 89.070    556.000    646.241    -90.241    556.124    642.399    559.940    556.124    556.124
 89.170    639.842    642.092     -2.250    555.836    638.333    559.581    555.836    555.836
 89.270    680.000    639.941     40.059    555.547    636.182    559.303    555.547    555.547
 89.370    636.000    639.776     -3.776    555.256    635.950    559.089    555.256    555.256
 89.470    635.127    641.415     -6.287    554.965    637.471    558.926    554.965    554.965
 89.570    639.000    644.520     -5.520    554.673    640.423    558.796    554.673    554.673
 89.670    653.000    648.619      4.381    554.380    644.351    558.682    554.380    554.380
 89.770    685.000    653.131     31.869    554.087    648.693    558.567    554.087    554.087
 89.870    673.000    657.403     15.597    553.792    652.815    558.430    553.792    553.792
 89.970    661.000    660.758      0.242    553.497    656.061    558.249    553.497    553.497
 90.070    677.000    662.582     14.418    553.200    657.836    558.008    553.200    553.200
 90.170    646.711    662.432    -15.721    552.903    657.707    557.692    552.903    552.903
 90.270    638.000    660.124    -22.124    552.606    655.496    557.298    552.606    552.606
 90.370    623.000    655.768    -32.768    552.307    651.307    556.831    552.307    552.307
 90.470    640.000    649.711     -9.711    552.008    645.475    556.304    552.008    552.008
 90.570    630.000    642.437    -12.437    551.707    638.466    555.734    551.707    551.707
 90.670    651.510    634.460     17.050    551.407    630.776    555.140    551.407    551.407
 90.770    636.696    626.257     10.439    551.105    622.867    554.538    551.105    551.105
 90.870    572.000    618.234    -46.234    550.803    615.131    553.943    550.803    550.803
 90.970    584.000    610.710    -26.710    550.500    607.875    553.366    550.500    550.500
 91.070    586.000    603.913    -17.913    550.196    601.320    552.815    550.196    550.196
 91.170    569.000    597.985    -28.985    549.892    595.603    552.293    549.892    549.892
 91.270    560.000    592.991    -32.991    549.586    590.787    551.805    549.586    549.586
 91.370    557.000    588.932    -31.932    549.281    586.874    551.350    549.281    549.281
 91.470    587.000    585.766      1.234    548.974    583.823    550.925    548.974    548.974
 91.570    600.000    583.422     16.578    548.667    581.564    550.530    548.667    548.667
 91.670    574.876    581.819     -6.944    548.360    580.020    550.161    548.360    548.360
 91.770    600.000    580.884     19.116    548.052    579.120    549.816    548.052    548.052
 91.870    570.000    580.562    -10.562    547.743    578.811    549.492    547.743    547.743
 91.970    531.595    580.825    -49.230    547.433    579.065    549.190    547.433    547.433
 92.070    592.000    581.679     10.321    547.124    579.890    548.908    547.124    547.124
 92.170    591.000    583.170      7.830    546.813    581.326    548.650    546.813    546.813
 92.270    551.000    585.375    -34.375    546.502    583.452    548.417    546.502    546.502
 92.370    564.897    588.409    -23.512    546.191    586.375    548.214    546.191    546.191
 92.470    566.661    592.412    -25.751    545.879    590.233    548.044    545.879    545.879
 92.570    591.000    597.542     -6.542    545.566    595.178    547.913    545.566    545.566
 92.670    590.000    603.964    -13.964    545.253    601.370    547.826    545.253    545.253
 92.770    654.440    611.836     42.604    544.940    608.964    547.786    544.940    544.940
 92.870    650.000    621.288     28.712    544.626    618.086    547.797    544.626    544.626
 92.970    680.066    632.408     47.657    544.312    628.825    547.858    544.312    544.312
 93.070    636.243    645.218     -8.974    543.997    641.202    547.968    543.997    543.997
 93.170    632.000    659.718    -27.718    543.682    655.223    548.125    543.682    543.682
 93.270    639.000    675.769    -36.769    543.366    670.756    548.320    543.366    543.366
 93.370    738.431    693.158     45.273    543.051    687.596    548.546    543.051    543.051
 93.470    699.613    711.575    -11.961    542.734    705.441    548.794    542.734    542.734
 93.570    764.978    730.619     34.359    542.418    723.901    549.054    542.418    542.418
 93.670    723.544    749.821    -26.278    542.101    742.514    549.321    542.101    542.101
 93.770    738.692    768.704    -30.013    541.784    760.802    549.595    541.784    541.784
 93.870    787.261    786.870      0.392    541.467    778.354    549.886    541.467    541.467
 93.970    802.000    804.100     -2.100    541.149    794.929    550.221    541.149    541.149
 94.070    755.000    820.422    -65.422    540.831    810.508    550.644    540.831    540.831
 94.170    802.732    836.079    -33.347    540.513    825.277    551.215    540.513    540.513
 94.270    812.000    851.435    -39.435    540.194    839.527    552.001    540.194    540.194
 94.370    847.000    866.832    -19.832    539.876    853.531    553.076    539.876    539.876
 94.470    890.000    882.481      7.519    539.557    867.438    554.500    539.557    539.557
 94.570    883.000    898.422    -15.422    539.238    881.241    556.320    539.238    539.238
 94.670    899.794    914.553    -14.759    538.919    894.818    558.556    538.919    538.919
 94.770    934.247    930.701      3.546    538.600    908.008    561.197    538.600    538.600
 94.870    924.000    946.683    -22.683    538.280    920.676    564.194    538.280    538.280
 94.970    934.458    962.286    -27.829    537.961    932.697    567.460    537.961    537.961
 95.070    970.000    977.185     -7.185    537.641    943.876    570.864    537.641    537.641
 95.170   1016.447    990.836     25.611    537.322    953.836    574.240    537.322    537.322
 95.270   1004.000   1002.414      1.586    537.002    961.953    577.388    537.002    537.002
 95.370   1051.513   1010.845     40.668    536.683    967.370    580.090    536.683    536.683
 95.470   1039.000   1014.918     24.082    536.363    969.096    582.126    536.363    536.363
 95.570   1030.000   1013.498     16.502    536.043    966.191    583.300    536.043    536.043
 95.670    999.000   1005.810     -6.810    535.724    958.016    583.478    535.724    535.724
 95.770   1054.649    991.688     62.961    535.404    944.449    582.614    535.404    535.404
 95.870    911.971    971.678    -59.707    535.084    925.980    580.762    535.084    535.084
 95.970   1012.000    946.963     65.037    534.765    903.651    578.063    534.765    534.765
 96.070    906.959    919.156    -12.197    534.446    878.877    574.717    534.446    534.446
 96.170    906.000    890.073     15.927    534.126    853.252    570.943    534.126    534.126
 96.270    885.000    861.556     23.444    533.807    828.399    566.961    533.807    533.807
 96.370    892.040    835.365     56.675    533.488    805.882    562.968    533.488    533.488
 96.470    854.000    813.119     40.881    533.170    787.150    559.133    533.170    533.170
 96.570    776.000    796.263    -20.263    532.851    773.515    555.589    532.851    532.851
 96.670    791.000    786.048      4.952    532.533    766.134    552.431    532.533    532.533
 96.770    814.000    783.512     30.488    532.215    765.988    549.717    532.215    532.215
 96.870    778.000    789.449    -11.449    531.897    773.843    547.472    531.897    531.897
 96.970    803.017    804.543     -1.525    531.579    790.384    545.697    531.579    531.579
 97.070    886.000    829.163     56.837    531.262    816.005    544.369    531.262    531.262
 97.170    893.000    863.407     29.593    530.945    850.835    543.454    530.945    530.945
 97.270    889.866    907.090    -17.224    530.628    894.735    542.908    530.628    530.628
 97.370    975.000    959.708     15.292    530.312    947.246    542.686    530.312    530.312
 97.470   1046.914   1020.364     26.550    529.996   1007.524    542.736    529.996    529.996
 97.570   1072.767   1087.717    -14.950    529.680   1074.278    543.007    529.680    529.680
 97.670   1163.000   1159.947      3.053    529.365   1145.746    543.444    529.365    529.365
 97.770   1241.000   1234.723      6.277    529.051   1219.657    543.987    529.051    529.051
 97.870   1304.000   1309.202     -5.202    528.737   1293.232    544.571    528.737    528.737
 97.970   1410.000   1380.059     29.941    528.423   1363.217    545.128    528.423    528.423
 98.070   1447.021   1443.607      3.414    528.110   1425.998    545.585    528.110    528.110
 98.170   1419.845   1496.042    -76.197    527.797   1477.845    545.869    527.797    527.797
 98.270   1570.000   1533.857     36.143    527.485   1515.315    545.914    527.485    527.485
 98.370   1568.700   1554.381     14.319    527.173   1535.787    545.671    527.173    527.173
 98.470   1512.000   1556.292    -44.292    526.862   1537.961    545.117    526.862    526.862
 98.570   1570.125   1539.892     30.233    526.552   1522.130    544.258    526.552    526.552
 98.670   1469.000   1507.002    -38.002    526.242   1490.083    543.126    526.242    526.242
 98.770   1518.182   1460.574     57.608    525.933   1444.714    541.776    525.933    525.933
 98.870   1395.153   1404.180     -9.027    525.625   1389.533    540.270    525.625    525.625
 98.970   1362.000   1341.580     20.420    525.317   1328.233    538.674    525.317    525.317
 99.070   1251.000   1276.409    -25.409    525.010   1264.389    537.048    525.010    525.010
 99.170   1334.000   1211.993    122.007    524.704   1201.273    535.446    524.704    524.704
 99.270   1219.000   1151.250     67.750    524.398   1141.759    533.913    524.398    524.398
 99.370   1086.000   1096.657    -10.657    524.093   1088.287    532.485    524.093    524.093
 99.470   1026.000   1050.257    -24.257    523.790   1042.875    531.190    523.790    523.790
 99.570    986.000   1013.692    -27.692    523.487   1007.145    530.046    523.487    523.487
 99.670    975.554    988.237    -12.683    523.184    982.365    529.062    523.184    523.184
 99.770    913.674    974.837    -61.163    522.883    969.476    528.243    522.883    522.883
 99.870    925.673    974.120    -48.447    522.583    969.109    527.585    522.583    522.583
 99.970    975.000    986.413    -11.413    522.283    981.601    527.079    522.283    522.283
100.070   1047.000   1011.754     35.246    521.985   1007.002    526.714    521.985    521.985
100.170   1072.000   1049.892     22.108    521.687   1045.077    526.474    521.687    521.687
100.270   1144.000   1100.288     43.712    521.391   1095.306    526.341    521.391    521.391
100.370   1186.000   1162.099     23.901    521.095   1156.863    526.296    521.095    521.095
100.470   1300.000   1234.141     65.859    520.801   1228.588    526.318    520.801    520.801
100.570   1364.729   1314.918     49.811    520.507   1309.007    526.386    520.507    520.507
100.670   1406.000   1402.512      3.488    520.215   1396.224    526.475    520.215    520.215
100.770   1555.000   1494.596     60.404    519.924   1487.937    526.563    519.924    519.924
100.870   1532.000   1588.469    -56.469    519.634   1581.467    526.627    519.634    519.634
100.970   1718.000   1681.151     36.849    519.345   1673.856    526.645    519.345    519.345
101.070   1809.000   1769.575     39.425    519.058   1762.056    526.598    519.058    519.058
101.170   1871.000   1850.854     20.146    518.771   1843.190    526.475    518.771    518.771
101.270   1988.000   1922.532     65.468    518.486   1914.807    526.271    518.486    518.486
101.370   1899.467   1982.718    -83.251    518.202   1975.011    525.989    518.202    518.202
101.470   2089.000   2030.034     58.966    517.920   2022.410    525.643    517.920    517.920
101.570   2113.000   2063.431     49.569    517.639   2055.935    525.251    517.639    517.639
101.670   2076.189   2081.996     -5.808    517.359   2074.655    524.833    517.359    517.359
101.770   2043.847   2084.917    -41.070    517.080   2077.733    524.411    517.080    517.080
101.870   2027.096   2071.655    -44.559    516.803   2064.612    524.004    516.803    516.803
101.970   1962.369   2042.298    -79.928    516.528   2035.363    523.628    516.528    516.528
102.070   1990.000   1997.912     -7.912    516.253   1991.040    523.296    516.253    516.253
102.170   1952.793   1940.699     12.093    515.981   1933.836    523.016    515.981    515.981
102.270   1809.083   1873.826    -64.742    515.710   1866.914    522.792    515.710    515.710
102.370   1744.000   1801.006    -57.006    515.440   1793.992    522.620    515.440    515.440
102.470   1674.000   1725.996    -51.996    515.172   1718.831    522.495    515.172    515.172
102.570   1622.000   1652.166    -30.166    514.906   1644.816    522.405    514.906    514.906
102.670   1545.000   1582.239    -37.239    514.641   1574.685    522.334    514.641    514.641
102.770   1410.000   1518.162   -108.162    514.378   1510.402    522.266    514.378    514.378
102.870   1387.000   1461.097    -74.097    514.116   1453.146    522.185    514.116    514.116
102.970   1355.000   1411.425    -56.425    513.856   1403.313    522.075    513.856    513.856
103.070   1374.093   1368.822      5.270    513.598   1360.594    521.925    513.598    513.598
103.170   1239.000   1332.342    -93.342    513.342   1324.051    521.724    513.342    513.342
103.270   1279.680   1300.532    -20.852    513.087   1292.240    521.465    513.087    513.087
103.370   1196.000   1271.604    -75.604    512.835   1263.382    521.139    512.835    512.835
103.470   1206.115   1243.656    -37.541    512.584   1235.579    520.741    512.584    512.584
103.570   1254.507   1214.936     39.571    512.335   1207.082    520.269    512.335    512.335
103.670   1162.328   1184.088    -21.760    512.088   1176.533    519.722    512.088    512.088
103.770   1077.000   1150.322    -73.322    511.843   1143.136    519.108    511.843    511.843
103.870   1077.000   1113.454    -36.454    511.600   1106.694    518.437    511.600    511.600
103.970   1023.000   1073.813    -50.813    511.359   1067.525    517.723    511.359    511.359
104.070   1023.113   1032.091     -8.977    511.119   1026.302    516.983    511.119    511.119
104.170    991.334    989.165      2.169    510.882    983.888    516.231    510.882    510.882
104.270    910.000    945.973    -35.973    510.647    941.204    515.484    510.647    510.647
104.370    926.436    903.412     23.024    510.415    899.138    514.752    510.415    510.415
104.470    922.193    862.294     59.898    510.184    858.490    514.045    510.184    510.184
104.570    808.000    823.309    -15.309    509.955    819.944    513.373    509.955    509.955
104.670    776.000    786.997    -10.997    509.729    784.036    512.736    509.729    509.729
104.770    779.000    753.766     25.234    509.505    751.171    512.141    509.505    509.505
104.870    784.000    723.897     60.103    509.283    721.623    511.593    509.283    509.283
104.970    756.000    697.486     58.514    509.063    695.491    511.089    509.063    509.063
105.070    686.819    674.516     12.303    508.846    672.760    510.628    508.846    508.846
105.170    678.000    654.866     23.134    508.631    653.312    510.207    508.631    508.631
105.270    637.000    638.335     -1.335    508.419    636.948    509.822    508.419    508.419
105.370    653.953    624.666     29.287    508.209    623.416    509.472    508.209    508.209
105.470    667.000    613.575     53.425    508.001    612.434    509.152    508.001    508.001
105.570    677.000    604.770     72.230    507.796    603.713    508.859    507.796    507.796
105.670    646.000    597.969     48.031    507.593    596.977    508.590    507.593    507.593
105.770    623.460    592.921     30.539    507.393    591.974    508.342    507.393    507.393
105.870    604.358    589.405     14.953    507.196    588.488    508.112    507.196    507.196
105.970    638.000    587.246     50.754    507.001    586.344    507.900    507.001    507.001
106.070    611.103    586.307     24.797    506.809    585.407    507.703    506.809    506.809
106.170    622.000    586.493     35.507    506.619    585.583    507.522    506.619    506.619
106.270    591.000    587.746      3.254    506.432    586.814    507.355    506.432    506.432
106.370    609.000    590.037     18.963    506.248    589.071    507.202    506.248    506.248
106.470    626.000    593.362     32.638    506.067    592.349    507.064    506.067    506.067
106.570    613.000    597.730     15.270    505.888    596.660    506.940    505.888    505.888
106.670    570.414    603.162    -32.748    505.713    602.021    506.832    505.713    505.713
106.770    622.000    609.677     12.323    505.540    608.453    506.739    505.540    505.540
106.870    670.000    617.287     52.713    505.370    615.967    506.662    505.370    505.370
106.970    661.000    625.983     35.017    505.203    624.554    506.600    505.203    505.203
107.070    673.000    635.730     37.270    505.039    634.181    506.554    505.039    505.039
107.170    669.000    646.455     22.545    504.878    644.773    506.521    504.878    504.878
107.270    626.482    658.040    -31.557    504.720    656.216    506.501    504.720    504.720
107.370    667.000    670.317     -3.317    504.565    668.345    506.491    504.565    504.565
107.470    682.000    683.068     -1.068    504.413    680.944    506.489    504.413    504.413
107.570    662.000    696.027    -34.027    504.265    693.750    506.490    504.265    504.265
107.670    652.521    708.878    -56.357    504.119    706.453    506.491    504.119    504.119
107.770    694.089    721.269    -27.180    503.977    718.705    506.486    503.977    503.977
107.870    746.000    732.823     13.177    503.838    730.134    506.471    503.838    503.838
107.970    745.000    743.161      1.839    503.702    740.368    506.440    503.702    503.702
108.070    726.835    751.936    -25.101    503.570    749.063    506.388    503.570    503.570
108.170    785.000    758.876     26.124    503.441    755.952    506.311    503.441    503.441
108.270    725.000    763.827    -38.827    503.316    760.885    506.207    503.316    503.316
108.370    715.348    766.792    -51.444    503.193    763.863    506.075    503.193    503.193
108.470    745.000    767.935    -22.935    503.075    765.050    505.916    503.075    503.075
108.570    699.000    767.561    -68.561    502.959    764.748    505.733    502.959    502.959
108.670    750.628    766.074    -15.447    502.848    763.356    505.530    502.848    502.848
108.770    768.557    763.922      4.635    502.740    761.316    505.314    502.740    502.740
108.870    720.000    761.543    -41.543    502.635    759.060    505.090    502.635    502.635
108.970    697.000    759.327    -62.327    502.534    756.976    504.862    502.534    502.534
109.070    787.910    757.590     30.320    502.437    755.371    504.636    502.437    502.437
109.170    813.417    756.552     56.864    502.344    754.464    504.415    502.344    502.344
109.270    739.000    756.332    -17.332    502.254    754.369    504.204    502.254    502.254
109.370    715.000    756.937    -41.937    502.168    755.092    504.004    502.168    502.168
109.470    738.000    758.269    -20.269    502.086    756.532    503.817    502.086    502.086
109.570    722.000    760.124    -38.124    502.008    758.484    503.644    502.008    502.008
109.670    741.000    762.201    -21.201    501.933    760.650    503.485    501.933    501.933
109.770    713.000    764.123    -51.123    501.863    762.651    503.339    501.863    501.863
109.870    751.979    765.462    -13.482    501.797    764.061    503.204    501.797    501.797
109.970    725.615    765.766    -40.151    501.734    764.438    503.072    501.734    501.734
110.070    735.000    764.656    -29.656    501.676    763.389    502.954    501.676    501.676
110.170    776.000    761.819     14.181    501.622    760.609    502.846    501.622    501.622
110.270    733.000    757.082    -24.082    501.572    755.925    502.744    501.572    501.572
110.370    737.000    750.429    -13.429    501.526    749.324    502.647    501.526    501.526
110.470    739.778    741.997     -2.219    501.484    740.944    502.555    501.484    501.484
110.570    723.000    732.042     -9.042    501.447    731.040    502.468    501.447    501.447
110.670    706.000    720.893    -14.893    501.414    719.940    502.385    501.414    501.414
110.770    726.000    708.906     17.094    501.385    708.001    502.308    501.385    501.385
110.870    651.000    696.463    -45.463    501.361    695.605    502.236    501.361    501.361
110.970    719.000    683.902     35.098    501.341    683.088    502.172    501.341    501.341
111.070    657.000    671.531    -14.531    501.325    670.757    502.114    501.325    501.325
111.170    696.324    659.616     36.708    501.314    658.880    502.063    501.314    501.314
111.270    687.150    648.379     38.771    501.308    647.678    502.021    501.308    501.308
111.370    628.488    637.994     -9.506    501.306    637.323    501.987    501.306    501.306
111.470    584.954    628.593    -43.639    501.309    627.948    501.961    501.309    501.309
111.570    601.566    620.258    -18.692    501.316    619.635    501.944    501.316    501.316
111.670    587.041    613.030    -25.989    501.328    612.426    501.936    501.328    501.328
111.770    614.585    606.916      7.669    501.345    606.326    501.936    501.345    501.345
111.870    611.000    601.887      9.113    501.366    601.308    501.945    501.366    501.366
111.970    567.000    597.893    -30.893    501.393    597.322    501.963    501.393    501.393
112.070    612.000    594.863     17.137    501.424    594.296    501.988    501.424    501.424
112.170    625.000    592.713     32.287    501.460    592.147    502.021    501.460    501.460
112.270    576.000    591.353    -15.353    501.501    590.786    502.062    501.501    501.501
112.370    626.000    590.690     35.310    501.547    590.121    502.109    501.547    501.547
112.470    613.649    590.636     23.013    501.598    590.062    502.163    501.598    501.598
112.570    577.000    591.105    -14.105    501.655    590.526    502.224    501.655    501.655
112.670    546.558    592.022    -45.464    501.716    591.438    502.290    501.716    501.716
112.770    642.000    593.322     48.678    501.782    592.731    502.362    501.782    501.782
112.870    597.000    594.951      2.049    501.854    594.353    502.440    501.854    501.854
112.970    617.521    596.869     20.652    501.931    596.265    502.523    501.931    501.931
113.070    600.000    599.050      0.950    502.013    598.439    502.611    502.013    502.013
113.170    585.289    601.484    -16.195    502.101    600.866    502.705    502.101    502.101
113.270    603.000    604.175     -1.175    502.194    603.550    502.805    502.194    502.194
113.370    598.000    607.143     -9.143    502.292    606.512    502.910    502.292    502.292
113.470    622.282    610.426     11.855    502.396    609.786    503.022    502.396    502.396
113.570    611.000    614.078     -3.078    502.505    613.427    503.141    502.505    502.505
113.670    659.000    618.171     40.829    502.620    617.509    503.268    502.620    502.620
113.770    651.692    622.805     28.888    502.740    622.127    503.403    502.740    502.740
113.870    595.739    628.104    -32.365    502.867    627.408    503.547    502.867    502.867
113.970    598.000    634.233    -36.233    502.998    633.513    503.701    502.998    502.998
114.070    663.000    641.399     21.601    503.136    640.649    503.867    503.136    503.136
114.170    629.000    649.867    -20.867    503.279    649.080    504.044    503.279    503.279
114.270    665.857    659.971      5.886    503.428    659.140    504.236    503.428    503.428
114.370    667.053    672.131     -5.078    503.583    671.245    504.442    503.583    503.583
114.470    736.049    686.868     49.181    503.744    685.916    504.666    503.744    503.744
114.570    707.000    704.823      2.177    503.911    703.790    504.907    503.911    503.911
114.670    687.249    726.772    -39.523    504.084    725.644    505.168    504.084    504.084
114.770    775.833    753.650     22.183    504.263    752.410    505.451    504.263    504.263
114.870    734.000    786.560    -52.560    504.448    785.189    505.757    504.448    504.448
114.970    830.000    826.790      3.210    504.639    825.266    506.088    504.639    504.639
115.070    864.851    875.813    -10.962    504.836    874.112    506.446    504.836    504.836
115.170    938.000    935.290      2.710    505.040    933.388    506.832    505.040    505.040
115.270    972.000   1007.054    -35.054    505.250   1004.924    507.249    505.250    505.250
115.370   1112.896   1093.086     19.810    505.466   1090.699    507.697    505.466    505.466
115.470   1146.000   1195.474    -49.474    505.688   1192.800    508.177    505.688    505.688
115.570   1291.000   1316.354    -25.354    505.917   1313.363    508.689    505.917    505.917
115.670   1476.000   1457.838     18.162    506.153   1454.499    509.235    506.153    506.153
115.770   1632.000   1621.924     10.076    506.395   1618.207    509.813    506.395    506.395
115.870   1841.572   1810.385     31.187    506.643   1806.262    510.424    506.643    506.643
115.970   2036.000   2024.656     11.344    506.899   2020.100    511.064    506.899    506.899
116.070   2206.000   2265.704    -59.704    507.160   2260.690    511.732    507.160    507.160
116.170   2538.377   2533.896      4.481    507.429   2528.406    512.426    507.429    507.429
116.270   2770.000   2828.856    -58.856    507.704   2822.875    513.139    507.704    507.704
116.370   3171.000   3149.421     21.579    507.986   3142.941    513.870    507.986    507.986
116.470   3615.991   3493.515    122.476    508.275   3486.533    514.612    508.275    508.275
116.570   3737.016   3857.997   -120.981    508.571   3850.518    515.360    508.571    508.571
116.670   4206.000   4238.716    -32.716    508.874   4230.751    516.110    508.874    508.874
116.770   4622.000   4630.479     -8.479    509.184   4622.048    516.855    509.184    509.184
116.870   4994.276   5027.081    -32.805    509.501   5018.210    517.591    509.501    509.501
116.970   5355.000   5421.368    -66.368    509.825   5412.088    518.314    509.825    509.825
117.070   5905.857   5805.345    100.513    510.156   5795.691    519.021    510.156    510.156
117.170   6093.000   6170.330    -77.330    510.495   6160.346    519.708    510.495    510.495
117.270   6628.000   6507.181    120.819    510.840   6496.910    520.372    510.840    510.840
117.370   6727.000   6806.595    -79.595    511.193   6796.088    521.009    511.193    511.193
117.470   7179.000   7059.530    119.470    511.553   7048.838    521.617    511.553    511.553
117.570   7316.000   7257.717     58.283    511.921   7246.898    522.190    511.921    511.921
117.670   7504.812   7394.269    110.544    512.296   7383.378    522.727    512.296    512.296
117.770   7516.000   7464.272     51.728    512.679   7453.366    523.223    512.679    512.679
117.870   7458.613   7465.280     -6.667    513.069   7454.414    523.677    513.069    513.069
117.970   7219.425   7397.568   -178.143    513.467   7386.794    524.087    513.467    513.467
118.070   7426.057   7264.103    161.954    513.873   7253.468    524.454    513.873    513.873
118.170   6894.000   7070.217   -176.217    514.286   7059.765    524.778    514.286    514.286
118.270   6737.000   6823.083    -86.083    514.707   6812.852    525.061    514.707    514.707
118.370   6480.000   6531.104    -51.104    515.136   6521.129    525.306    515.136    515.136
118.470   6045.000   6203.325   -158.325    515.573   6193.637    525.514    515.573    515.573
118.570   5858.000   5848.930      9.070    516.018   5839.557    525.689    516.018    516.018
118.670   5533.000   5476.856     56.144    516.470   5467.822    525.833    516.470    516.470
118.770   4988.355   5095.502   -107.146    516.931   5086.829    525.952    516.931    516.931
118.870   4873.000   4712.527    160.473    517.400   4704.233    526.050    517.400    517.400
118.970   4338.000   4334.707      3.293    517.877   4326.805    526.133    517.877    517.877
119.070   3945.438   3967.842    -22.404    518.362   3960.339    526.207    518.362    518.362
119.170   3690.000   3616.703     73.297    518.856   3609.603    526.279    518.856    518.856
119.270   3317.000   3285.028     31.972    519.357   3278.329    526.356    519.357    519.357
119.370   3073.000   2975.546     97.454    519.867   2969.240    526.445    519.867    519.867
119.470   2755.950   2690.042     65.908    520.386   2684.116    526.552    520.386    520.386
119.570   2339.556   2429.444    -89.889    520.913   2423.883    526.684    520.913    520.913
119.670   2135.100   2193.940    -58.840    521.448   2188.722    526.844    521.448    521.448
119.770   2032.000   1983.090     48.910    521.992   1978.191    527.039    521.992    521.992
119.870   1749.300   1795.956    -46.655    522.545   1791.349    527.271    522.545    522.545
119.970   1679.823   1631.216     48.608    523.107   1626.871    527.545    523.107    523.107
120.070   1539.000   1487.274     51.726    523.677   1483.159    527.863    523.677    523.677
120.170   1418.525   1362.363     56.162    524.256   1358.442    528.227    524.256    524.256
120.270   1320.000   1254.626     65.374    524.843   1250.863    528.640    524.843    524.843
120.370   1182.000   1162.197     19.803    525.440   1158.555    529.102    525.440    525.440
120.470   1123.000   1083.259     39.741    526.046   1079.699    529.615    526.046    526.046
120.570   1086.000   1016.093     69.907    526.661   1012.574    530.180    526.661    526.661
120.670   1008.427    959.109     49.318    527.284    955.590    530.798    527.284    527.284
120.770    855.092    910.872    -55.780    527.917    907.310    531.469    527.917    527.917
120.870    845.713    870.104    -24.391    528.559    866.457    532.195    528.559    528.559
120.970    846.000    835.694     10.306    529.211    831.917    532.975    529.211    529.211
121.070    811.000    806.683      4.317    529.871    802.731    533.810    529.871    529.871
121.170    764.000    782.259    -18.259    530.541    778.084    534.703    530.541    530.541
121.270    799.000    761.736     37.264    531.221    757.293    535.653    531.221    531.221
121.370    750.807    744.548      6.259    531.910    739.785    536.662    531.910    531.910
121.470    746.000    730.222     15.778    532.608    725.089    537.732    532.608    532.608
121.570    670.000    718.372    -48.372    533.317    712.817    538.865    533.317    533.317
121.670    704.000    708.680     -4.680    534.034    702.647    540.061    534.034    534.034
121.770    729.567    700.883     28.684    534.762    694.318    541.322    534.762    534.762
121.870    742.521    694.767     47.754    535.499    687.612    542.651    535.499    535.499
121.970    688.176    690.154     -1.978    536.246    682.350    544.049    536.246    536.246
122.070    649.000    686.892    -37.892    537.003    678.378    545.517    537.003    537.003
122.170    672.252    684.856    -12.603    537.770    675.569    547.058    537.770    537.770
122.270    710.220    683.932     26.287    538.547    673.811    548.671    538.547    538.547
122.370    649.907    684.024    -34.117    539.334    673.003    550.359    539.334    539.334
122.470    703.794    685.039     18.755    540.131    673.054    552.122    540.131    540.131
122.570    635.998    686.892    -50.895    540.938    673.880    553.958    540.938    540.938
122.670    682.000    689.499     -7.499    541.756    675.398    555.866    541.756    541.756
122.770    636.000    692.773    -56.773    542.584    677.525    557.843    542.584    542.584
122.870    671.000    696.628    -25.628    543.422    680.181    559.882    543.422    543.422
122.970    738.000    700.971     37.029    544.271    683.280    561.977    544.271    544.271
123.070    690.000    705.704    -15.704    545.130    686.734    564.117    545.130    545.130
123.170    666.000    710.723    -44.723    546.000    690.452    566.291    546.000    546.000
123.270    750.868    715.917     34.952    546.880    694.336    568.484    546.880    546.880
123.370    724.164    721.169      2.995    547.771    698.286    570.679    547.771    547.771
123.470    738.651    726.356     12.296    548.673    702.198    572.859    548.673    548.673
123.570    721.000    731.349    -10.349    549.586    705.963    575.001    549.586    549.586
123.670    754.948    736.015     18.933    550.509    709.471    577.086    550.509    550.509
123.770    749.864    740.201      9.663    551.444    712.591    579.089    551.444    551.444
123.870    698.466    743.823    -45.356    552.389    715.260    580.989    552.389    552.389
123.970    785.000    746.770     38.230    553.345    717.390    582.766    553.345    553.345
124.070    743.000    748.933     -5.933    554.313    718.887    584.401    554.313    554.313
124.170    780.000    750.235     29.765    555.292    719.693    585.878    555.292    555.292
124.270    769.751    750.630     19.122    556.282    719.770    587.186    556.282    556.282
124.370    752.000    750.098      1.902    557.283    719.107    588.320    557.283    557.283
124.470    782.484    748.651     33.833    558.296    717.715    589.278    558.296    558.296
124.570    761.055    746.324     14.732    559.320    715.627    590.064    559.320    559.320
124.670    768.000    743.175     24.825    560.355    712.894    590.683    560.355    560.355
124.770    705.511    739.279    -33.767    561.402    709.580    591.147    561.402    561.402
124.870    780.000    734.721     45.279    562.461    705.760    591.467    562.461    562.461
124.970    745.989    729.596     16.393    563.532    701.514    591.657    563.532    563.532
