neutron_powder_diffraction_0157
R_wp: 3.984
Temperature (K): 1074.000
Counts: 82919.00
Wavelength (Ã…): 2.52098
COMMENTS
Test file for demonstrating the .xyy file format in Reel1.0
END OF HEADER
   tth       Y_obs     Y_calc      Y_res    Background    Phase_1_Nuc    Phase_1_Mag    Phase_2_Nuc    Phase_2_Mag
  9.970    581.000    571.929      9.071    571.253    571.887    571.253    571.296    571.253
 10.070    619.000    572.060     46.940    571.328    572.015    571.328    571.373    571.328
 10.170    547.000    572.192    -25.192    571.397    572.146    571.397    571.443    571.397
 10.270    608.000    572.327     35.673    571.461    572.281    571.461    571.506    571.461
 10.370    594.278    572.468     21.810    571.518    572.421    571.518    571.564    571.518
 10.470    577.000    572.617      4.383    571.570    572.571    571.570    571.617    571.570
 10.570    557.292    572.779    -15.487    571.617    572.732    571.617    571.664    571.617
 10.670    570.000    572.958     -2.958    571.658    572.910    571.658    571.705    571.658
 10.770    550.819    573.160    -22.342    571.693    573.112    571.693    571.741    571.693
 10.870    592.908    573.393     19.515    571.724    573.345    571.724    571.771    571.724
 10.970    595.000    573.669     21.331    571.748    573.620    571.748    571.796    571.748
 11.070    608.000    574.005     33.995    571.768    573.956    571.768    571.816    571.768
 11.170    576.000    574.425      1.575    571.782    574.376    571.782    571.830    571.782
 11.270    578.000    574.968      3.032    571.791    574.918    571.791    571.840    571.791
 11.370    599.000    575.697     23.303    571.795    575.646    571.795    571.844    571.795
 11.470    610.000    576.754     33.246    571.794    576.703    571.794    571.843    571.794
 11.570    619.000    578.536     40.464    571.788    578.483    571.788    571.837    571.788
 11.670    633.000    582.201     50.799    571.777    582.146    571.777    571.826    571.777
 11.770    592.000    590.528      1.472    571.761    590.468    571.761    571.811    571.761
 11.870    647.888    608.130     39.758    571.740    608.060    571.740    571.790    571.740
 11.970    641.873    638.736      3.137    571.714    638.649    571.714    571.764    571.714
 12.070    653.705    678.501    -24.796    571.684    678.390    571.684    571.734    571.684
 12.170    680.000    709.913    -29.913    571.649    709.785    571.649    571.699    571.649
 12.270    669.977    710.902    -40.925    571.609    710.773    571.609    571.659    571.609
 12.370    639.000    680.534    -41.534    571.564    680.421    571.564    571.615    571.564
 12.470    634.000    640.497     -6.497    571.515    640.406    571.515    571.566    571.515
 12.570    602.000    609.094     -7.094    571.461    609.021    571.461    571.513    571.461
 12.670    557.000    590.792    -33.792    571.403    590.730    571.403    571.455    571.403
 12.770    593.000    582.044     10.956    571.340    581.986    571.340    571.392    571.340
 12.870    559.000    578.159    -19.159    571.273    578.103    571.273    571.326    571.273
 12.970    544.642    576.249    -31.608    571.202    576.193    571.202    571.256    571.202
 13.070    543.497    575.096    -31.598    571.126    575.040    571.126    571.180    571.126
 13.170    550.000    574.281    -24.281    571.046    574.225    571.046    571.101    571.046
 13.270    517.000    573.658    -56.658    570.962    573.602    570.962    571.017    570.962
 13.370    566.000    573.161     -7.161    570.874    573.105    570.874    570.929    570.874
 13.470    561.000    572.751    -11.751    570.782    572.695    570.782    570.837    570.782
 13.570    559.000    572.403    -13.403    570.685    572.347    570.685    570.741    570.685
 13.670    569.000    572.101     -3.101    570.585    572.045    570.585    570.640    570.585
 13.770    603.369    571.833     31.536    570.480    571.776    570.480    570.536    570.480
 13.870    546.000    571.591    -25.591    570.372    571.534    570.372    570.428    570.372
 13.970    613.000    571.365     41.635    570.260    571.308    570.260    570.316    570.260
 14.070    551.000    571.154    -20.154    570.143    571.097    570.143    570.200    570.143
 14.170    588.000    570.956     17.044    570.024    570.898    570.024    570.081    570.024
 14.270    593.243    570.765     22.479    569.900    570.707    569.900    569.957    569.900
 14.370    547.000    570.578    -23.578    569.772    570.520    569.772    569.830    569.772
 14.470    590.063    570.395     19.668    569.641    570.337    569.641    569.699    569.641
 14.570    609.538    570.215     39.323    569.507    570.157    569.507    569.565    569.507
 14.670    609.000    570.038     38.962    569.369    569.979    569.369    569.427    569.369
 14.770    589.032    569.862     19.171    569.227    569.802    569.227    569.286    569.227
 14.870    524.635    569.686    -45.051    569.081    569.626    569.081    569.141    569.081
 14.970    595.148    569.510     25.638    568.933    569.450    568.933    568.992    568.933
 15.070    580.947    569.334     11.613    568.781    569.274    568.781    568.841    568.781
 15.170    505.000    569.157    -64.157    568.625    569.097    568.625    568.685    568.625
 15.270    606.792    568.980     37.813    568.466    568.919    568.466    568.527    568.466
 15.370    595.000    568.801     26.199    568.304    568.740    568.304    568.365    568.304
 15.470    576.000    568.620      7.380    568.139    568.559    568.139    568.200    568.139
 15.570    572.000    568.438      3.562    567.971    568.376    567.971    568.032    567.971
 15.670    544.000    568.254    -24.254    567.799    568.192    567.799    567.861    567.799
 15.770    550.000    568.069    -18.069    567.624    568.006    567.624    567.687    567.624
 15.870    603.000    567.885     35.115    567.446    567.818    567.446    567.513    567.446
 15.970    583.000    567.697     15.303    567.266    567.628    567.266    567.334    567.266
 16.070    543.366    567.505    -24.140    567.082    567.437    567.082    567.150    567.082
 16.170    553.000    567.312    -14.312    566.895    567.243    566.895    566.964    566.895
 16.270    613.417    567.116     46.301    566.705    567.047    566.705    566.775    566.705
 16.370    555.000    566.918    -11.918    566.513    566.848    566.513    566.583    566.513
 16.470    572.000    566.718      5.282    566.317    566.648    566.317    566.388    566.317
 16.570    529.742    566.516    -36.774    566.119    566.445    566.119    566.190    566.119
 16.670    558.000    566.312     -8.312    565.918    566.240    565.918    565.989    565.918
 16.770    561.521    566.107     -4.586    565.715    566.035    565.715    565.786    565.715
 16.870    584.729    565.899     18.830    565.508    565.827    565.508    565.580    565.508
 16.970    554.000    565.688    -11.688    565.299    565.615    565.299    565.372    565.299
 17.070    538.853    565.475    -26.622    565.088    565.401    565.088    565.161    565.088
 17.170    588.000    565.259     22.741    564.874    565.186    564.874    564.947    564.874
 17.270    582.000    565.042     16.958    564.657    564.968    564.657    564.731    564.657
 17.370    556.000    564.822     -8.822    564.438    564.748    564.438    564.513    564.438
 17.470    573.000    564.601      8.399    564.217    564.526    564.217    564.292    564.217
 17.570    582.000    564.378     17.622    563.993    564.302    563.993    564.068    563.993
 17.670    607.308    564.152     43.156    563.766    564.076    563.766    563.842    563.766
 17.770    554.000    563.924     -9.924    563.538    563.848    563.538    563.614    563.538
 17.870    610.188    563.695     46.493    563.307    563.617    563.307    563.384    563.307
 17.970    535.835    563.463    -27.628    563.074    563.385    563.074    563.151    563.074
 18.070    537.364    563.229    -25.865    562.838    563.151    562.838    562.916    562.838
 18.170    541.000    562.994    -21.994    562.601    562.915    562.601    562.679    562.601
 18.270    556.050    562.756     -6.706    562.361    562.677    562.361    562.440    562.361
 18.370    600.237    562.517     37.720    562.119    562.437    562.119    562.199    562.119
 18.470    548.000    562.276    -14.276    561.875    562.195    561.875    561.956    561.875
 18.570    604.245    562.033     42.212    561.629    561.952    561.629    561.710    561.629
 18.670    585.000    561.789     23.211    561.381    561.708    561.381    561.463    561.381
 18.770    538.000    561.544    -23.544    561.132    561.462    561.132    561.214    561.132
 18.870    579.000    561.296     17.704    560.880    561.214    560.880    560.963    560.880
 18.970    554.000    561.047     -7.047    560.626    560.964    560.626    560.709    560.626
 19.070    497.000    560.796    -63.796    560.370    560.712    560.370    560.454    560.370
 19.170    561.000    560.545      0.455    560.113    560.460    560.113    560.198    560.113
 19.270    550.000    560.304    -10.304    559.854    560.219    559.854    559.939    559.854
 19.370    525.000    560.059    -35.059    559.593    559.973    559.593    559.679    559.593
 19.470    584.309    559.804     24.505    559.330    559.717    559.330    559.417    559.330
 19.570    558.000    559.545     -1.545    559.065    559.458    559.065    559.153    559.065
 19.670    577.000    559.286     17.714    558.799    559.198    558.799    558.888    558.799
 19.770    526.707    559.026    -32.319    558.532    558.936    558.532    558.621    558.532
 19.870    555.213    558.764     -3.551    558.262    558.674    558.262    558.352    558.262
 19.970    570.000    558.501     11.499    557.991    558.410    557.991    558.082    557.991
 20.070    547.000    558.237    -11.237    557.719    558.145    557.719    557.810    557.719
 20.170    535.000    557.972    -22.972    557.445    557.880    557.445    557.537    557.445
 20.270    563.000    557.715      5.285    557.170    557.622    557.170    557.263    557.170
 20.370    591.000    557.538     33.462    556.893    557.444    556.893    556.987    556.893
 20.470    598.000    557.294     40.706    556.614    557.199    556.614    556.710    556.614
 20.570    542.000    557.029    -15.029    556.335    556.932    556.335    556.432    556.335
 20.670    554.235    556.761     -2.525    556.054    556.662    556.054    556.153    556.054
 20.770    528.655    556.491    -27.837    555.772    556.391    555.772    555.872    555.772
 20.870    595.000    556.221     38.779    555.488    556.120    555.488    555.589    555.488
 20.970    541.605    555.951    -14.346    555.203    555.848    555.203    555.306    555.203
 21.070    551.000    555.680     -4.680    554.917    555.576    554.917    555.021    554.917
 21.170    549.000    555.411     -6.411    554.630    555.306    554.630    554.734    554.630
 21.270    555.000    555.163     -0.163    554.342    555.057    554.342    554.447    554.342
 21.370    617.000    554.922     62.078    554.052    554.815    554.052    554.159    554.052
 21.470    577.000    554.654     22.346    553.762    554.546    553.762    553.869    553.762
 21.570    570.003    554.383     15.620    553.470    554.274    553.470    553.579    553.470
 21.670    555.000    554.115      0.885    553.177    554.005    553.177    553.287    553.177
 21.770    599.000    553.851     45.149    552.883    553.739    552.883    552.995    552.883
 21.870    518.241    553.590    -35.349    552.589    553.478    552.589    552.702    552.589
 21.970    581.505    553.370     28.134    552.293    553.256    552.293    552.407    552.293
 22.070    520.000    553.124    -33.124    551.997    553.008    551.997    552.112    551.997
 22.170    569.000    552.862     16.138    551.699    552.745    551.699    551.816    551.699
 22.270    540.623    552.601    -11.978    551.401    552.482    551.401    551.519    551.401
 22.370    550.000    552.342     -2.342    551.102    552.222    551.102    551.222    551.102
 22.470    533.000    552.087    -19.087    550.802    551.965    550.802    550.923    550.802
 22.570    555.000    551.835      3.165    550.501    551.712    550.501    550.624    550.501
 22.670    544.000    551.589     -7.589    550.199    551.464    550.199    550.324    550.199
 22.770    572.000    551.348     20.652    549.897    551.222    549.897    550.024    549.897
 22.870    550.000    551.115     -1.115    549.594    550.986    549.594    549.723    549.594
 22.970    545.000    550.890     -5.890    549.290    550.760    549.290    549.421    549.290
 23.070    573.646    550.676     22.971    548.986    550.544    548.986    549.119    548.986
 23.170    610.000    550.475     59.525    548.681    550.341    548.681    548.816    548.681
 23.270    533.000    550.292    -17.292    548.376    550.156    548.376    548.512    548.376
 23.370    563.548    550.130     13.418    548.069    549.992    548.069    548.208    548.069
 23.470    575.030    549.997     25.033    547.763    549.857    547.763    547.904    547.763
 23.570    552.000    549.901      2.099    547.456    549.758    547.456    547.599    547.456
 23.670    530.000    549.855    -19.855    547.148    549.710    547.148    547.294    547.148
 23.770    546.000    549.879     -3.879    546.840    549.731    546.840    546.989    546.840
 23.870    511.979    550.001    -38.022    546.531    549.851    546.531    546.683    546.531
 23.970    487.000    550.277    -63.277    546.222    550.124    546.222    546.377    546.222
 24.070    525.787    550.838    -25.051    545.913    550.683    545.913    546.071    545.913
 24.170    588.000    552.061     35.939    545.603    551.904    545.603    545.764    545.603
 24.270    566.000    554.967     11.033    545.293    554.809    545.293    545.457    545.293
 24.370    593.000    561.627     31.373    544.983    561.471    544.983    545.151    544.983
 24.470    587.000    574.910     12.090    544.672    574.759    544.672    544.844    544.672
 24.570    562.000    596.170    -34.170    544.361    596.031    544.361    544.537    544.361
 24.670    627.842    621.204      6.639    544.050    621.078    544.050    544.229    544.050
 24.770    638.000    637.729      0.271    543.739    637.611    543.739    543.922    543.739
 24.870    604.000    633.683    -29.683    543.427    633.558    543.427    543.615    543.427
 24.970    650.741    612.335     38.407    543.115    612.190    543.115    543.308    543.115
 25.070    594.000    587.261      6.739    542.803    587.094    542.803    543.002    542.803
 25.170    511.000    568.062    -57.062    542.491    567.875    542.491    542.695    542.491
 25.270    549.000    556.703     -7.703    542.179    556.502    542.179    542.389    542.179
 25.370    535.120    551.010    -15.890    541.867    550.799    541.867    542.083    541.867
 25.470    560.000    548.284     11.716    541.555    548.065    541.555    541.777    541.555
 25.570    509.000    546.829    -37.829    541.242    546.602    541.242    541.472    541.242
 25.670    579.788    545.898     33.889    540.930    545.663    540.930    541.167    540.930
 25.770    594.000    545.245     48.755    540.618    545.001    540.618    540.863    540.618
 25.870    547.000    544.722      2.278    540.305    544.469    540.305    540.559    540.305
 25.970    571.000    544.280     26.720    539.993    544.018    539.993    540.256    539.993
 26.070    566.000    543.909     22.091    539.681    543.636    539.681    539.954    539.681
 26.170    588.887    543.601     45.286    539.369    543.317    539.369    539.653    539.369
 26.270    564.000    543.351     20.649    539.057    543.055    539.057    539.353    539.057
 26.370    504.943    543.153    -38.211    538.745    542.844    538.745    539.054    538.745
 26.470    582.000    543.010     38.990    538.433    542.687    538.433    538.757    538.433
 26.570    554.927    542.935     11.992    538.122    542.596    538.122    538.460    538.122
 26.670    577.582    542.935     34.646    537.810    542.579    537.810    538.166    537.810
 26.770    536.000    542.985     -6.985    537.499    542.611    537.499    537.874    537.499
 26.870    535.982    543.120     -7.138    537.188    542.724    537.188    537.583    537.188
 26.970    562.000    543.362     18.638    536.878    542.944    536.878    537.295    536.878
 27.070    580.000    543.742     36.258    536.567    543.298    536.567    537.010    536.567
 27.170    560.000    544.302     15.698    536.257    543.829    536.257    536.729    536.257
 27.270    537.000    545.105     -8.105    535.947    544.601    535.947    536.451    535.947
 27.370    567.000    546.253     20.747    535.638    545.712    535.638    536.177    535.638
 27.470    565.000    547.934     17.066    535.329    547.353    535.329    535.908    535.329
 27.570    525.000    550.624    -25.624    535.020    549.996    535.020    535.646    535.020
 27.670    536.000    555.935    -19.935    534.712    555.252    534.712    535.390    534.712
 27.770    543.772    568.780    -25.009    534.404    568.033    534.404    535.143    534.404
 27.870    601.000    600.454      0.546    534.097    599.626    534.097    534.906    534.097
 27.970    679.000    666.917     12.083    533.790    665.986    533.790    534.681    533.790
 28.070    772.000    773.402     -1.402    533.483    772.344    533.483    534.472    533.483
 28.170    838.277    889.982    -51.704    533.177    888.783    533.177    534.281    533.177
 28.270    912.851    947.398    -34.547    532.872    946.063    532.872    534.115    532.872
 28.370    826.000    900.000    -74.000    532.567    898.529    532.567    533.979    532.567
 28.470    779.000    797.006    -18.006    532.262    795.357    532.262    533.885    532.262
 28.570    742.900    716.348     26.552    531.958    714.445    531.958    533.849    531.958
 28.670    709.000    698.791     10.209    531.655    696.532    531.655    533.899    531.655
 28.770    715.675    740.771    -25.096    531.352    738.021    531.352    534.083    531.352
 28.870    757.000    805.006    -48.006    531.050    801.564    531.050    534.479    531.050
 28.970    877.131    835.019     42.112    530.749    830.566    530.749    535.204    530.749
 29.070    776.000    797.053    -21.053    530.448    791.103    530.448    536.410    530.448
 29.170    744.272    719.822     24.451    530.148    711.717    530.148    538.265    530.148
 29.270    650.000    647.942      2.058    529.848    636.902    529.848    540.896    529.848
 29.370    596.000    601.966     -5.966    529.549    587.229    529.549    544.288    529.549
 29.470    551.001    580.149    -29.148    529.251    561.305    529.251    548.095    529.251
 29.570    573.000    572.007      0.993    528.954    549.580    528.954    551.379    528.954
 29.670    605.543    568.277     37.266    528.657    544.218    528.657    552.714    528.657
 29.770    530.840    564.199    -33.359    528.361    541.316    528.361    551.243    528.361
 29.870    520.000    558.986    -38.986    528.066    539.435    528.066    547.615    528.066
 29.970    583.000    553.586     29.414    527.772    538.116    527.772    543.239    527.772
 30.070    587.000    548.883     38.117    527.478    537.208    527.478    539.151    527.478
 30.170    576.000    545.286     30.714    527.185    536.681    527.185    535.787    527.185
 30.270    515.237    542.974    -27.737    526.893    536.656    526.893    533.209    526.893
 30.370    585.000    542.298     42.702    526.602    537.590    526.602    531.306    526.602
 30.470    532.943    544.262    -11.320    526.312    540.653    526.312    529.914    526.312
 30.570    535.693    550.787    -15.094    526.023    547.920    526.023    528.877    526.023
 30.670    567.000    563.913      3.087    525.734    561.554    525.734    528.070    525.734
 30.770    588.009    583.333      4.676    525.447    581.333    525.447    527.409    525.447
 30.870    612.000    603.311      8.689    525.160    601.577    525.160    526.843    525.160
 30.970    649.000    612.390     36.610    524.874    610.871    524.874    526.339    524.874
 31.070    589.000    602.986    -13.986    524.589    601.651    524.589    525.879    524.589
 31.170    624.494    582.127     42.367    524.306    580.950    524.306    525.453    524.306
 31.270    566.000    561.272      4.728    524.023    560.226    524.023    525.052    524.023
 31.370    551.000    546.397      4.603    523.741    545.457    523.741    524.671    523.741
 31.470    527.000    537.925    -10.925    523.460    537.074    523.460    524.307    523.460
 31.570    517.000    533.743    -16.743    523.180    532.964    523.180    523.956    523.180
 31.670    529.000    531.723     -2.723    522.901    531.006    522.901    523.616    522.901
 31.770    574.000    530.626     43.374    522.623    529.962    522.623    523.286    522.623
 31.870    543.000    529.927     13.073    522.347    529.309    522.347    522.963    522.347
 31.970    544.000    529.440     14.560    522.071    528.863    522.071    522.647    522.071
 32.070    512.000    529.101    -17.101    521.796    528.559    521.796    522.337    521.796
 32.170    527.000    528.886     -1.886    521.523    528.374    521.523    522.033    521.523
 32.270    587.000    528.784     58.216    521.250    528.300    521.250    521.733    521.250
 32.370    555.000    528.797     26.203    520.979    528.338    520.979    521.437    520.979
 32.470    565.011    528.934     36.077    520.708    528.496    520.708    521.145    520.708
 32.570    504.912    529.211    -24.299    520.439    528.793    520.439    520.856    520.439
 32.670    534.998    529.656      5.342    520.171    529.255    520.171    520.571    520.171
 32.770    574.000    530.307     43.693    519.904    529.922    519.904    520.288    519.904
 32.870    536.000    531.224      4.776    519.639    530.854    519.639    520.008    519.639
 32.970    524.000    532.493     -8.493    519.374    532.135    519.374    519.731    519.374
 33.070    564.204    534.248     29.957    519.111    533.901    519.111    519.456    519.111
 33.170    576.000    536.736     39.264    518.849    536.400    518.849    519.183    518.849
 33.270    518.000    540.530    -22.530    518.588    540.203    518.588    518.912    518.588
 33.370    551.715    547.162      4.553    518.328    546.843    518.328    518.644    518.328
 33.470    531.265    560.543    -29.279    518.070    560.230    518.070    518.377    518.070
 33.570    570.000    588.885    -18.885    517.813    588.574    517.813    518.113    517.813
 33.670    633.000    644.763    -11.763    517.557    644.448    517.557    517.850    517.557
 33.770    688.567    739.094    -50.527    517.302    738.770    517.302    517.589    517.302
 33.870    875.000    867.574      7.426    517.048    867.238    517.048    517.330    517.048
 33.970    992.839    995.550     -2.711    516.796    995.210    516.796    517.073    516.796
 34.070   1021.058   1058.056    -36.998    516.545   1057.730    516.545    516.817    516.545
 34.170    974.000   1011.095    -37.095    516.296   1010.798    516.296    516.563    516.296
 34.270    842.000    889.130    -47.130    516.047    888.862    516.047    516.311    516.047
 34.370    708.000    757.506    -49.506    515.800    757.252    515.800    516.060    515.800
 34.470    626.884    656.263    -29.380    515.555    656.015    515.555    515.811    515.555
 34.570    595.000    593.908      1.092    515.310    593.659    515.310    515.564    515.310
 34.670    532.682    561.152    -28.470    515.067    560.903    515.067    515.318    515.067
 34.770    547.000    545.233      1.767    514.826    544.985    514.826    515.074    514.826
 34.870    565.000    537.171     27.829    514.585    536.925    514.585    514.831    514.585
 34.970    513.000    532.444    -19.444    514.346    532.199    514.346    514.590    514.346
 35.070    524.000    529.211     -5.211    514.109    528.969    514.109    514.351    514.109
 35.170    509.037    526.781    -17.744    513.873    526.540    513.873    514.113    513.873
 35.270    515.000    524.864     -9.864    513.638    524.625    513.638    513.877    513.638
 35.370    523.000    523.309     -0.309    513.404    523.071    513.404    513.642    513.404
 35.470    512.000    522.022    -10.022    513.172    521.785    513.172    513.409    513.172
 35.570    542.012    520.937     21.075    512.942    520.701    512.942    513.177    512.942
 35.670    539.000    520.008     18.992    512.713    519.773    512.713    512.947    512.713
 35.770    516.000    519.202     -3.202    512.485    518.968    512.485    512.719    512.485
 35.870    477.522    518.494    -40.972    512.259    518.261    512.259    512.492    512.259
 35.970    514.000    517.866     -3.866    512.034    517.633    512.034    512.267    512.034
 36.070    536.722    517.305     19.417    511.810    517.072    511.810    512.043    511.810
 36.170    526.000    516.800      9.200    511.588    516.567    511.588    511.820    511.588
 36.270    508.294    516.342     -8.049    511.368    516.110    511.368    511.600    511.368
 36.370    514.000    515.928     -1.928    511.149    515.696    511.149    511.381    511.149
 36.470    535.863    515.553     20.310    510.931    515.321    510.931    511.163    510.931
 36.570    497.889    515.216    -17.328    510.715    514.984    510.715    510.947    510.715
 36.670    503.000    514.919    -11.919    510.500    514.686    510.500    510.733    510.500
 36.770    490.000    514.666    -24.666    510.287    514.433    510.287    510.520    510.287
 36.870    505.000    514.479     -9.479    510.076    514.246    510.076    510.309    510.076
 36.970    526.895    514.412     12.483    509.866    514.178    509.866    510.099    509.866
 37.070    566.000    514.591     51.409    509.657    514.358    509.657    509.891    509.657
 37.170    539.000    515.260     23.740    509.450    515.026    509.450    509.685    509.450
 37.270    563.738    516.753     46.985    509.244    516.518    509.244    509.480    509.244
 37.370    520.000    519.337      0.663    509.040    519.102    509.040    509.277    509.040
 37.470    476.764    522.899    -46.135    508.838    522.664    508.838    509.075    508.838
 37.570    487.000    526.612    -39.612    508.637    526.377    508.637    508.875    508.637
 37.670    514.952    528.922    -13.970    508.437    528.687    508.437    508.676    508.437
 37.770    527.000    528.545     -1.545    508.239    528.311    508.239    508.480    508.239
 37.870    536.000    525.806     10.194    508.043    525.573    508.043    508.284    508.043
 37.970    537.369    522.116     15.253    507.848    521.883    507.848    508.091    507.848
 38.070    578.000    518.603     59.397    507.655    518.369    507.655    507.899    507.655
 38.170    514.000    515.736     -1.736    507.463    515.500    507.463    507.709    507.463
 38.270    549.000    513.623     35.377    507.273    513.383    507.273    507.520    507.273
 38.370    549.690    512.176     37.514    507.084    511.932    507.084    507.333    507.084
 38.470    518.000    511.218      6.782    506.897    510.971    506.897    507.148    506.897
 38.570    525.000    510.583     14.417    506.712    510.332    506.712    506.964    506.712
 38.670    515.000    510.141      4.859    506.528    509.888    506.528    506.782    506.528
 38.770    473.000    509.809    -36.809    506.346    509.554    506.346    506.601    506.346
 38.870    476.099    509.536    -33.437    506.165    509.279    506.165    506.423    506.165
 38.970    535.000    509.296     25.704    505.986    509.037    505.986    506.246    505.986
 39.070    492.000    509.078    -17.078    505.809    508.817    505.809    506.070    505.809
 39.170    549.000    508.876     40.124    505.633    508.612    505.633    505.897    505.633
 39.270    499.000    508.686     -9.686    505.459    508.420    505.459    505.725    505.459
 39.370    467.706    508.507    -40.800    505.286    508.239    505.286    505.554    505.286
 39.470    504.000    508.337     -4.337    505.115    508.067    505.115    505.386    505.115
 39.570    532.932    508.176     24.755    504.946    507.904    504.946    505.219    504.946
 39.670    532.871    508.024     24.847    504.778    507.749    504.778    505.053    504.778
 39.770    537.034    507.880     29.154    504.612    507.602    504.612    504.890    504.612
 39.870    488.000    507.744    -19.744    504.447    507.464    504.447    504.728    504.447
 39.970    517.000    507.616      9.384    504.284    507.333    504.284    504.568    504.284
 40.070    506.000    507.497     -1.497    504.123    507.211    504.123    504.409    504.123
 40.170    531.000    507.387     23.613    503.963    507.097    503.963    504.253    503.963
 40.270    522.571    507.286     15.285    503.805    506.993    503.805    504.098    503.805
 40.370    497.000    507.195    -10.195    503.648    506.900    503.648    503.944    503.648
 40.470    531.000    507.116     23.884    503.494    506.817    503.494    503.793    503.494
 40.570    547.964    507.049     40.915    503.340    506.747    503.340    503.643    503.340
 40.670    523.126    506.997     16.129    503.189    506.691    503.189    503.495    503.189
 40.770    533.000    506.962     26.038    503.039    506.652    503.039    503.349    503.039
 40.870    492.000    506.946    -14.946    502.891    506.633    502.891    503.204    502.891
 40.970    473.000    506.953    -33.953    502.744    506.636    502.744    503.061    502.744
 41.070    539.698    506.988     32.710    502.599    506.667    502.599    502.920    502.599
 41.170    471.951    507.057    -35.107    502.456    506.733    502.456    502.781    502.456
 41.270    475.000    507.169    -32.169    502.314    506.840    502.314    502.644    502.314
 41.370    509.000    507.335      1.665    502.174    507.002    502.174    502.508    502.174
 41.470    472.723    507.572    -34.849    502.035    507.234    502.035    502.374    502.035
 41.570    469.000    507.905    -38.905    501.899    507.563    501.899    502.242    501.899
 41.670    469.000    508.382    -39.382    501.763    508.036    501.763    502.112    501.763
 41.770    500.000    509.111     -9.111    501.630    508.760    501.630    501.983    501.630
 41.870    541.118    510.344     30.774    501.498    509.988    501.498    501.857    501.498
 41.970    543.909    512.651     31.257    501.368    512.291    501.368    501.732    501.368
 42.070    470.152    517.138    -46.986    501.239    516.774    501.239    501.609    501.239
 42.170    533.000    525.516      7.484    501.112    525.150    501.112    501.488    501.112
 42.270    534.000    539.686     -5.686    500.987    539.321    500.987    501.368    500.987
 42.370    591.137    560.552     30.585    500.863    560.191    500.863    501.251    500.863
 42.470    547.000    586.319    -39.319    500.742    585.965    500.742    501.135    500.742
 42.570    569.435    611.031    -41.596    500.621    610.683    500.621    501.022    500.621
 42.670    557.000    625.111    -68.111    500.502    624.767    500.502    500.910    500.502
 42.770    630.265    621.287      8.978    500.385    620.938    500.385    500.800    500.385
 42.870    579.000    601.770    -22.770    500.270    601.405    500.270    500.692    500.270
 42.970    586.067    575.647     10.421    500.156    575.260    500.156    500.586    500.156
 43.070    555.000    551.277      3.723    500.044    550.868    500.044    500.482    500.044
 43.170    548.000    532.878     15.122    499.934    532.450    499.934    500.380    499.934
 43.270    561.000    521.000     40.000    499.825    520.556    499.825    500.280    499.825
 43.370    534.119    514.192     19.927    499.718    513.734    499.718    500.182    499.718
 43.470    533.140    510.552     22.589    499.612    510.082    499.612    500.086    499.612
 43.570    487.000    508.600    -21.600    499.508    508.119    499.508    499.992    499.508
 43.670    519.000    507.462     11.538    499.406    506.970    499.406    499.900    499.406
 43.770    481.000    506.712    -25.712    499.305    506.209    499.305    499.810    499.305
 43.870    473.000    506.166    -33.166    499.206    505.652    499.206    499.722    499.206
 43.970    478.000    505.746    -27.746    499.109    505.219    499.109    499.637    499.109
 44.070    523.806    505.413     18.393    499.013    504.874    499.013    499.553    499.013
 44.170    530.036    505.146     24.890    498.919    504.594    498.919    499.472    498.919
 44.270    511.000    504.932      6.068    498.827    504.366    498.827    499.393    498.827
 44.370    466.000    504.760    -38.760    498.736    504.180    498.736    499.317    498.736
 44.470    511.000    504.623      6.377    498.647    504.027    498.647    499.243    498.647
 44.570    522.000    504.516     17.484    498.559    503.905    498.559    499.171    498.559
 44.670    470.000    504.435    -34.435    498.473    503.807    498.473    499.101    498.473
 44.770    525.602    504.377     21.225    498.389    503.731    498.389    499.035    498.389
 44.870    473.000    504.340    -31.340    498.306    503.675    498.306    498.971    498.306
 44.970    521.000    504.323     16.677    498.225    503.638    498.225    498.909    498.225
 45.070    490.000    504.324    -14.324    498.145    503.618    498.145    498.850    498.145
 45.170    503.000    504.343     -1.343    498.067    503.615    498.067    498.795    498.067
 45.270    465.802    504.380    -38.578    497.991    503.628    497.991    498.742    497.991
 45.370    469.047    504.434    -35.387    497.916    503.658    497.916    498.692    497.916
 45.470    500.000    504.507     -4.507    497.843    503.704    497.843    498.646    497.843
 45.570    529.766    504.599     25.167    497.771    503.768    497.771    498.603    497.771
 45.670    537.000    504.711     32.289    497.702    503.849    497.702    498.563    497.702
 45.770    499.000    504.845     -5.845    497.633    503.950    497.633    498.528    497.633
 45.870    474.497    505.002    -30.506    497.566    504.072    497.566    498.496    497.566
 45.970    547.633    505.185     42.448    497.501    504.217    497.501    498.469    497.501
 46.070    491.000    505.397    -14.397    497.438    504.388    497.438    498.446    497.438
 46.170    559.000    505.641     53.359    497.376    504.588    497.376    498.428    497.376
 46.270    480.527    505.922    -25.396    497.315    504.822    497.315    498.415    497.315
 46.370    519.000    506.247     12.753    497.256    505.095    497.256    498.408    497.256
 46.470    485.000    506.624    -21.624    497.199    505.414    497.199    498.407    497.199
 46.570    510.000    507.063      2.937    497.143    505.791    497.143    498.413    497.143
 46.670    545.000    507.580     37.420    497.089    506.241    497.089    498.427    497.089
 46.770    500.000    508.206     -8.206    497.036    506.792    497.036    498.448    497.036
 46.870    491.000    509.000    -18.000    496.985    507.504    496.985    498.479    496.985
 46.970    481.000    510.093    -29.093    496.936    508.506    496.936    498.521    496.936
 47.070    498.175    511.764    -13.589    496.887    510.074    496.887    498.574    496.887
 47.170    525.000    514.531     10.469    496.841    512.727    496.841    498.640    496.841
 47.270    584.000    519.211     64.789    496.796    517.277    496.796    498.721    496.796
 47.370    524.000    526.802     -2.802    496.753    524.720    496.753    498.820    496.753
 47.470    523.000    538.064    -15.064    496.711    535.812    496.711    498.940    496.711
 47.570    537.000    552.840    -15.840    496.670    550.394    496.670    499.083    496.670
 47.670    626.000    569.345     56.655    496.631    566.677    496.631    499.255    496.631
 47.770    584.278    583.763      0.514    496.594    580.843    496.594    499.460    496.594
 47.870    553.967    591.052    -37.085    496.558    587.847    496.558    499.707    496.558
 47.970    609.140    588.243     20.897    496.524    584.710    496.524    500.004    496.524
 48.070    608.770    577.360     31.410    496.491    573.443    496.491    500.366    496.491
 48.170    548.324    563.328    -15.004    496.460    558.943    496.460    500.813    496.460
 48.270    544.000    550.438     -6.438    496.430    545.468    496.430    501.378    496.430
 48.370    499.095    541.055    -41.960    496.401    535.327    496.401    502.116    496.401
 48.470    563.000    535.821     27.179    496.374    529.072    496.374    503.114    496.374
 48.570    489.953    534.340    -44.387    496.349    526.171    496.349    504.512    496.349
 48.670    491.205    535.917    -44.711    496.325    525.720    496.325    506.517    496.325
 48.770    501.000    540.046    -39.046    496.302    526.937    496.302    509.408    496.302
 48.870    535.000    546.629    -11.629    496.281    529.384    496.281    513.523    496.281
 48.970    580.525    555.870     24.655    496.262    532.928    496.262    519.199    496.262
 49.070    527.219    568.221    -41.003    496.244    537.779    496.244    526.681    496.244
 49.170    633.573    584.436     49.138    496.227    544.684    496.227    535.972    496.227
 49.270    572.000    606.050    -34.050    496.212    555.612    496.212    546.640    496.212
 49.370    617.000    636.679    -19.679    496.198    575.310    496.198    557.551    496.198
 49.470    641.091    684.408    -43.317    496.185    613.891    496.185    566.677    496.185
 49.570    810.000    764.867     45.133    496.174    689.524    496.174    571.471    496.174
 49.670    978.000    902.413     75.587    496.164    828.250    496.164    570.250    496.164
 49.770   1145.094   1123.897     21.198    496.156   1056.443    496.156    563.493    496.156
 49.870   1417.000   1441.224    -24.224    496.149   1383.807    496.149    553.413    496.149
 49.970   1880.902   1828.333     52.570    496.144   1781.880    496.144    542.431    496.144
 50.070   2238.738   2206.562     32.176    496.140   2170.354    496.140    532.218    496.140
 50.170   2436.318   2456.041    -19.723    496.137   2428.533    496.137    523.605    496.137
 50.270   2552.936   2472.361     80.575    496.136   2451.739    496.136    516.835    496.136
 50.370   2221.397   2245.207    -23.810    496.136   2229.714    496.136    511.793    496.136
 50.470   1831.000   1868.803    -37.803    496.137   1856.949    496.137    508.186    496.137
 50.570   1403.000   1467.641    -64.641    496.140   1458.290    496.140    505.668    496.140
 50.670   1162.756   1130.957     31.799    496.144   1123.317    496.144    503.922    496.144
 50.770    956.965    895.016     61.950    496.149    888.568    496.149    502.695    496.149
 50.870    786.417    753.739     32.678    496.156    748.155    496.156    501.808    496.156
 50.970    708.000    679.753     28.247    496.164    674.823    496.164    501.144    496.164
 51.070    638.328    643.055     -4.728    496.174    638.641    496.174    500.629    496.174
 51.170    641.540    621.547     19.993    496.184    617.549    496.184    500.218    496.184
 51.270    618.000    603.889     14.111    496.196    600.232    496.196    499.884    496.196
 51.370    575.000    587.012    -12.012    496.210    583.637    496.210    499.609    496.210
 51.470    579.000    571.574      7.426    496.224    568.436    496.224    499.381    496.224
 51.570    560.000    558.787      1.213    496.240    555.848    496.240    499.191    496.240
 51.670    577.026    549.242     27.784    496.257    546.474    496.257    499.033    496.257
 51.770    555.000    542.802     12.198    496.276    540.181    496.276    498.903    496.276
 51.870    573.000    538.884     34.116    496.296    536.390    496.296    498.795    496.296
 51.970    525.000    536.809    -11.809    496.317    534.422    496.317    498.707    496.317
 52.070    547.025    536.039     10.986    496.339    533.745    496.339    498.636    496.339
 52.170    493.000    536.281    -43.281    496.362    534.066    496.362    498.580    496.362
 52.270    581.249    537.490     43.759    496.387    535.342    496.387    498.537    496.387
 52.370    578.000    539.914     38.086    496.413    537.823    496.413    498.506    496.413
 52.470    497.933    544.253    -46.321    496.440    542.209    496.440    498.485    496.440
 52.570    543.000    552.018     -9.018    496.468    550.012    496.468    498.475    496.468
 52.670    535.000    566.032    -31.032    496.498    564.057    496.498    498.473    496.498
 52.770    597.388    590.868      6.519    496.528    588.916    496.528    498.479    496.528
 52.870    691.000    632.688     58.312    496.560    630.752    496.560    498.493    496.560
 52.970    704.000    697.852      6.148    496.593    695.926    496.593    498.514    496.593
 53.070    793.000    789.995      3.005    496.628    788.075    496.628    498.542    496.628
 53.170    887.051    906.092    -19.041    496.663    904.174    496.663    498.576    496.663
 53.270   1055.634   1032.788     22.846    496.700   1030.871    496.700    498.616    496.700
 53.370   1084.293   1144.766    -60.473    496.737   1142.848    496.737    498.663    496.737
 53.470   1171.000   1209.297    -38.297    496.776   1207.377    496.776    498.715    496.776
 53.570   1178.230   1202.511    -24.281    496.816   1200.586    496.816    498.773    496.816
 53.670   1124.624   1127.406     -2.782    496.857   1125.465    496.857    498.836    496.857
 53.770   1042.000   1011.086     30.914    496.900   1009.118    496.900    498.906    496.900
 53.870    844.000    885.537    -41.537    496.943    883.532    496.943    498.981    496.943
 53.970    810.506    773.877     36.629    496.987    771.828    496.987    499.062    496.987
 54.070    720.824    687.349     33.475    497.033    685.251    497.033    499.149    497.033
 54.170    583.000    627.464    -44.464    497.080    625.313    497.080    499.242    497.080
 54.270    611.498    589.827     21.671    497.127    587.620    497.127    499.342    497.127
 54.370    607.000    567.969     39.031    497.176    565.702    497.176    499.448    497.176
 54.470    558.000    555.976      2.024    497.226    553.645    497.226    499.561    497.226
 54.570    572.000    549.614     22.386    497.277    547.212    497.277    499.681    497.277
 54.670    557.000    546.330     10.670    497.328    543.852    497.328    499.808    497.328
 54.770    555.000    544.782     10.218    497.381    542.221    497.381    499.944    497.381
 54.870    585.000    544.335     40.665    497.435    541.683    497.435    500.089    497.435
 54.970    588.379    544.716     43.663    497.490    541.965    497.490    500.242    497.490
 55.070    507.899    545.825    -37.927    497.546    542.967    497.546    500.406    497.546
 55.170    584.000    547.649     36.351    497.603    544.672    497.603    500.580    497.603
 55.270    541.649    550.229     -8.579    497.661    547.124    497.661    500.766    497.661
 55.370    571.658    553.664     17.993    497.720    550.420    497.720    500.965    497.720
 55.470    567.000    558.137      8.863    497.780    554.739    497.780    501.178    497.780
 55.570    573.000    563.995      9.005    497.841    560.431    497.841    501.406    497.841
 55.670    594.000    571.960     22.040    497.902    568.212    497.902    501.651    497.902
 55.770    582.102    583.567     -1.465    497.965    579.616    497.965    501.915    497.965
 55.870    583.317    602.006    -18.688    498.029    597.832    498.029    502.200    498.029
 55.970    649.269    633.400     15.868    498.093    628.980    498.093    502.508    498.093
 56.070    711.000    688.230     22.770    498.159    683.533    498.159    502.843    498.159
 56.170    745.000    781.936    -36.936    498.225    776.931    498.225    503.208    498.225
 56.270    886.000    933.144    -47.144    498.293    927.794    498.293    503.606    498.293
 56.370   1092.000   1158.038    -66.038    498.361   1152.305    498.361    504.044    498.361
 56.470   1410.456   1461.004    -50.548    498.430   1454.848    498.430    504.526    498.430
 56.570   1767.959   1824.079    -56.121    498.500   1817.465    498.500    505.059    498.500
 56.670   2122.000   2199.240    -77.240    498.570   2192.130    498.570    505.652    498.570
 56.770   2521.401   2508.395     13.006    498.642   2500.751    498.642    506.314    498.642
 56.870   2730.248   2662.054     68.194    498.715   2653.818    498.715    507.059    498.715
 56.970   2550.663   2606.417    -55.754    498.788   2597.497    498.788    507.900    498.788
 57.070   2361.000   2363.462     -2.462    498.862   2353.710    498.862    508.860    498.862
 57.170   2155.000   2012.429    142.571    498.937   2001.656    498.937    509.964    498.937
 57.270   1624.000   1639.940    -15.940    499.013   1627.930    499.013    511.250    499.013
 57.370   1260.000   1308.819    -48.819    499.089   1295.314    499.089    512.777    499.089
 57.470   1051.000   1050.774      0.226    499.166   1035.438    499.166    514.634    499.166
 57.570    843.000    871.112    -28.112    499.245    853.477    499.245    516.966    499.245
 57.670    808.492    758.575     49.917    499.323    737.952    499.323    519.999    499.323
 57.770    676.000    695.856    -19.856    499.403    671.209    499.403    524.079    499.403
 57.870    668.860    667.322      1.538    499.483    637.109    499.483    529.710    499.483
 57.970    655.829    662.704     -6.875    499.564    624.704    499.564    537.566    499.564
 58.070    705.619    677.483     28.136    499.646    628.643    499.646    548.478    499.646
 58.170    694.000    711.412    -17.412    499.729    647.774    499.729    563.349    499.729
 58.270    767.896    766.285      1.611    499.812    683.071    499.812    582.998    499.812
 58.370    858.391    843.604     14.787    499.896    735.533    499.896    607.928    499.896
 58.470    915.170    942.437    -27.266    499.980    804.332    499.980    638.038    499.980
 58.570   1073.924   1057.686     16.238    500.066    885.437    500.066    672.264    500.066
 58.670   1215.000   1179.286     35.714    500.151    971.255    500.151    708.136    500.151
 58.770   1247.000   1293.495    -46.495    500.238   1052.388    500.238    741.310    500.238
 58.870   1441.000   1386.062     54.938    500.325   1120.704    500.325    765.664    500.325
 58.970   1469.199   1444.570     24.629    500.413   1169.933    500.413    775.051    500.413
 59.070   1539.779   1459.868     79.911    500.502   1193.703    500.502    766.686    500.502
 59.170   1482.000   1430.172     51.828    500.591   1187.667    500.591    743.130    500.591
 59.270   1416.965   1365.024     51.941    500.680   1155.300    500.680    710.440    500.680
 59.370   1368.000   1282.679     85.321    500.771   1108.687    500.771    674.786    500.771
 59.470   1233.000   1202.637     30.363    500.862   1062.894    500.862    640.602    500.862
 59.570   1199.000   1141.474     57.526    500.953   1031.945    500.953    610.444    500.953
 59.670   1140.000   1113.215     26.785    501.045   1028.743    501.045    585.435    501.045
 59.770   1209.000   1128.509     80.491    501.138   1063.794    501.138    565.719    501.138
 59.870   1254.000   1190.201     63.799    501.231   1140.428    501.231    550.815    501.231
 59.970   1251.000   1288.954    -37.954    501.324   1250.123    501.324    539.915    501.324
 60.070   1436.328   1401.871     34.457    501.419   1370.895    501.419    532.117    501.419
 60.170   1475.524   1494.885    -19.361    501.513   1469.523    501.513    526.586    501.513
 60.270   1608.000   1531.675     76.325    501.608   1510.377    501.608    522.639    501.608
 60.370   1516.000   1491.034     24.966    501.704   1472.756    501.704    519.766    501.704
 60.470   1502.000   1379.991    122.009    501.800   1364.022    501.800    517.617    501.800
 60.570   1263.568   1226.917     36.651    501.897   1212.756    501.897    515.963    501.897
 60.670   1095.000   1064.273     30.727    501.994   1051.554    501.994    514.661    501.994
 60.770    931.000    917.182     13.818    502.092    905.622    502.092    513.628    502.092
 60.870    739.662    799.830    -60.168    502.190    789.198    502.190    512.812    502.190
 60.970    714.558    716.379     -1.821    502.288    706.478    502.288    512.183    502.288
 61.070    715.000    664.300     50.700    502.387    654.953    502.387    511.725    502.387
 61.170    670.000    638.533     31.467    502.486    629.581    502.486    511.425    502.486
 61.270    623.000    635.018    -12.018    502.586    626.312    502.586    511.271    502.586
 61.370    607.000    652.666    -45.666    502.686    644.073    502.686    511.245    502.686
 61.470    739.738    693.531     46.207    502.786    684.942    502.786    511.324    502.786
 61.570    771.000    761.321      9.679    502.887    752.666    502.887    511.468    502.887
 61.670    875.000    858.595     16.405    502.988    849.861    502.988    511.619    502.988
 61.770    967.000    983.352    -16.352    503.090    974.605    503.090    511.702    503.090
 61.870   1161.203   1126.016     35.186    503.191   1117.402    503.191    511.643    503.191
 61.970   1243.234   1267.852    -24.618    503.293   1259.563    503.293    511.403    503.293
 62.070   1347.000   1382.005    -35.005    503.396   1374.227    503.396    510.996    503.396
 62.170   1357.000   1439.783    -82.783    503.499   1432.646    503.499    510.481    503.499
 62.270   1482.658   1423.704     58.954    503.602   1417.265    503.602    509.927    503.602
 62.370   1376.390   1338.533     37.857    503.705   1332.781    503.705    509.389    503.705
 62.470   1155.000   1207.820    -52.820    503.809   1202.694    503.809    508.904    503.809
 62.570   1084.398   1060.523     23.876    503.913   1055.941    503.913    508.489    503.913
 62.670    945.000    920.561     24.439    504.017    916.437    504.017    508.150    504.017
 62.770    861.619    802.851     58.769    504.121    799.101    504.121    507.884    504.121
 62.870    701.000    713.326    -12.326    504.226    709.879    504.226    507.684    504.226
 62.970    674.000    651.003     22.997    504.331    647.802    504.331    507.539    504.331
 63.070    606.000    610.931     -4.931    504.436    607.931    504.436    507.439    504.436
 63.170    601.000    586.976     14.024    504.541    584.142    504.541    507.374    504.541
 63.270    550.429    573.720    -23.290    504.646    571.027    504.646    507.335    504.646
 63.370    613.403    567.343     46.061    504.752    564.772    504.752    507.317    504.752
 63.470    576.200    565.764     10.436    504.858    563.301    504.858    507.313    504.858
 63.570    564.000    568.444     -4.444    504.964    566.075    504.964    507.322    504.964
 63.670    578.000    576.112      1.888    505.070    573.827    505.070    507.340    505.070
 63.770    607.000    590.486     16.514    505.176    588.274    505.176    507.367    505.176
 63.870    562.000    613.890    -51.890    505.282    611.741    505.282    507.401    505.282
 63.970    679.061    648.648     30.412    505.389    646.552    505.389    507.440    505.389
 64.070    697.446    696.203      1.243    505.495    694.151    505.495    507.485    505.495
 64.170    798.000    756.066     41.934    505.602    754.050    505.602    507.535    505.602
 64.270    827.000    824.833      2.167    505.709    822.849    505.709    507.590    505.709
 64.370    903.000    895.549      7.451    505.815    893.596    505.815    507.648    505.815
 64.470   1001.000    957.914     43.086    505.922    955.996    505.922    507.711    505.922
 64.570    981.000   1000.436    -19.436    506.029    998.561    506.029    507.776    506.029
 64.670   1026.000   1014.893     11.107    506.136   1013.071    506.136    507.845    506.136
 64.770   1032.000    999.987     32.013    506.243    998.223    506.243    507.917    506.243
 64.870    964.000    960.917      3.083    506.350    959.213    506.350    507.992    506.350
 64.970    915.000    906.562      8.438    506.457    904.915    506.457    508.069    506.457
 65.070    809.000    846.569    -37.569    506.564    844.973    506.564    508.149    506.564
 65.170    793.136    788.759      4.377    506.671    787.206    506.671    508.231    506.671
 65.270    716.000    737.671    -21.671    506.778    736.153    506.778    508.315    506.778
 65.370    692.555    694.785     -2.229    506.885    693.293    506.885    508.401    506.885
 65.470    710.000    659.813     50.187    506.992    658.341    506.992    508.489    506.992
 65.570    610.239    631.910    -21.670    507.099    630.452    507.099    508.579    507.099
 65.670    648.000    610.153     37.847    507.206    608.706    507.206    508.671    507.206
 65.770    567.000    593.621    -26.621    507.312    592.182    507.312    508.764    507.312
 65.870    548.900    581.447    -32.547    507.419    580.014    507.419    508.859    507.419
 65.970    560.321    572.872    -12.551    507.526    571.446    507.526    508.956    507.526
 66.070    604.441    567.256     37.185    507.632    565.835    507.632    509.054    507.632
 66.170    568.177    564.057      4.119    507.738    562.642    507.738    509.154    507.738
 66.270    634.000    562.832     71.168    507.845    561.421    507.845    509.256    507.845
 66.370    523.310    563.250    -39.941    507.951    561.842    507.951    509.358    507.951
 66.470    595.000    565.137     29.863    508.056    563.732    508.056    509.463    508.056
 66.570    601.933    568.543     33.390    508.162    567.138    508.162    509.568    508.162
 66.670    578.000    573.860      4.140    508.268    572.453    508.268    509.675    508.268
 66.770    571.000    582.034    -11.034    508.373    580.624    508.373    509.784    508.373
 66.870    616.628    594.898     21.730    508.478    593.482    508.478    509.894    508.478
 66.970    628.840    615.632     13.209    508.583    614.208    508.583    510.006    508.583
 67.070    686.507    649.234     37.274    508.688    647.799    508.688    510.119    508.688
 67.170    666.000    702.781    -36.781    508.793    701.333    508.793    510.233    508.793
 67.270    828.153    785.105     43.048    508.897    783.640    508.897    510.350    508.897
 67.370    889.396    905.490    -16.094    509.001    904.007    509.001    510.467    509.001
 67.470   1089.399   1071.210     18.189    509.105   1069.710    509.105    510.587    509.105
 67.570   1288.000   1284.134      3.866    509.208   1282.623    509.208    510.709    509.208
 67.670   1566.000   1537.173     28.827    509.312   1535.658    509.312    510.832    509.312
 67.770   1760.000   1811.558    -51.558    509.415   1810.053    509.415    510.957    509.415
 67.870   2024.000   2075.929    -51.929    509.517   2074.447    509.517    511.085    509.517
 67.970   2195.120   2288.670    -93.550    509.620   2287.223    509.620    511.214    509.620
 68.070   2426.000   2406.587     19.413    509.722   2405.181    509.722    511.346    509.722
 68.170   2384.000   2401.323    -17.323    509.824   2399.946    509.824    511.481    509.824
 68.270   2298.000   2274.325     23.675    509.925   2272.951    509.925    511.618    509.925
 68.370   2106.222   2055.938     50.284    510.026   2054.531    510.026    511.759    510.026
 68.470   1865.000   1789.700     75.300    510.127   1788.227    510.127    511.902    510.127
 68.570   1528.000   1516.536     11.464    510.227   1514.975    510.227    512.049    510.227
 68.670   1332.823   1266.763     66.060    510.327   1265.102    510.327    512.200    510.327
 68.770   1052.000   1058.100     -6.100    510.427   1056.333    510.427    512.355    510.427
 68.870    889.000    896.761     -7.761    510.526    894.889    510.526    512.515    510.526
 68.970    804.000    780.285     23.715    510.625    778.311    510.625    512.679    510.625
 69.070    702.000    701.113      0.887    510.723    699.042    510.723    512.848    510.723
 69.170    666.000    649.928     16.072    510.821    647.760    510.821    513.024    510.821
 69.270    658.846    618.011     40.835    510.919    615.746    510.919    513.206    510.919
 69.370    559.000    598.450    -39.450    511.016    596.085    511.016    513.397    511.016
 69.470    605.278    586.394     18.884    511.113    583.922    511.113    513.595    511.113
 69.570    596.000    578.759     17.241    511.209    576.173    511.209    513.803    511.209
 69.670    598.000    573.741     24.259    511.304    571.030    511.304    514.021    511.304
 69.770    528.000    570.349    -42.349    511.400    567.502    511.400    514.251    511.400
 69.870    595.000    568.068     26.932    511.494    565.072    511.494    514.494    511.494
 69.970    601.000    566.640     34.360    511.589    563.479    511.589    514.751    511.589
 70.070    597.000    565.945     31.055    511.682    562.602    511.682    515.026    511.682
 70.170    594.000    565.946     28.054    511.775    562.401    511.775    515.321    511.775
 70.270    580.000    566.674     13.326    511.868    562.904    511.868    515.637    511.868
 70.370    520.514    568.250    -47.736    511.960    564.229    511.960    515.979    511.960
 70.470    581.000    570.941     10.059    512.052    566.638    512.052    516.351    512.052
 70.570    574.000    575.262     -1.262    512.143    570.642    512.143    516.758    512.143
 70.670    602.000    582.144     19.856    512.233    577.163    512.233    517.206    512.233
 70.770    622.625    593.152     29.474    512.323    587.758    512.323    517.704    512.323
 70.870    585.773    610.740    -24.966    512.412    604.869    512.412    518.264    512.412
 70.970    624.068    638.446    -14.378    512.501    632.015    512.501    518.904    512.501
 71.070    627.000    680.897    -53.897    512.589    673.793    512.589    519.650    512.589
 71.170    760.000    743.436     16.564    512.676    735.504    512.676    520.546    512.676
 71.270    855.000    831.240     23.760    512.763    822.258    512.763    521.659    512.763
 71.370    955.000    947.915      7.085    512.849    937.558    512.849    523.090    512.849
 71.470   1131.580   1093.720     37.860    512.934   1081.515    512.934    524.994    512.934
 71.570   1297.005   1263.864     33.142    513.019   1249.120    513.019    527.588    513.019
 71.670   1487.710   1447.276     40.434    513.103   1429.015    513.103    531.166    513.103
 71.770   1657.000   1626.275     30.725    513.187   1603.155    513.187    536.096    513.187
 71.870   1788.000   1777.703     10.297    513.269   1747.963    513.269    542.802    513.269
 71.970   1939.000   1876.854     62.146    513.352   1838.298    513.352    551.722    513.352
 72.070   1972.780   1905.222     67.558    513.433   1855.275    513.433    563.229    513.433
 72.170   1899.000   1859.050     39.950    513.514   1794.913    513.514    577.540    513.514
 72.270   1784.194   1751.454     32.740    513.593   1670.374    513.593    594.601    513.593
 72.370   1685.000   1605.687     79.313    513.673   1505.341    513.673    613.976    513.673
 72.470   1465.000   1445.899     19.101    513.751   1324.892    513.751    634.736    513.751
 72.570   1307.000   1291.297     15.703    513.829   1149.748    513.829    655.369    513.829
 72.670   1172.918   1153.993     18.924    513.906    994.155    513.906    673.742    513.906
 72.770   1025.000   1039.031    -14.031    513.982    865.721    513.982    687.291    513.982
 72.870    837.000    945.904   -108.904    514.057    766.332    514.057    693.630    514.057
 72.970    877.798    871.072      6.726    514.132    693.718    514.132    691.485    514.132
 73.070    729.000    810.399    -81.399    514.206    643.268    514.206    681.335    514.206
 73.170    728.000    760.506    -32.506    514.279    609.638    514.279    665.144    514.279
 73.270    686.000    719.014    -33.014    514.351    587.882    514.351    645.481    514.351
 73.370    738.136    684.337     53.799    514.422    574.037    514.422    624.721    514.422
 73.470    633.636    655.455    -21.818    514.493    565.268    514.493    604.680    514.493
 73.570    616.878    631.729    -14.851    514.563    559.733    514.563    586.560    514.563
 73.670    572.000    612.730    -40.730    514.631    556.337    514.631    571.029    514.631
 73.770    566.000    598.085    -32.085    514.700    554.480    514.700    558.311    514.700
 73.870    586.044    587.379     -1.335    514.767    553.845    514.767    548.310    514.767
 73.970    552.000    580.110    -28.110    514.833    554.241    514.833    540.716    514.833
 74.070    555.022    575.690    -20.668    514.898    555.495    514.898    535.112    514.898
 74.170    605.000    573.460     31.540    514.963    557.384    514.963    531.063    514.963
 74.270    591.000    572.714     18.286    515.026    559.602    515.026    528.169    515.026
 74.370    595.000    572.721     22.279    515.089    561.747    515.089    526.099    515.089
 74.470    640.000    572.761     67.239    515.151    563.353    515.151    524.600    515.151
 74.570    618.000    572.207     45.793    515.212    563.974    515.212    523.488    515.212
 74.670    632.000    570.656     61.344    515.272    563.334    515.272    522.637    515.272
 74.770    645.000    568.035     76.965    515.331    561.442    515.331    521.965    515.331
 74.870    592.000    564.596     27.404    515.389    558.604    515.389    521.419    515.389
 74.970    625.000    560.784     64.216    515.446    555.298    515.446    520.963    515.446
 75.070    520.659    557.102    -36.443    515.502    552.052    515.502    520.577    515.502
 75.170    562.684    554.044      8.640    515.557    549.374    515.557    520.247    515.557
 75.270    540.000    552.083    -12.083    515.611    547.747    515.611    519.960    515.611
 75.370    503.684    551.687    -48.003    515.664    547.647    515.664    519.712    515.664
 75.470    560.000    553.340      6.660    515.717    549.564    515.717    519.494    515.717
 75.570    593.000    557.549     35.451    515.768    554.009    515.768    519.304    515.768
 75.670    588.000    564.811     23.189    515.818    561.481    515.818    519.137    515.818
 75.770    595.700    575.534     20.166    515.867    572.394    515.867    518.990    515.867
 75.870    572.000    589.911    -17.911    515.915    586.940    515.915    518.861    515.915
 75.970    613.000    607.759      5.241    515.962    604.941    515.962    518.747    515.962
 76.070    588.134    628.377    -40.244    516.009    625.698    516.009    518.646    516.009
 76.170    655.799    650.443      5.356    516.054    647.889    516.054    518.557    516.054
 76.270    654.825    671.989    -17.163    516.098    669.550    516.098    518.478    516.098
 76.370    669.000    690.490    -21.490    516.140    688.159    516.140    518.409    516.140
 76.470    663.000    703.185    -40.185    516.182    700.956    516.182    518.347    516.182
 76.570    698.000    707.756     -9.756    516.223    705.624    516.223    518.293    516.223
 76.670    675.473    703.235    -27.763    516.263    701.197    516.263    518.244    516.263
 76.770    702.000    690.475     11.525    516.301    688.527    516.301    518.202    516.301
 76.870    627.000    671.720    -44.720    516.339    669.856    516.339    518.164    516.339
 76.970    646.000    649.711     -3.711    516.375    647.926    516.375    518.130    516.375
 77.070    618.000    626.978     -8.978    516.411    625.265    516.411    518.101    516.411
 77.170    599.977    605.498     -5.521    516.445    603.852    516.445    518.074    516.445
 77.270    616.088    586.592     29.496    516.478    585.008    516.478    518.051    516.478
 77.370    565.067    570.939     -5.871    516.510    569.411    516.510    518.030    516.510
 77.470    565.000    558.667      6.333    516.540    557.190    516.540    518.012    516.540
 77.570    543.000    549.509     -6.509    516.570    548.080    516.570    517.996    516.570
 77.670    588.228    542.966     45.262    516.599    541.581    516.599    517.982    516.599
 77.770    494.000    538.459    -44.459    516.626    537.114    516.626    517.969    516.626
 77.870    503.000    535.438    -32.438    516.652    534.131    516.652    517.957    516.652
 77.970    549.726    533.445     16.281    516.677    532.173    516.677    517.947    516.677
 78.070    531.680    532.131     -0.451    516.701    530.893    516.701    517.938    516.701
 78.170    513.000    531.256    -18.256    516.723    530.049    516.723    517.930    516.723
 78.270    551.000    530.663     20.337    516.745    529.485    516.745    517.923    516.745
 78.370    494.000    530.258    -36.258    516.765    529.107    516.765    517.916    516.765
 78.470    536.000    529.990      6.010    516.784    528.864    516.784    517.910    516.784
 78.570    508.000    529.834    -21.834    516.802    528.731    516.802    517.904    516.802
 78.670    534.633    529.787      4.846    516.819    528.706    516.819    517.899    516.819
 78.770    485.514    529.856    -44.342    516.834    528.794    516.834    517.895    516.834
 78.870    492.000    530.059    -38.059    516.848    529.015    516.848    517.892    516.848
 78.970    543.960    530.419     13.541    516.861    529.390    516.861    517.889    516.861
 79.070    535.000    530.962      4.038    516.873    529.946    516.873    517.888    516.873
 79.170    528.000    531.702     -3.702    516.883    530.695    516.883    517.888    516.883
 79.270    494.000    532.680    -38.680    516.893    531.679    516.893    517.891    516.893
 79.370    513.000    533.955    -20.955    516.901    532.957    516.901    517.896    516.901
 79.470    488.000    535.531    -47.531    516.907    534.530    516.907    517.905    516.907
 79.570    485.000    537.436    -52.436    516.913    536.427    516.913    517.918    516.913
 79.670    526.000    539.724    -13.724    516.917    538.701    516.917    517.936    516.917
 79.770    546.000    542.478      3.522    516.920    541.435    516.920    517.959    516.920
 79.870    518.526    545.838    -27.312    516.922    544.768    516.922    517.987    516.922
 79.970    569.000    550.020     18.980    516.922    548.917    516.922    518.020    516.922
 80.070    548.000    555.338     -7.338    516.921    554.197    516.921    518.058    516.921
 80.170    567.000    562.206      4.794    516.919    561.024    516.919    518.098    516.919
 80.270    597.000    571.086     25.914    516.915    569.863    516.915    518.139    516.915
 80.370    559.000    582.402    -23.402    516.911    581.138    516.911    518.176    516.911
 80.470    569.000    596.420    -27.420    516.904    595.124    516.904    518.206    516.904
 80.570    606.000    613.156     -7.156    516.897    611.838    516.897    518.224    516.897
 80.670    643.925    632.283     11.642    516.888    630.959    516.888    518.226    516.888
 80.770    635.000    653.092    -18.092    516.878    651.783    516.878    518.208    516.878
 80.870    662.000    674.516    -12.516    516.867    673.238    516.867    518.170    516.867
 80.970    686.046    695.236     -9.190    516.854    694.006    516.854    518.116    516.854
 81.070    672.046    713.880    -41.835    516.840    712.710    516.840    518.050    516.840
 81.170    707.636    729.209    -21.573    516.825    728.104    516.825    517.976    516.825
 81.270    736.000    740.221     -4.221    516.808    739.183    516.808    517.898    516.808
 81.370    774.000    746.229     27.771    516.790    745.255    516.790    517.821    516.790
 81.470    776.000    746.934     29.066    516.770    746.021    516.770    517.745    516.770
 81.570    740.570    742.447     -1.877    516.749    741.588    516.749    517.674    516.749
 81.670    739.000    733.237      5.763    516.727    732.424    516.727    517.607    516.727
 81.770    684.883    720.110    -35.227    516.704    719.336    516.704    517.546    516.704
 81.870    745.000    704.180     40.820    516.679    703.436    516.679    517.489    516.679
 81.970    686.517    686.714     -0.196    516.653    685.995    516.653    517.436    516.653
 82.070    684.168    668.873     15.295    516.625    668.173    516.625    517.386    516.625
 82.170    657.000    651.498      5.502    516.596    650.812    516.596    517.340    516.596
 82.270    646.000    635.061     10.939    516.566    634.386    516.566    517.295    516.566
 82.370    631.951    619.768     12.183    516.534    619.099    516.534    517.252    516.534
 82.470    602.000    605.722     -3.722    516.501    605.057    516.501    517.210    516.501
 82.570    639.000    593.051     45.949    516.466    592.387    516.466    517.168    516.466
 82.670    547.000    581.920    -34.920    516.430    581.257    516.430    517.126    516.430
 82.770    589.000    572.504     16.496    516.393    571.839    516.393    517.083    516.393
 82.870    575.000    564.944     10.056    516.354    564.277    516.354    517.040    516.354
 82.970    526.780    559.340    -32.560    516.314    558.670    516.314    516.996    516.314
 83.070    593.000    555.738     37.262    516.273    555.063    516.273    516.951    516.273
 83.170    539.000    554.117    -15.117    516.230    553.438    516.230    516.906    516.230
 83.270    548.000    554.373     -6.373    516.186    553.689    516.186    516.859    516.186
 83.370    553.000    556.300     -3.300    516.140    555.611    516.140    516.811    516.140
 83.470    549.000    559.582    -10.582    516.093    558.888    516.093    516.762    516.093
 83.570    521.000    563.789    -42.789    516.044    563.090    516.044    516.713    516.044
 83.670    581.000    568.391     12.609    515.994    567.687    515.994    516.662    515.994
 83.770    553.494    572.782    -19.288    515.943    572.074    515.943    516.609    515.943
 83.870    597.550    576.320     21.230    515.890    575.610    515.890    516.556    515.890
 83.970    598.793    578.417     20.376    515.836    577.706    515.836    516.502    515.836
 84.070    576.908    578.658     -1.750    515.780    577.947    515.780    516.446    515.780
 84.170    541.356    576.917    -35.560    515.723    576.208    515.723    516.390    515.723
 84.270    619.013    573.387     45.626    515.664    572.682    515.664    516.332    515.664
 84.370    531.000    568.502    -37.502    515.605    567.801    515.605    516.273    515.605
 84.470    581.000    562.796     18.204    515.543    562.098    515.543    516.212    515.543
 84.570    542.986    556.792    -13.805    515.480    556.098    515.480    516.151    515.480
 84.670    566.000    550.936     15.064    515.416    550.245    515.416    516.088    515.416
 84.770    555.000    545.565      9.435    515.350    544.876    515.350    516.025    515.350
 84.870    556.242    540.894     15.349    515.283    540.206    515.283    515.960    515.283
 84.970    529.000    537.028     -8.028    515.215    536.341    515.215    515.893    515.215
 85.070    549.000    533.979     15.021    515.145    533.291    515.145    515.826    515.145
 85.170    567.197    531.689     35.508    515.073    531.000    515.073    515.757    515.073
 85.270    516.000    530.063    -14.063    515.001    529.371    515.001    515.688    515.001
 85.370    509.000    528.993    -19.993    514.926    528.298    514.926    515.617    514.926
 85.470    529.780    528.381      1.399    514.851    527.683    514.851    515.545    514.851
 85.570    515.003    528.155    -13.152    514.773    527.452    514.773    515.471    514.773
 85.670    560.000    528.274     31.726    514.695    527.567    514.695    515.397    514.695
 85.770    543.000    528.741     14.259    514.615    528.029    514.615    515.321    514.615
 85.870    559.000    529.599     29.401    514.533    528.880    514.533    515.244    514.533
 85.970    558.920    530.933     27.987    514.450    530.207    514.450    515.166    514.450
 86.070    508.186    532.871    -24.685    514.366    532.137    514.366    515.087    514.366
 86.170    534.000    535.573     -1.573    514.280    534.830    514.280    515.007    514.280
 86.270    535.535    539.220     -3.685    514.193    538.467    514.193    514.925    514.193
 86.370    559.000    543.995     15.005    514.104    543.229    514.104    514.843    514.104
 86.470    514.242    550.053    -35.811    514.014    549.273    514.014    514.759    514.014
 86.570    518.296    557.486    -39.190    513.923    556.691    513.923    514.675    513.923
 86.670    581.613    566.286     15.327    513.830    565.473    513.830    514.589    513.830
 86.770    582.000    576.304      5.696    513.735    575.472    513.735    514.502    513.735
 86.870    632.918    587.224     45.694    513.639    586.373    513.639    514.414    513.639
 86.970    570.000    598.548    -28.548    513.542    597.676    513.542    514.325    513.542
 87.070    561.000    609.598    -48.598    513.443    608.707    513.443    514.235    513.443
 87.170    665.000    619.547     45.453    513.343    618.638    513.343    514.144    513.343
 87.270    652.000    627.494     24.506    513.242    626.570    513.242    514.052    513.242
 87.370    669.627    632.605     37.022    513.139    631.669    513.139    513.959    513.139
 87.470    635.000    634.305      0.695    513.034    633.361    513.034    513.865    513.034
 87.570    615.000    632.451    -17.451    512.928    631.503    512.928    513.770    512.928
 87.670    653.000    627.373     25.627    512.821    626.423    512.821    513.675    512.821
 87.770    671.000    619.763     51.237    512.712    618.813    512.712    513.578    512.712
 87.870    631.000    610.537     20.463    512.602    609.587    512.602    513.481    512.602
 87.970    618.109    600.650     17.460    512.490    599.700    512.490    513.383    512.490
 88.070    672.000    590.983     81.017    512.377    590.031    512.377    513.284    512.377
 88.170    597.000    582.306     14.694    512.263    581.352    512.263    513.185    512.263
 88.270    542.178    575.226    -33.048    512.147    574.267    512.147    513.085    512.147
 88.370    591.609    570.164     21.445    512.030    569.198    512.030    512.984    512.030
 88.470    562.000    567.346     -5.346    511.911    566.371    511.911    512.883    511.911
 88.570    551.533    566.807    -15.274    511.791    565.822    511.791    512.782    511.791
 88.670    587.000    568.403     18.597    511.670    567.406    511.670    512.680    511.670
 88.770    591.000    571.829     19.171    511.547    570.819    511.547    512.577    511.547
 88.870    565.761    576.639    -10.879    511.423    575.616    511.423    512.475    511.423
 88.970    611.956    582.271     29.685    511.297    581.232    511.297    512.372    511.297
 89.070    608.000    588.072     19.928    511.170    587.015    511.170    512.270    511.170
 89.170    569.000    593.336    -24.336    511.042    592.260    511.042    512.167    511.042
 89.270    581.000    597.366    -16.366    510.912    596.268    510.912    512.065    510.912
 89.370    556.000    599.561    -43.561    510.781    598.438    510.781    511.963    510.781
 89.470    603.000    599.535      3.465    510.648    598.384    510.648    511.861    510.648
 89.570    634.795    597.205     37.590    510.514    596.020    510.514    511.761    510.514
 89.670    555.000    592.798    -37.798    510.379    591.576    510.379    511.661    510.379
 89.770    568.000    586.770    -18.770    510.242    585.507    510.242    511.562    510.242
 89.870    594.091    579.687     14.404    510.104    578.377    510.104    511.465    510.104
 89.970    574.000    572.114      1.886    509.965    570.754    509.965    511.369    509.965
 90.070    509.000    564.553    -55.553    509.824    563.140    509.824    511.276    509.824
 90.170    544.000    557.408    -13.408    509.682    555.937    509.682    511.184    509.682
 90.270    601.604    550.970     50.633    509.539    549.438    509.539    511.096    509.539
 90.370    537.000    545.419     -8.419    509.394    543.821    509.394    511.011    509.394
 90.470    545.000    540.829      4.171    509.248    539.161    509.248    510.931    509.248
 90.570    525.000    537.193    -12.193    509.100    535.449    509.100    510.856    509.100
 90.670    528.000    534.445     -6.445    508.952    532.617    508.952    510.787    508.952
 90.770    511.937    532.482    -20.545    508.802    530.561    508.802    510.728    508.802
 90.870    485.147    531.193    -46.046    508.650    529.166    508.650    510.679    508.650
 90.970    529.094    530.472     -1.378    508.497    528.326    508.497    510.645    508.497
 91.070    514.000    530.240    -16.240    508.344    527.953    508.344    510.630    508.344
 91.170    512.000    530.447    -18.447    508.188    527.994    508.188    510.641    508.188
 91.270    569.526    531.086     38.441    508.032    528.431    508.032    510.684    508.032
 91.370    493.000    532.189    -39.189    507.874    529.290    507.874    510.770    507.874
 91.470    540.817    533.837      6.981    507.715    530.636    507.715    510.912    507.715
 91.570    561.609    536.154     25.455    507.554    532.578    507.554    511.125    507.554
 91.670    537.265    539.308     -2.043    507.393    535.266    507.393    511.427    507.393
 91.770    549.000    543.496      5.504    507.230    538.878    507.230    511.838    507.230
 91.870    527.000    548.912    -21.912    507.065    543.585    507.065    512.379    507.065
 91.970    504.000    555.868    -51.868    506.900    549.676    506.900    513.075    506.900
 92.070    547.000    564.583    -17.583    506.733    557.349    506.733    513.946    506.733
 92.170    548.000    575.235    -27.235    506.565    566.762    506.565    515.011    506.565
 92.270    587.000    587.952     -0.952    506.396    578.030    506.396    516.286    506.396
 92.370    615.000    602.768     12.232    506.226    591.179    506.226    517.775    506.226
 92.470    655.000    619.596     35.404    506.054    606.126    506.054    519.478    506.054
 92.570    639.000    638.208      0.792    505.881    622.660    505.881    521.376    505.881
 92.670    647.000    658.226    -11.226    505.707    640.432    505.707    523.441    505.707
 92.770    695.000    679.105     15.895    505.532    658.947    505.532    525.624    505.532
 92.870    738.000    700.160     37.840    505.356    677.588    505.356    527.856    505.356
 92.970    697.000    720.619    -23.619    505.178    695.674    505.178    530.047    505.178
 93.070    772.000    739.722     32.278    505.000    712.558    505.000    532.086    505.000
 93.170    765.000    756.854      8.146    504.820    727.755    504.820    533.839    504.820
 93.270    754.000    771.652    -17.652    504.639    741.045    504.639    535.166    504.639
 93.370    732.507    784.050    -51.543    504.457    752.489    504.457    535.939    504.457
 93.470    813.000    794.219     18.781    504.273    762.352    504.273    536.065    504.273
 93.570    824.989    802.489     22.500    504.089    770.990    504.089    535.514    504.089
 93.670    767.527    809.276    -41.749    503.903    778.781    503.903    534.327    503.903
 93.770    792.929    815.068    -22.139    503.717    786.114    503.717    532.602    503.717
 93.870    864.000    820.435     43.565    503.529    793.427    503.529    530.470    503.529
 93.970    866.000    826.031     39.969    503.340    801.233    503.340    528.074    503.340
 94.070    883.000    832.493     50.507    503.150    810.039    503.150    525.542    503.150
 94.170    874.000    840.273     33.727    502.959    820.188    502.959    522.984    502.959
 94.270    796.822    849.484    -52.663    502.767    831.706    502.767    520.488    502.767
 94.370    876.000    859.789     16.211    502.574    844.189    502.574    518.118    502.574
 94.470    839.272    870.370    -31.098    502.380    856.777    502.380    515.921    502.380
 94.570    925.000    879.989     45.011    502.185    868.203    502.185    513.924    502.185
 94.670    920.000    887.119     32.881    501.989    876.924    501.989    512.142    501.989
 94.770    926.000    890.164     35.836    501.791    881.345    501.791    510.576    501.791
 94.870    906.398    887.766     18.633    501.593    880.115    501.593    509.218    501.593
 94.970    950.000    879.128     70.872    501.394    872.451    501.394    508.054    501.394
 95.070    912.000    864.241     47.759    501.194    858.363    501.194    507.064    501.194
 95.170    858.000    843.897     14.103    500.993    838.663    500.993    506.226    500.993
 95.270    781.225    819.512    -38.287    500.791    814.789    500.791    505.518    500.791
 95.370    781.000    792.865    -11.865    500.588    788.544    500.588    504.917    500.588
 95.470    805.553    765.867     39.686    500.384    761.857    500.384    504.404    500.384
 95.570    786.000    740.404     45.596    500.179    736.631    500.179    503.962    500.179
 95.670    733.307    718.240     15.067    499.973    714.645    499.973    503.577    499.973
 95.770    698.000    700.968     -2.968    499.766    697.504    499.766    503.235    499.766
 95.870    672.000    689.986    -17.986    499.559    686.616    499.559    502.928    499.559
 95.970    662.000    686.494    -24.494    499.350    683.188    499.350    502.648    499.350
 96.070    740.381    691.490     48.891    499.141    688.226    499.141    502.389    499.141
 96.170    693.381    705.775    -12.395    498.931    702.532    498.931    502.148    498.931
 96.270    738.643    729.929      8.714    498.719    726.691    498.719    501.922    498.719
 96.370    754.438    764.255     -9.818    498.508    761.008    498.508    501.708    498.508
 96.470    819.769    808.773     10.996    498.295    805.504    498.295    501.505    498.295
 96.570    828.000    863.037    -35.037    498.081    859.737    498.081    501.311    498.081
 96.670    892.000    926.083    -34.083    497.867    922.744    497.867    501.126    497.867
 96.770    904.000    996.349    -92.349    497.652    992.961    497.652    500.950    497.652
 96.870   1082.000   1071.606     10.394    497.436   1068.160    497.436    500.783    497.436
 96.970   1203.189   1148.942     54.247    497.220   1145.434    497.220    500.626    497.220
 97.070   1200.000   1224.806    -24.806    497.002   1221.228    497.002    500.478    497.002
 97.170   1339.000   1295.114     43.886    496.784   1291.460    496.784    500.339    496.784
 97.270   1433.941   1355.494     78.448    496.565   1351.759    496.565    500.211    496.565
 97.370   1430.469   1401.695     28.773    496.346   1397.873    496.346    500.092    496.346
 97.470   1447.340   1430.194     17.146    496.126   1426.276    496.126    499.985    496.126
 97.570   1427.000   1438.838    -11.838    495.905   1434.815    495.905    499.891    495.905
 97.670   1524.000   1427.274     96.726    495.684   1423.131    495.684    499.810    495.684
 97.770   1390.000   1396.977     -6.977    495.461   1392.698    495.461    499.745    495.461
 97.870   1376.000   1350.861     25.139    495.239   1346.425    495.239    499.697    495.239
 97.970   1319.000   1292.699     26.301    495.015   1288.081    495.015    499.671    495.015
 98.070   1218.000   1226.604     -8.604    494.791   1221.773    494.791    499.670    494.791
 98.170   1153.000   1156.646     -3.646    494.567   1151.568    494.567    499.699    494.567
 98.270   1085.000   1086.621     -1.621    494.342   1081.253    494.342    499.765    494.342
 98.370    997.038   1019.907    -22.869    494.116   1014.198    494.116    499.880    494.116
 98.470    955.000    959.388     -4.388    493.890    953.274    493.890    500.054    493.890
 98.570    802.000    907.437   -105.437    493.663    900.838    493.663    500.305    493.663
 98.670    809.043    865.932    -56.889    493.436    858.750    493.436    500.654    493.436
 98.770    787.000    836.310    -49.310    493.208    828.417    493.208    501.127    493.208
 98.870    836.291    819.628     16.664    492.980    810.865    492.980    501.758    492.980
 98.970    817.923    816.638      1.285    492.752    806.809    492.752    502.587    492.752
 99.070    880.000    827.845     52.155    492.523    816.704    492.523    503.661    492.523
 99.170    859.000    853.536      5.464    492.293    840.785    492.293    505.034    492.293
 99.270    945.000    893.776     51.224    492.063    879.056    492.063    506.766    492.063
 99.370   1018.000    948.367     69.633    491.833    931.255    491.833    508.923    491.833
 99.470   1022.000   1016.778      5.222    491.603    996.786    491.603    511.570    491.603
 99.570   1135.000   1098.058     36.942    491.372   1074.631    491.372    514.774    491.372
 99.670   1190.449   1190.741     -0.292    491.140   1163.267    491.140    518.593    491.140
 99.770   1289.000   1292.762     -3.762    490.909   1260.582    490.909    523.074    490.909
 99.870   1366.000   1401.397    -35.397    490.677   1363.824    490.677    528.247    490.677
 99.970   1522.000   1513.247      8.753    490.444   1469.586    490.444    534.117    490.444
100.070   1589.330   1624.359    -35.029    490.212   1573.941    490.212    540.660    490.212
100.170   1751.000   1730.374     20.626    489.979   1672.589    489.979    547.817    489.979
100.270   1871.497   1826.876     44.621    489.746   1761.212    489.746    555.488    489.746
100.370   1996.000   1909.817     86.183    489.513   1835.909    489.513    563.525    489.513
100.470   2013.000   1975.853     37.147    489.280   1893.530    489.280    571.734    489.280
100.570   2054.000   2022.499     31.501    489.046   1931.837    489.046    579.862    489.046
100.670   2116.647   2048.098     68.549    488.813   1949.478    488.813    587.608    488.813
100.770   2070.396   2051.759     18.638    488.579   1945.912    488.579    594.619    488.579
100.870   2021.000   2033.419    -12.419    488.345   1921.458    488.345    600.512    488.345
100.970   2042.000   1994.067     47.933    488.111   1877.487    488.111    604.906    488.111
101.070   1917.000   1935.963    -18.963    487.877   1816.584    487.877    607.473    487.877
101.170   1917.000   1862.634     54.366    487.643   1742.496    487.643    607.996    487.643
101.270   1761.000   1778.568    -17.568    487.408   1659.771    487.408    606.414    487.408
101.370   1723.383   1688.681     34.702    487.174   1573.217    487.174    602.835    487.174
101.470   1532.000   1597.759    -65.759    486.940   1487.366    486.940    597.515    486.940
101.570   1538.757   1510.012     28.745    486.706   1406.082    486.706    590.803    486.706
101.670   1478.000   1428.793     49.207    486.472   1332.331    486.472    583.084    486.472
101.770   1345.000   1356.456    -11.456    486.238   1268.091    486.238    574.738    486.238
101.870   1258.000   1294.324    -36.324    486.004   1214.346    486.004    566.103    486.004
101.970   1302.716   1242.727     59.989    485.770   1171.138    485.770    557.467    485.770
102.070   1177.000   1201.088    -24.088    485.536   1137.657    485.536    549.065    485.536
102.170   1185.925   1168.054     17.871    485.302   1112.368    485.302    541.079    485.302
102.270   1129.000   1141.660    -12.660    485.069   1093.175    485.069    533.639    485.069
102.370   1110.000   1119.544     -9.544    484.836   1077.625    484.836    526.836    484.836
102.470   1085.643   1099.202    -13.559    484.603   1063.169    484.603    520.718    484.603
102.570   1126.000   1078.300     47.700    484.370   1047.453    484.370    515.298    484.370
102.670   1069.000   1054.968     14.032    484.138   1028.624    484.138    510.565    484.138
102.770    980.162   1028.032    -47.871    483.905   1005.540    483.905    506.482    483.905
102.870    954.000    997.089    -43.089    483.673    977.848    483.673    502.998    483.673
102.970    993.000    962.420     30.580    483.442    945.892    483.442    500.053    483.442
103.070    877.831    924.800    -46.969    483.211    910.511    483.211    497.580    483.211
103.170    929.000    885.282     43.718    482.980    872.825    482.980    495.513    482.980
103.270    866.470    845.020     21.450    482.749    834.052    482.749    493.788    482.749
103.370    805.000    805.137     -0.137    482.519    795.375    482.519    492.347    482.519
103.470    820.104    766.646     53.458    482.290    757.858    482.290    491.137    482.290
103.570    716.286    730.397    -14.110    482.061    722.397    482.061    490.112    482.061
103.670    683.000    697.043    -14.043    481.832    689.684    481.832    489.236    481.832
103.770    663.611    667.029     -3.418    481.604    660.195    481.604    488.477    481.604
103.870    644.000    640.595      3.405    481.376    634.194    481.376    487.810    481.376
103.970    627.000    617.790      9.210    481.149    611.752    481.149    487.214    481.149
104.070    566.144    598.505    -32.361    480.923    592.774    480.923    486.676    480.923
104.170    620.000    582.510     37.490    480.697    577.042    480.697    486.183    480.697
104.270    613.000    569.492     43.508    480.472    564.252    480.472    485.726    480.472
104.370    575.944    559.093     16.852    480.248    554.052    480.248    485.298    480.248
104.470    533.665    550.941    -17.276    480.024    546.077    480.024    484.895    480.024
104.570    576.155    544.679     31.475    479.801    539.972    479.801    484.513    479.801
104.670    549.000    539.988      9.012    479.579    535.421    479.579    484.148    479.579
104.770    507.000    536.591    -29.591    479.357    532.150    479.357    483.799    479.357
104.870    590.000    534.257     55.743    479.136    529.929    479.136    483.464    479.136
104.970    534.242    532.827      1.415    478.916    528.600    478.916    483.141    478.916
105.070    530.000    532.179     -2.179    478.697    528.044    478.697    482.829    478.697
105.170    577.000    532.244     44.756    478.479    528.190    478.479    482.529    478.479
105.270    599.000    532.996     66.004    478.262    529.014    478.262    482.237    478.262
105.370    548.666    534.451     14.215    478.045    530.533    478.045    481.955    478.045
105.470    512.000    536.657    -24.657    477.830    532.795    477.830    481.682    477.830
105.570    544.000    539.688      4.312    477.616    535.875    477.616    481.417    477.616
105.670    536.000    543.636     -7.636    477.402    539.865    477.402    481.159    477.402
105.770    524.162    548.595    -24.433    477.190    544.860    477.190    480.908    477.190
105.870    574.000    554.651     19.349    476.979    550.946    476.979    480.665    476.979
105.970    555.000    561.867     -6.867    476.768    558.185    476.768    480.429    476.768
106.070    578.000    570.267      7.733    476.559    566.602    476.559    480.199    476.559
106.170    568.914    579.826    -10.912    476.351    576.174    476.351    479.975    476.351
106.270    607.000    590.461     16.539    476.145    586.816    476.145    479.757    476.145
106.370    583.000    602.026    -19.026    475.939    598.384    475.939    479.546    475.939
106.470    617.241    614.305      2.936    475.735    610.661    475.735    479.341    475.735
106.570    590.871    627.021    -36.150    475.532    623.371    475.532    479.141    475.532
106.670    636.000    639.838     -3.838    475.330    636.178    475.330    478.947    475.330
106.770    633.000    652.370    -19.370    475.130    648.696    475.130    478.759    475.130
106.870    643.000    664.200    -21.200    474.931    660.508    474.931    478.577    474.931
106.970    626.011    674.903    -48.893    474.733    671.191    474.733    478.400    474.733
107.070    657.000    684.090    -27.090    474.537    680.354    474.537    478.229    474.537
107.170    667.000    691.448    -24.448    474.342    687.684    474.342    478.064    474.342
107.270    713.227    696.797     16.430    474.149    693.001    474.149    477.904    474.149
107.370    678.000    700.126    -22.126    473.957    696.296    473.957    477.751    473.957
107.470    697.000    701.607     -4.607    473.767    697.738    473.767    477.603    473.767
107.570    723.990    701.561     22.429    473.578    697.649    473.578    477.462    473.578
107.670    741.000    700.408     40.592    473.391    696.448    473.391    477.327    473.391
107.770    680.616    698.599    -17.983    473.206    694.587    473.206    477.198    473.206
107.870    701.145    696.562      4.583    473.022    692.494    473.022    477.075    473.022
107.970    688.000    694.656     -6.656    472.840    690.525    472.840    476.960    472.840
108.070    692.255    693.139     -0.884    472.660    688.940    472.660    476.851    472.660
108.170    732.000    692.157     39.843    472.481    687.886    472.481    476.749    472.481
108.270    648.000    691.734    -43.734    472.304    687.384    472.304    476.655    472.304
108.370    660.870    691.770    -30.900    472.129    687.336    472.129    476.568    472.129
108.470    728.000    692.052     35.948    471.956    687.527    471.956    476.489    471.956
108.570    697.536    692.271      5.264    471.785    687.649    471.785    476.418    471.785
108.670    708.000    692.055     15.945    471.616    687.328    471.616    476.356    471.616
108.770    666.000    691.004    -25.004    471.449    686.167    471.449    476.302    471.449
108.870    717.883    688.754     29.129    471.284    683.798    471.284    476.258    471.284
108.970    656.489    685.021    -28.533    471.120    679.942    471.120    476.220    471.120
109.070    694.000    679.661     14.339    470.959    674.447    470.959    476.195    470.959
109.170    708.000    672.670     35.330    470.800    667.310    470.800    476.182    470.800
109.270    666.821    664.184      2.637    470.643    658.670    470.643    476.181    470.643
109.370    620.574    654.450    -33.876    470.488    648.770    470.488    476.191    470.488
109.470    674.862    643.779     31.083    470.336    637.923    470.336    476.214    470.336
109.570    610.000    632.513    -22.513    470.185    626.468    470.185    476.251    470.185
109.670    568.316    620.991    -52.674    470.037    614.746    470.037    476.302    470.037
109.770    594.486    609.533    -15.048    469.892    603.074    469.892    476.369    469.892
109.870    589.000    598.427     -9.427    469.748    591.738    469.748    476.453    469.748
109.970    545.195    587.914    -42.719    469.607    580.981    469.607    476.555    469.607
110.070    576.000    578.185     -2.185    469.469    570.997    469.469    476.669    469.469
110.170    543.000    569.400    -26.400    469.333    561.930    469.333    476.813    469.333
110.270    564.347    561.651      2.696    469.199    553.876    469.199    476.982    469.199
110.370    589.000    554.984     34.016    469.068    546.879    469.068    477.179    469.068
110.470    535.000    549.385    -14.385    468.939    540.922    468.939    477.407    468.939
110.570    588.000    544.860     43.140    468.813    536.004    468.813    477.672    468.813
110.670    519.332    541.374    -22.042    468.690    532.086    468.690    477.979    468.690
110.770    541.000    538.836      2.164    468.569    529.069    468.569    478.336    468.569
110.870    586.317    537.162     49.155    468.451    526.860    468.451    478.752    468.451
110.970    544.000    536.268      7.732    468.336    525.363    468.336    479.238    468.336
111.070    507.000    536.068    -29.068    468.224    524.478    468.224    479.810    468.224
111.170    552.589    536.488     16.101    468.114    524.114    468.114    480.484    468.114
111.270    569.000    537.461     31.539    468.008    524.182    468.008    481.281    468.008
111.370    544.000    538.935      5.065    467.904    524.605    467.904    482.228    467.904
111.470    529.000    540.873    -11.873    467.803    525.315    467.803    483.354    467.803
111.570    503.119    543.252    -40.133    467.705    526.253    467.705    484.697    467.705
111.670    563.000    546.068     16.932    467.610    527.373    467.610    486.297    467.610
111.770    612.000    549.332     62.668    467.519    528.638    467.519    488.203    467.519
111.870    598.000    553.073     44.927    467.430    530.024    467.430    490.470    467.430
111.970    554.000    557.336     -3.336    467.345    531.515    467.345    493.156    467.345
112.070    539.000    562.185    -23.185    467.262    533.109    467.262    496.328    467.262
112.170    591.739    567.694     24.045    467.183    534.812    467.183    500.056    467.183
112.270    569.000    573.952     -4.952    467.107    536.639    467.107    504.410    467.107
112.370    575.503    581.057     -5.555    467.035    538.617    467.035    509.465    467.035
112.470    566.000    589.113    -23.113    466.966    540.777    466.966    515.292    466.966
112.570    566.344    598.228    -31.884    466.900    543.162    466.900    521.955    466.900
112.670    642.023    608.512     33.512    466.838    545.825    466.838    529.513    466.838
112.770    611.000    620.076     -9.076    466.779    548.832    466.779    538.011    466.779
112.870    646.646    633.036     13.611    466.723    552.269    466.723    547.478    466.723
112.970    635.000    647.508    -12.508    466.672    556.245    466.672    557.922    466.672
113.070    687.085    663.621     23.464    466.623    560.905    466.623    569.326    466.623
113.170    618.000    681.517    -63.517    466.579    566.436    466.579    581.645    466.579
113.270    724.000    701.365     22.635    466.538    573.083    466.538    594.803    466.538
113.370    693.394    723.373    -29.979    466.501    581.168    466.501    608.686    466.501
113.470    769.000    747.805     21.195    466.468    591.106    466.468    623.145    466.468
113.570    823.786    775.003     48.784    466.438    603.429    466.438    637.986    466.438
113.670    780.000    805.405    -25.405    466.412    618.812    466.412    652.976    466.412
113.770    852.000    839.576     12.424    466.391    638.096    466.391    667.835    466.391
113.870    884.000    878.230      5.770    466.373    662.321    466.373    682.239    466.373
113.970    903.000    922.259    -19.259    466.359    692.743    466.359    695.823    466.359
114.070    965.000    972.760     -7.760    466.349    730.855    466.349    708.191    466.349
114.170   1035.357   1031.064      4.292    466.343    778.402    466.343    718.928    466.343
114.270   1098.845   1098.755      0.091    466.342    837.374    466.342    727.628    466.342
114.370   1221.776   1177.688     44.087    466.344    909.991    466.344    733.926    466.344
114.470   1258.862   1269.991    -11.129    466.351    998.667    466.351    737.535    466.351
114.570   1320.997   1378.031    -57.035    466.362   1105.943    466.362    738.281    466.362
114.670   1478.908   1504.360    -25.452    466.378   1234.406    466.378    736.129    466.378
114.770   1716.717   1651.593     65.124    466.397   1386.568    466.397    731.183    466.397
114.870   1890.000   1822.263     67.737    466.421   1564.725    466.421    723.676    466.421
114.970   2181.000   2018.618    162.382    466.450   1770.799    466.450    713.940    466.450
115.070   2277.942   2242.410     35.532    466.483   2006.150    466.483    702.365    466.483
115.170   2557.000   2494.669     62.331    466.521   2271.396    466.521    689.364    466.521
115.270   2814.523   2775.492     39.031    466.563   2566.227    466.563    675.347    466.563
115.370   3076.000   3083.857     -7.857    466.610   2889.240    466.610    660.695    466.610
115.470   3371.687   3417.477    -45.790    466.661   3237.804    466.661    645.755    466.661
115.570   3760.000   3772.698    -12.698    466.718   3607.965    466.718    630.829    466.718
115.670   4221.000   4144.454     76.546    466.779   3994.401    466.779    616.174    466.779
115.770   4598.344   4526.278     72.067    466.845   4390.436    466.845    602.003    466.845
115.870   4970.317   4910.377     59.940    466.915   4788.106    466.915    588.487    466.915
115.970   5299.556   5287.773     11.784    466.991   5178.305    466.991    575.760    466.991
116.070   5722.544   5648.511     74.033    467.072   5550.984    467.072    563.914    467.072
116.170   5986.000   5981.958      4.042    467.157   5895.450    467.157    553.012    467.157
116.270   6262.000   6277.209    -15.209    467.248   6200.769    467.248    543.082    467.248
116.370   6625.000   6523.626    101.374    467.344   6456.300    467.344    534.131    467.344
116.470   6852.056   6711.530    140.526    467.445   6652.379    467.445    526.137    467.445
116.570   6766.528   6832.983    -66.455    467.552   6781.106    467.552    519.065    467.552
116.670   6958.000   6882.573     75.427    467.663   6837.113    467.663    512.862    467.663
116.770   6922.293   6858.012     64.281    467.780   6818.174    467.780    507.467    467.780
116.870   6669.876   6760.411    -90.535    467.902   6725.460    467.902    502.811    467.902
116.970   6639.844   6594.118     45.726    468.030   6563.388    468.030    498.821    468.030
117.070   6348.000   6366.203    -18.203    468.163   6339.096    468.163    495.424    468.163
117.170   6157.799   6085.707     72.092    468.302   6061.693    468.302    492.551    468.302
117.270   5896.431   5762.854    133.576    468.446   5741.470    468.446    490.132    468.446
117.370   5436.639   5408.333     28.305    468.596   5389.176    468.596    488.106    468.596
117.470   4942.000   5032.715    -90.715    468.752   5015.439    468.752    486.415    468.752
117.570   4597.256   4646.033    -48.777    468.913   4630.347    468.913    485.008    468.913
117.670   4350.000   4257.496     92.504    469.081   4243.152    469.081    483.840    469.081
117.770   3805.275   3875.169    -69.895    469.254   3861.962    469.254    482.872    469.254
117.870   3538.079   3505.900     32.179    469.433   3493.657    469.433    482.072    469.433
117.970   3196.305   3155.225     41.081    469.618   3143.805    469.618    481.410    469.618
118.070   2831.000   2827.352      3.648    469.808   2816.640    469.808    480.864    469.808
118.170   2598.000   2525.207     72.793    470.005   2515.108    470.005    480.415    470.005
118.270   2200.475   2250.525    -50.050    470.209   2240.961    470.209    480.047    470.209
118.370   2020.944   2003.978     16.966    470.418   1994.888    470.418    479.746    470.418
118.470   1801.236   1785.330     15.906    470.633   1776.663    470.633    479.504    470.633
118.570   1571.000   1593.603    -22.603    470.855   1585.316    470.855    479.311    470.855
118.670   1444.000   1427.245     16.755    471.083   1419.305    471.083    479.162    471.083
118.770   1201.000   1284.296    -83.296    471.318   1276.675    471.318    479.050    471.318
118.870   1122.000   1162.545    -40.545    471.559   1155.218    471.559    478.973    471.559
118.970   1081.000   1059.660     21.340    471.806   1052.608    471.806    478.926    471.806
119.070    969.000    973.309     -4.309    472.060    966.513    472.060    478.907    472.060
119.170    844.668    901.247    -56.579    472.321    894.690    472.321    478.915    472.321
119.270    845.000    841.379      3.621    472.588    835.047    472.588    478.946    472.588
119.370    793.000    791.809      1.191    472.863    785.688    472.863    479.002    472.863
119.470    797.166    750.854     46.311    473.143    744.930    473.143    479.079    473.143
119.570    719.000    717.056      1.944    473.431    711.317    473.431    479.178    473.431
119.670    675.688    689.171    -13.483    473.726    683.604    473.726    479.298    473.726
119.770    692.000    666.157     25.843    474.027    660.749    474.027    479.439    474.027
119.870    621.000    647.153    -26.153    474.336    641.891    474.336    479.600    474.336
119.970    617.000    631.454    -14.454    474.652    626.326    474.652    479.781    474.652
120.070    601.000    618.492    -17.492    474.974    613.484    474.974    479.984    474.974
120.170    560.000    607.811    -47.811    475.305    602.911    475.305    480.206    475.305
120.270    581.893    599.050    -17.157    475.642    594.244    475.642    480.450    475.642
120.370    569.000    591.922    -22.922    475.986    587.196    475.986    480.715    475.986
120.470    569.000    586.203    -17.203    476.338    581.542    476.338    481.003    476.338
120.570    562.000    581.716    -19.716    476.698    577.106    476.698    481.312    476.698
120.670    600.000    578.324     21.676    477.065    573.749    477.065    481.644    477.065
120.770    581.000    575.918      5.082    477.439    571.362    477.439    482.000    477.439
120.870    585.000    574.411     10.589    477.821    569.859    477.821    482.380    477.821
120.970    582.303    573.735      8.568    478.211    569.169    478.211    482.784    478.211
121.070    553.514    573.830    -20.316    478.609    569.234    478.609    483.213    478.609
121.170    597.000    574.645     22.355    479.014    570.001    479.014    483.666    479.014
121.270    592.900    576.130     16.770    479.427    571.423    479.427    484.146    479.427
121.370    621.858    578.239     43.619    479.848    573.449    479.848    484.650    479.848
121.470    597.000    580.918     16.082    480.277    576.031    480.277    485.179    480.277
121.570    595.000    584.112     10.888    480.714    579.111    480.714    485.732    480.714
121.670    564.000    587.757    -23.757    481.160    582.627    481.160    486.308    481.160
121.770    569.000    591.784    -22.784    481.613    586.510    481.613    486.907    481.613
121.870    613.000    596.112     16.888    482.075    590.683    482.075    487.526    482.075
121.970    609.056    600.654      8.402    482.545    595.060    482.545    488.164    482.545
122.070    576.000    605.314    -29.314    483.023    599.546    483.023    488.819    483.023
122.170    601.398    609.989     -8.590    483.510    604.041    483.510    489.488    483.510
122.270    642.000    614.568     27.432    484.005    608.439    484.005    490.168    484.005
122.370    604.000    618.939    -14.939    484.509    612.629    484.509    490.855    484.509
122.470    599.035    622.987    -23.952    485.022    616.501    485.022    491.546    485.022
122.570    593.000    626.603    -33.603    485.543    619.950    485.543    492.236    485.543
122.670    659.000    629.685     29.315    486.073    622.878    486.073    492.922    486.073
122.770    595.000    632.146    -37.146    486.611    625.205    486.611    493.597    486.611
122.870    638.000    633.922      4.078    487.159    626.869    487.159    494.258    487.159
122.970    660.148    634.970     25.178    487.716    627.833    487.716    494.899    487.716
123.070    612.000    635.277    -23.277    488.281    628.087    488.281    495.518    488.281
123.170    606.845    634.855    -28.010    488.856    627.647    488.856    496.110    488.856
123.270    659.000    633.741     25.259    489.440    626.553    489.440    496.674    489.440
123.370    688.000    631.992     56.008    490.033    624.861    490.033    497.208    490.033
123.470    640.379    629.678     10.701    490.635    622.642    490.635    497.714    490.635
123.570    611.000    626.880    -15.880    491.247    619.974    491.247    498.193    491.247
123.670    675.000    623.682     51.318    491.868    616.939    491.868    498.649    491.868
123.770    616.000    620.170     -4.170    492.498    613.619    492.498    499.085    492.498
123.870    662.000    616.427     45.573    493.139    610.093    493.139    499.506    493.139
123.970    656.145    612.532     43.613    493.788    606.434    493.788    499.916    493.788
124.070    582.513    608.555    -26.042    494.448    602.710    494.448    500.321    494.448
124.170    574.759    604.559    -29.800    495.117    598.976    495.117    500.724    495.117
124.270    585.882    600.594    -14.712    495.796    595.281    495.796    501.131    495.796
124.370    581.000    596.702    -15.702    496.485    591.662    496.485    501.544    496.485
124.470    643.807    592.913     50.894    497.184    588.145    497.184    501.968    497.184
124.570    570.000    589.246    -19.246    497.893    584.747    497.893    502.406    497.893
124.670    610.000    585.713     24.287    498.613    581.477    498.613    502.860    498.613
124.770    515.000    582.319    -67.319    499.342    578.338    499.342    503.333    499.342
124.870    612.000    579.063     32.937    500.081    575.327    500.081    503.825    500.081
124.970    593.000    575.940     17.060    500.831    572.438    500.831    504.340    500.831
