neutron_powder_diffraction_0015
R_wp: 3.647
Temperature (K): 473.560
Counts: 83342.00
Wavelength (Ã…): 2.52098
COMMENTS
Test file for demonstrating the .xyy file format in Reel1.0
END OF HEADER
   tth       Y_obs     Y_calc      Y_res    Background    Phase_1_Nuc    Phase_1_Mag    Phase_2_Nuc    Phase_2_Mag
  9.970    787.000    728.759     58.241    727.042    728.068    727.732    727.042    727.042
 10.070    712.564    727.685    -15.121    725.879    726.987    726.577    725.879    725.879
 10.170    707.948    726.630    -18.682    724.723    725.924    725.428    724.723    724.723
 10.270    744.000    725.594     18.406    723.573    724.881    724.286    723.573    723.573
 10.370    735.000    724.581     10.419    722.429    723.860    723.149    722.429    722.429
 10.470    750.000    723.594     26.406    721.292    722.865    722.020    721.292    721.292
 10.570    689.015    722.637    -33.622    720.160    721.900    720.897    720.160    720.160
 10.670    754.000    721.717     32.283    719.036    720.971    719.780    719.036    719.036
 10.770    686.063    720.839    -34.776    717.917    720.086    718.669    717.917    717.917
 10.870    755.172    720.016     35.157    716.805    719.254    717.565    716.805    716.805
 10.970    737.000    719.258     17.742    715.698    718.488    716.468    715.698    715.698
 11.070    728.856    718.586     10.269    714.599    717.807    715.376    714.599    714.599
 11.170    713.160    718.025     -4.866    713.505    717.237    714.291    713.505    713.505
 11.270    733.000    717.614     15.386    712.417    716.816    713.213    712.417    712.417
 11.370    732.000    717.414     14.586    711.336    716.607    712.140    711.336    711.336
 11.470    745.000    717.538     27.462    710.261    716.721    711.074    710.261    710.261
 11.570    776.000    718.228     57.772    709.192    717.400    710.015    709.192    709.192
 11.670    744.000    720.021     23.979    708.129    719.182    708.962    708.129    708.129
 11.770    721.461    724.010     -2.549    707.072    723.158    707.915    707.072    707.072
 11.870    838.000    732.039    105.961    706.021    731.172    706.874    706.021    706.021
 11.970    778.000    746.341     31.659    704.977    745.456    705.839    704.977    704.977
 12.070    824.145    768.140     56.006    703.938    767.232    704.811    703.938    703.938
 12.170    788.882    794.998     -6.116    702.905    794.064    703.789    702.905    702.905
 12.270    843.350    817.818     25.532    701.879    816.860    702.773    701.879    701.879
 12.370    872.000    823.030     48.970    700.858    822.058    701.763    700.858    700.858
 12.470    824.777    805.747     19.029    699.844    804.774    700.760    699.844    699.844
 12.570    841.000    777.013     63.987    698.836    776.043    699.763    698.836    698.836
 12.670    749.000    749.820     -0.820    697.833    748.854    698.771    697.833    697.833
 12.770    770.200    729.712     40.488    696.836    728.744    697.786    696.836    696.836
 12.870    661.000    716.829    -55.829    695.846    715.856    696.808    695.846    695.846
 12.970    718.000    709.132      8.868    694.861    708.151    695.835    694.861    694.861
 13.070    717.812    704.456     13.356    693.882    703.465    694.869    693.882    693.882
 13.170    672.000    701.324    -29.324    692.910    700.322    693.908    692.910    692.910
 13.270    654.000    698.960    -44.960    691.943    697.946    692.954    691.943    691.943
 13.370    655.504    697.010    -41.506    690.982    695.983    692.006    690.982    690.982
 13.470    690.000    695.314     -5.314    690.026    694.275    691.064    690.026    690.026
 13.570    672.000    693.794    -21.794    689.077    692.741    690.128    689.077    689.077
 13.670    667.000    692.401    -25.401    688.133    691.334    689.198    688.133    688.133
 13.770    621.000    691.104    -70.104    687.196    690.024    688.275    687.196    687.196
 13.870    686.000    689.882     -3.882    686.264    688.788    687.357    686.264    686.264
 13.970    696.450    688.720      7.730    685.337    687.611    686.445    685.337    685.337
 14.070    644.799    687.606    -42.807    684.417    686.482    685.540    684.417    684.417
 14.170    688.000    686.543      1.457    683.502    685.404    684.641    683.502    683.502
 14.270    713.350    685.518     27.832    682.593    684.363    683.748    682.593    682.593
 14.370    706.000    684.504     21.496    681.690    683.333    682.860    681.690    681.690
 14.470    706.880    683.512     23.368    680.793    682.325    681.979    680.793    680.793
 14.570    693.000    682.541     10.459    679.901    681.337    681.104    679.901    679.901
 14.670    683.609    681.588      2.021    679.014    680.368    680.234    679.014    679.014
 14.770    639.000    680.651    -41.651    678.134    679.414    679.371    678.134    678.134
 14.870    643.488    679.730    -36.242    677.259    678.474    678.514    677.259    677.259
 14.970    634.000    678.822    -44.822    676.390    677.548    677.663    676.390    676.390
 15.070    693.528    677.927     15.601    675.526    676.635    676.817    675.526    675.526
 15.170    669.000    677.047     -8.047    674.668    675.737    675.978    674.668    674.668
 15.270    678.766    676.174      2.592    673.816    674.845    675.145    673.816    673.816
 15.370    698.000    675.311     22.689    672.969    673.962    674.318    672.969    672.969
 15.470    640.000    674.458    -34.458    672.127    673.089    673.496    672.127    672.127
 15.570    690.289    673.614     16.675    671.291    672.224    672.681    671.291    671.291
 15.670    646.074    672.778    -26.705    670.461    671.368    671.872    670.461    670.461
 15.770    665.576    671.952     -6.376    669.636    670.520    671.068    669.636    669.636
 15.870    660.000    671.133    -11.133    668.817    669.679    670.271    668.817    668.817
 15.970    621.897    670.323    -48.426    668.003    668.846    669.480    668.003    668.003
 16.070    628.000    669.521    -41.521    667.195    668.021    668.694    667.195    667.195
 16.170    674.000    668.726      5.274    666.392    667.203    667.915    666.392    666.392
 16.270    642.598    667.939    -25.340    665.594    666.391    667.141    665.594    665.594
 16.370    688.000    667.159     20.841    664.802    665.586    666.374    664.802    664.802
 16.470    710.000    666.386     43.614    664.015    664.789    665.612    664.015    664.015
 16.570    652.000    665.623    -13.623    663.234    664.000    664.857    663.234    663.234
 16.670    717.503    664.870     52.634    662.458    663.220    664.108    662.458    662.458
 16.770    714.196    664.119     50.077    661.687    662.442    663.364    661.687    661.687
 16.870    647.000    663.375    -16.375    660.922    661.669    662.627    660.922    660.922
 16.970    670.554    662.637      7.917    660.162    660.903    661.895    660.162    660.162
 17.070    685.000    661.907     23.093    659.407    660.144    661.170    659.407    659.407
 17.170    676.000    661.202     14.798    658.657    659.407    660.451    658.657    658.657
 17.270    647.174    660.558    -13.384    657.913    658.729    659.741    657.913    657.913
 17.370    666.647    659.858      6.789    657.174    657.997    659.034    657.174    657.174
 17.470    629.056    659.154    -30.099    656.440    657.261    658.333    656.440    656.440
 17.570    657.000    658.458     -1.458    655.712    656.531    657.638    655.712    655.712
 17.670    664.000    657.772      6.228    654.988    655.811    656.949    654.988    654.988
 17.770    618.702    657.116    -38.414    654.270    655.120    656.267    654.270    654.270
 17.870    680.676    656.442     24.233    653.557    654.410    655.590    653.557    653.557
 17.970    671.000    655.772     15.228    652.849    653.702    654.919    652.849    652.849
 18.070    614.735    655.109    -40.374    652.147    653.001    654.255    652.147    652.147
 18.170    651.000    654.452     -3.452    651.449    652.305    653.597    651.449    651.449
 18.270    648.371    653.802     -5.431    650.757    651.614    652.945    650.757    650.757
 18.370    641.000    653.159    -12.159    650.069    650.929    652.299    650.069    650.069
 18.470    671.005    652.522     18.483    649.387    650.250    651.660    649.387    649.387
 18.570    609.651    651.893    -42.242    648.710    649.576    651.027    648.710    648.710
 18.670    623.000    651.270    -28.270    648.038    648.907    650.400    648.038    648.038
 18.770    635.421    650.654    -15.233    647.370    648.245    649.780    647.370    647.370
 18.870    630.000    650.057    -20.057    646.708    647.599    649.166    646.708    646.708
 18.970    592.000    649.456    -57.456    646.051    646.948    648.559    646.051    646.051
 19.070    601.000    648.861    -47.861    645.399    646.302    647.958    645.399    645.399
 19.170    689.701    648.272     41.429    644.751    645.660    647.363    644.751    644.751
 19.270    690.026    647.691     42.335    644.109    645.024    646.776    644.109    644.109
 19.370    616.547    647.121    -30.573    643.472    644.397    646.196    643.472    643.472
 19.470    661.000    646.597     14.403    642.839    643.801    645.635    642.839    642.839
 19.570    637.346    646.081     -8.735    642.212    643.213    645.079    642.212    642.212
 19.670    660.000    645.552     14.448    641.589    642.621    644.520    641.589    641.589
 19.770    652.093    645.010      7.083    640.971    642.015    643.967    640.971    640.971
 19.870    631.628    644.475    -12.847    640.358    641.414    643.420    640.358    640.358
 19.970    599.000    643.947    -44.947    639.750    640.816    642.881    639.750    639.750
 20.070    673.550    643.430     30.121    639.147    640.226    642.350    639.147    639.147
 20.170    683.009    642.961     40.048    638.548    639.663    641.846    638.548    638.548
 20.270    653.000    642.486     10.514    637.954    639.104    641.337    637.954    637.954
 20.370    613.000    642.041    -29.041    637.365    638.578    640.829    637.365    637.365
 20.470    651.000    641.589      9.411    636.781    638.042    640.327    636.781    636.781
 20.570    614.000    641.115    -27.115    636.202    637.484    639.833    636.202    636.202
 20.670    647.512    640.674      6.839    635.627    636.954    639.347    635.627    635.627
 20.770    629.000    640.246    -11.246    635.057    636.433    638.869    635.057    635.057
 20.870    573.000    639.813    -66.813    634.491    635.905    638.399    634.491    634.491
 20.970    614.000    639.371    -25.371    633.930    635.365    637.937    633.930    633.930
 21.070    635.000    638.939     -3.939    633.374    634.830    637.483    633.374    633.374
 21.170    622.000    638.527    -16.527    632.823    634.307    637.043    632.823    632.823
 21.270    656.915    638.125     18.790    632.276    633.790    636.610    632.276    632.276
 21.370    629.200    637.725     -8.525    631.734    633.275    636.184    631.734    631.734
 21.470    638.000    637.346      0.654    631.196    632.776    635.767    631.196    631.196
 21.570    640.000    636.970      3.030    630.663    632.274    635.359    630.663    630.663
 21.670    586.596    636.602    -50.005    630.134    631.776    634.960    630.134    630.134
 21.770    685.982    636.245     49.736    629.610    631.284    634.572    629.610    629.610
 21.870    606.000    635.902    -29.902    629.091    630.798    634.195    629.091    629.091
 21.970    559.000    635.571    -76.571    628.576    630.320    633.828    628.576    628.576
 22.070    638.000    635.256      2.744    628.066    629.850    633.472    628.066    628.066
 22.170    629.243    634.956     -5.713    627.560    629.388    633.127    627.560    627.560
 22.270    593.547    634.670    -41.123    627.058    628.933    632.795    627.058    627.058
 22.370    622.000    634.401    -12.401    626.561    628.486    632.475    626.561    626.561
 22.470    612.000    634.151    -22.151    626.068    628.051    632.168    626.068    626.068
 22.570    646.000    633.918     12.082    625.580    627.624    631.875    625.580    625.580
 22.670    666.000    633.706     32.294    625.096    627.207    631.595    625.096    625.096
 22.770    664.000    633.521     30.479    624.617    626.806    631.332    624.617    624.617
 22.870    628.000    633.357     -5.357    624.141    626.415    631.083    624.141    624.141
 22.970    597.086    633.217    -36.131    623.671    626.037    630.850    623.671    623.671
 23.070    595.230    633.105    -37.876    623.204    625.676    630.634    623.204    623.204
 23.170    606.000    633.026    -27.026    622.742    625.332    630.436    622.742    622.742
 23.270    591.000    632.983    -41.983    622.284    625.011    630.256    622.284    622.284
 23.370    638.407    632.982      5.425    621.830    624.715    630.097    621.830    621.830
 23.470    630.802    633.028     -2.226    621.381    624.450    629.960    621.381    621.381
 23.570    606.028    633.130    -27.102    620.936    624.223    629.844    620.936    620.936
 23.670    637.000    633.298      3.702    620.495    624.042    629.752    620.495    620.495
 23.770    636.000    633.546      2.454    620.058    623.920    629.685    620.058    620.058
 23.870    652.556    633.894     18.662    619.626    623.876    629.645    619.626    619.626
 23.970    572.000    634.370    -62.370    619.198    623.934    629.635    619.198    619.198
 24.070    638.000    635.019      2.981    618.773    624.138    629.656    618.773    618.773
 24.170    595.655    635.919    -40.265    618.353    624.564    629.711    618.353    618.353
 24.270    620.000    637.240    -17.240    617.937    625.378    629.803    617.937    617.937
 24.370    694.000    639.343     54.657    617.526    626.939    629.935    617.526    617.526
 24.470    653.238    642.957     10.281    617.118    629.974    630.108    617.118    617.118
 24.570    599.431    649.284    -49.854    616.714    635.682    630.329    616.714    616.714
 24.670    707.041    659.770     47.271    616.315    645.504    630.600    616.315    616.315
 24.770    711.780    675.230     36.550    615.919    660.252    630.927    615.919    615.919
 24.870    669.000    694.236    -25.236    615.528    678.492    631.315    615.528    615.528
 24.970    676.506    711.193    -34.687    615.141    694.617    631.771    615.141    615.141
 25.070    684.721    717.123    -32.403    614.757    699.638    632.302    614.757    614.757
 25.170    700.000    707.959     -7.959    614.378    689.474    632.915    614.378    614.378
 25.270    663.328    690.485    -27.158    614.002    670.906    633.620    614.002    614.002
 25.370    649.000    673.455    -24.455    613.631    652.683    634.429    613.631    613.631
 25.470    651.000    660.974     -9.974    613.263    638.900    635.352    613.263    613.263
 25.570    623.000    653.479    -30.479    612.899    629.981    636.407    612.899    612.899
 25.670    710.000    649.792     60.208    612.539    624.729    637.608    612.539    612.539
 25.770    647.000    648.495     -1.495    612.184    621.705    638.977    612.184    612.184
 25.870    673.000    648.562     24.438    611.831    619.857    640.538    611.831    611.831
 25.970    638.000    649.440    -11.440    611.483    618.606    642.319    611.483    611.483
 26.070    667.000    650.892     16.108    611.139    617.677    644.354    611.139    611.139
 26.170    693.574    652.838     40.736    610.798    616.950    646.686    610.798    610.798
 26.270    648.344    655.275     -6.931    610.461    616.368    649.368    610.461    610.461
 26.370    622.000    658.226    -36.226    610.128    615.900    652.454    610.128    610.128
 26.470    691.625    661.749     29.876    609.799    615.523    656.023    609.799    609.799
 26.570    673.040    665.927      7.113    609.474    615.227    660.172    609.474    609.474
 26.670    636.044    670.878    -34.834    609.152    615.007    665.021    609.152    609.152
 26.770    639.075    676.758    -37.684    608.834    614.863    670.726    608.834    608.834
 26.870    678.000    683.770     -5.770    608.520    614.800    677.486    608.520    608.520
 26.970    681.163    692.187    -11.024    608.209    614.826    685.565    608.209    608.209
 27.070    682.000    702.374    -20.374    607.902    614.954    695.316    607.902    607.902
 27.170    676.000    714.832    -38.832    607.599    615.205    707.219    607.599    607.599
 27.270    756.199    730.256     25.943    607.299    615.609    721.938    607.299    607.299
 27.370    757.000    749.640      7.360    607.003    616.209    740.423    607.003    607.003
 27.470    780.000    774.458      5.542    606.710    617.074    764.081    606.710    606.710
 27.570    821.865    807.063     14.802    606.422    618.308    795.159    606.422    606.422
 27.670    848.615    852.201     -3.586    606.136    620.124    838.190    606.136    606.136
 27.770    955.000    922.837     32.163    605.854    623.103    905.555    605.854    605.854
 27.870   1032.000   1059.068    -27.068    605.576    629.033   1035.552    605.576    605.576
 27.970   1323.708   1369.590    -45.883    605.301    642.756   1332.009    605.301    605.301
 28.070   1977.120   2072.551    -95.431    605.030    673.985   2003.320    605.030    605.030
 28.170   3356.620   3435.061    -78.442    604.763    734.616   3304.664    604.763    604.763
 28.270   5396.000   5502.448   -106.448    604.498    826.700   5279.372    604.498    604.498
 28.370   7608.780   7722.088   -113.308    604.237    925.733   7399.514    604.237    604.237
 28.470   8921.000   8893.728     27.272    603.980    978.522   8518.282    603.980    603.980
 28.570   8169.000   8179.626    -10.626    603.726    948.267   7834.701    603.726    603.726
 28.670   6509.000   6297.223    211.777    603.476    867.874   6032.874    603.476    603.476
 28.770   4604.000   4569.427     34.573    603.228    797.818   4375.024    603.228    603.228
 28.870   3714.371   3768.740    -54.369    602.985    774.057   3597.795    602.985    602.985
 28.970   4009.851   3925.456     84.395    602.744    797.721   3730.518    602.744    602.744
 29.070   4619.000   4552.964     66.036    602.507    842.915   4312.595    602.507    602.507
 29.170   4981.000   4923.997     57.003    602.273    868.543   4657.890    602.273    602.273
 29.270   4551.023   4543.335      7.689    602.043    846.053   4299.655    602.043    602.043
 29.370   3560.000   3597.302    -37.302    601.815    787.897   3411.615    601.815    601.815
 29.470   2434.000   2573.474   -139.474    601.592    724.675   2450.723    601.592    601.592
 29.570   1677.000   1783.653   -106.653    601.371    675.878   1709.370    601.371    601.371
 29.670   1371.000   1293.895     77.105    601.153    645.665   1249.512    601.153    601.153
 29.770    979.058   1032.323    -53.265    600.939    629.599   1003.729    600.939    600.939
 29.870    979.000    901.022     77.978    600.728    621.618    880.166    600.728    600.728
 29.970    784.887    831.427    -46.541    600.520    617.478    814.488    600.520    600.520
 30.070    843.000    789.043     53.957    600.316    615.055    774.315    600.316    600.316
 30.170    809.000    759.691     49.309    600.114    613.493    746.319    600.114    600.114
 30.270    769.215    737.906     31.308    599.916    612.491    725.335    599.916    599.916
 30.370    682.713    721.406    -38.692    599.721    611.982    709.147    599.721    599.721
 30.470    748.000    709.241     38.759    599.529    612.080    696.689    599.529    599.529
 30.570    713.000    701.457     11.543    599.339    613.175    687.618    599.339    599.339
 30.670    727.000    699.200     27.800    599.154    616.072    682.273    599.154    599.154
 30.770    712.255    704.592      7.663    598.971    621.968    681.577    598.971    598.971
 30.870    748.000    719.654     28.346    598.791    631.968    686.446    598.791    598.791
 30.970    769.000    743.950     25.050    598.614    645.965    696.551    598.614    598.614
 31.070    787.000    771.458     15.542    598.440    661.162    708.672    598.440    598.440
 31.170    810.000    789.085     20.915    598.269    671.367    715.916    598.269    598.269
 31.270    822.110    783.962     38.148    598.101    670.479    711.520    598.101    598.101
 31.370    742.733    756.974    -14.241    597.937    658.958    695.903    597.937    597.937
 31.470    774.982    721.412     53.570    597.775    643.182    675.972    597.775    597.775
 31.570    750.000    689.479     60.521    597.616    629.008    658.067    597.616    597.616
 31.670    695.000    666.271     28.729    597.459    618.890    644.829    597.459    597.459
 31.770    687.000    651.570     35.430    597.306    612.743    636.126    597.306    597.306
 31.870    652.000    642.909      9.091    597.156    609.404    630.656    597.156    597.156
 31.970    663.000    637.770     25.230    597.008    607.682    627.093    597.008    597.008
 32.070    584.761    634.473    -49.712    596.864    606.785    624.548    596.864    596.864
 32.170    627.467    632.147     -4.680    596.722    606.310    622.557    596.722    596.722
 32.270    665.000    630.410     34.590    596.583    606.081    620.910    596.583    596.583
 32.370    606.234    629.101    -22.868    596.447    606.032    619.514    596.447    596.447
 32.470    654.470    628.151     26.319    596.313    606.139    618.324    596.313    596.313
 32.570    602.005    627.530    -25.524    596.183    606.397    617.314    596.183    596.183
 32.670    666.384    627.230     39.154    596.055    606.814    616.469    596.055    596.055
 32.770    671.201    627.265     43.936    595.930    607.408    615.785    595.930    595.930
 32.870    654.750    627.664     27.086    595.807    608.207    615.263    595.807    595.807
 32.970    668.000    628.482     39.518    595.687    609.257    614.911    595.687    595.687
 33.070    661.000    629.801     31.199    595.570    610.620    614.750    595.570    595.570
 33.170    691.000    631.747     59.253    595.456    612.390    614.811    595.456    595.456
 33.270    674.000    634.525     39.475    595.344    614.715    615.152    595.344    595.344
 33.370    674.000    638.500     35.500    595.235    617.855    615.878    595.235    595.235
 33.470    620.005    644.435    -24.430    595.129    622.351    617.209    595.129    595.129
 33.570    623.000    654.025    -31.025    595.025    629.401    619.644    595.025    595.025
 33.670    673.388    670.867      2.522    594.923    641.541    624.242    594.923    594.923
 33.770    758.147    701.579     56.568    594.825    663.440    632.951    594.825    594.825
 33.870    803.000    755.884     47.116    594.728    701.953    648.638    594.728    594.728
 33.970    897.407    843.696     53.710    594.635    764.074    674.226    594.635    594.635
 34.070    999.000    968.011     30.989    594.544    851.917    710.598    594.544    594.544
 34.170   1138.000   1114.486     23.514    594.455    955.376    753.525    594.455    594.455
 34.270   1190.388   1241.478    -51.090    594.369   1045.094    790.724    594.369    594.369
 34.370   1336.250   1287.176     49.074    594.285   1077.489    803.965    594.285    594.285
 34.470   1197.363   1221.195    -23.832    594.204   1031.128    784.281    594.204    594.204
 34.570   1141.059   1084.319     56.740    594.125    934.763    743.698    594.125    594.125
 34.670    911.000    938.452    -27.452    594.049    832.043    700.473    594.049    594.049
 34.770    815.000    819.870     -4.870    593.975    748.549    665.307    593.975    593.975
 34.870    786.936    738.480     48.456    593.904    691.268    641.122    593.904    593.904
 34.970    678.349    689.048    -10.699    593.834    656.512    626.374    593.834    593.834
 35.070    703.000    661.148     41.852    593.768    636.929    617.989    593.768    593.768
 35.170    621.734    645.484    -23.750    593.703    625.965    613.223    593.703    593.703
 35.270    706.000    636.076     69.924    593.641    619.403    610.314    593.641    593.641
 35.370    653.000    629.805     23.195    593.581    615.045    608.342    593.581    593.581
 35.470    655.490    625.238     30.252    593.524    611.879    606.883    593.524    593.524
 35.570    644.000    621.726     22.274    593.469    609.448    605.747    593.469    593.469
 35.670    633.000    618.944     14.056    593.416    607.522    604.838    593.416    593.416
 35.770    593.000    616.703    -23.703    593.365    605.967    604.101    593.365    593.365
 35.870    646.000    614.879     31.121    593.316    604.695    603.500    593.316    593.316
 35.970    631.000    613.383     17.617    593.270    603.643    603.010    593.270    593.270
 36.070    601.000    612.152    -11.152    593.226    602.764    602.614    593.226    593.226
 36.170    568.590    611.139    -42.549    593.184    602.025    602.298    593.184    593.184
 36.270    618.418    610.313      8.106    593.145    601.400    602.057    593.145    593.145
 36.370    605.000    609.647     -4.647    593.107    600.870    601.884    593.107    593.107
 36.470    624.000    609.128     14.872    593.072    600.420    601.779    593.072    593.072
 36.570    577.616    608.744    -31.128    593.038    600.039    601.743    593.038    593.038
 36.670    617.000    608.492      8.508    593.007    599.719    601.780    593.007    593.007
 36.770    597.000    608.373    -11.373    592.978    599.455    601.896    592.978    592.978
 36.870    606.000    608.398     -2.398    592.951    599.244    602.105    592.951    592.951
 36.970    608.000    608.583     -0.583    592.926    599.086    602.424    592.926    592.926
 37.070    598.461    608.958    -10.496    592.903    598.986    602.876    592.903    592.903
 37.170    619.000    609.576      9.424    592.883    598.960    603.499    592.883    592.883
 37.270    624.838    610.536     14.301    592.864    599.046    604.354    592.864    592.864
 37.370    589.000    612.029    -23.029    592.847    599.321    605.555    592.847    592.847
 37.470    669.000    614.423     54.577    592.832    599.921    607.334    592.832    592.832
 37.570    667.513    618.402     49.112    592.819    601.036    610.185    592.819    592.819
 37.670    626.000    625.119      0.881    592.808    602.860    615.068    592.808    592.808
 37.770    622.000    636.271    -14.271    592.799    605.473    623.598    592.799    592.799
 37.870    649.304    653.826     -4.522    592.792    608.668    637.950    592.792    592.792
 37.970    705.488    679.126     26.362    592.787    611.741    660.172    592.787    592.787
 38.070    676.000    711.488    -35.488    592.784    613.507    690.765    592.784    592.784
 38.170    714.351    747.043    -32.692    592.782    613.116    726.710    592.782    592.782
 38.270    733.606    777.531    -43.925    592.783    610.939    759.379    592.783    592.783
 38.370    785.507    790.381     -4.874    592.785    607.982    775.192    592.785    592.785
 38.470    774.000    777.553     -3.553    592.789    605.029    765.325    592.789    592.789
 38.570    698.198    745.350    -47.153    592.795    602.530    735.629    592.795    592.795
 38.670    651.904    707.342    -55.437    592.803    600.666    699.491    592.803    592.803
 38.770    639.000    673.553    -34.553    592.812    599.403    666.972    592.812    592.812
 38.870    608.000    648.156    -40.156    592.823    598.601    642.385    592.823    592.823
 38.970    661.000    631.239     29.761    592.836    598.109    625.971    592.836    592.836
 39.070    610.072    620.904    -10.832    592.851    597.811    615.947    592.851    592.851
 39.170    662.000    614.853     47.147    592.867    597.629    610.094    592.867    592.867
 39.270    662.254    611.262     50.992    592.886    597.515    606.634    592.886    592.886
 39.370    620.000    608.986     11.014    592.905    597.444    604.448    592.905    592.905
 39.470    614.000    607.414      6.586    592.927    597.403    602.938    592.927    592.927
 39.570    629.000    606.250     22.750    592.950    597.385    601.816    592.950    592.950
 39.670    598.000    605.350     -7.350    592.975    597.384    600.941    592.975    592.975
 39.770    609.000    604.638      4.362    593.001    597.399    600.241    593.001    593.001
 39.870    579.000    604.066    -25.066    593.029    597.426    599.671    593.029    593.029
 39.970    611.000    603.604      7.396    593.059    597.462    599.201    593.059    593.059
 40.070    608.000    603.236      4.764    593.090    597.515    598.811    593.090    593.090
 40.170    602.000    602.942     -0.942    593.123    597.580    598.485    593.123    593.123
 40.270    581.000    602.710    -21.710    593.157    597.657    598.211    593.157    593.157
 40.370    594.000    602.530     -8.530    593.193    597.745    597.979    593.193    593.193
 40.470    634.000    602.397     31.603    593.231    597.846    597.783    593.231    593.231
 40.570    599.000    602.306     -3.306    593.270    597.959    597.617    593.270    593.270
 40.670    592.682    602.252     -9.571    593.310    598.086    597.476    593.310    593.310
 40.770    598.558    602.234     -3.676    593.352    598.229    597.358    593.352    593.352
 40.870    559.384    602.251    -42.866    593.395    598.389    597.258    593.395    593.395
 40.970    665.000    602.302     62.698    593.440    598.568    597.175    593.440    593.440
 41.070    654.000    602.389     51.611    593.486    598.769    597.107    593.486    593.486
 41.170    559.662    602.514    -42.851    593.534    598.996    597.053    593.534    593.534
 41.270    561.595    602.679    -41.085    593.583    599.253    597.010    593.583    593.583
 41.370    651.906    602.891     49.015    593.633    599.546    596.980    593.633    593.633
 41.470    634.000    603.157     30.843    593.685    599.884    596.959    593.685    593.685
 41.570    613.000    603.485      9.515    593.738    600.275    596.949    593.738    593.738
 41.670    559.000    603.890    -44.890    593.793    600.735    596.949    593.793    593.793
 41.770    589.000    604.391    -15.391    593.849    601.282    596.960    593.849    593.849
 41.870    599.000    605.021     -6.021    593.906    601.947    596.981    593.906    593.906
 41.970    637.532    605.832     31.700    593.964    602.783    597.015    593.964    593.964
 42.070    582.000    606.932    -24.932    594.024    603.893    597.065    594.024    594.024
 42.170    576.000    608.534    -32.534    594.085    605.483    597.140    594.085    594.085
 42.270    596.000    611.052    -15.052    594.147    607.950    597.254    594.147    594.147
 42.370    641.000    615.200     25.800    594.211    611.981    597.435    594.211    594.211
 42.470    629.362    622.024      7.338    594.275    618.584    597.724    594.275    594.275
 42.570    617.000    632.740    -15.740    594.341    628.929    598.167    594.341    594.341
 42.670    663.000    648.261     14.739    594.408    643.892    598.798    594.408    594.408
 42.770    705.424    668.430     36.994    594.476    663.325    599.612    594.476    594.476
 42.870    690.000    691.068     -1.068    594.546    685.131    600.525    594.546    594.546
 42.970    673.000    711.062    -38.062    594.616    704.392    601.339    594.616    594.616
 43.070    723.000    721.023      1.977    594.688    714.001    601.770    594.688    594.688
 43.170    711.479    716.161     -4.682    594.761    709.350    601.632    594.761    594.761
 43.270    701.000    699.112      1.888    594.835    692.973    601.027    594.835    594.835
 43.370    699.000    676.987     22.013    594.910    671.710    600.229    594.910    594.910
 43.470    652.000    655.839     -3.839    594.986    651.384    599.472    594.986    594.986
 43.570    592.910    638.804    -45.894    595.063    635.013    598.876    595.063    595.063
 43.670    592.000    626.658    -34.658    595.142    623.343    598.471    595.142    595.142
 43.770    641.513    618.780     22.733    595.221    615.777    598.233    595.221    595.221
 43.870    573.228    614.004    -40.775    595.301    611.193    598.118    595.301    595.301
 43.970    681.000    611.196     69.804    595.382    608.502    598.081    595.382    595.382
 44.070    647.000    609.525     37.475    595.465    606.903    598.091    595.465    595.465
 44.170    570.000    608.481    -38.481    595.548    605.905    598.127    595.548    595.548
 44.270    614.000    607.789      6.211    595.632    605.244    598.180    595.632    595.632
 44.370    621.245    607.311     13.935    595.717    604.787    598.243    595.717    595.717
 44.470    563.418    606.976    -43.558    595.803    604.466    598.315    595.803    595.803
 44.570    602.000    606.746     -4.746    595.890    604.245    598.393    595.890    595.890
 44.670    633.000    606.599     26.401    595.978    604.101    598.477    595.978    595.978
 44.770    612.610    606.518      6.092    596.067    604.019    598.567    596.067    596.067
 44.870    640.000    606.491     33.509    596.157    603.988    598.661    596.157    596.157
 44.970    635.719    606.511     29.208    596.247    603.999    598.760    596.247    596.247
 45.070    589.128    606.571    -17.443    596.339    604.047    598.863    596.339    596.339
 45.170    604.000    606.666     -2.666    596.431    604.126    598.971    596.431    596.431
 45.270    645.842    606.793     39.049    596.524    604.234    599.083    596.524    596.524
 45.370    589.000    606.950    -17.950    596.618    604.368    599.200    596.618    596.618
 45.470    613.432    607.134      6.299    596.713    604.526    599.321    596.713    596.713
 45.570    683.000    607.344     75.656    596.808    604.706    599.446    596.808    596.808
 45.670    630.000    607.581     22.419    596.904    604.909    599.577    596.904    596.904
 45.770    605.000    607.844     -2.844    597.001    605.133    599.712    597.001    597.001
 45.870    617.000    608.134      8.866    597.099    605.380    599.852    597.099    597.099
 45.970    642.970    608.451     34.519    597.197    605.649    599.998    597.197    597.197
 46.070    653.000    608.797     44.203    597.296    605.943    600.150    597.296    597.296
 46.170    558.000    609.174    -51.174    597.396    606.262    600.308    597.396    597.396
 46.270    667.000    609.586     57.414    597.497    606.608    600.474    597.497    597.497
 46.370    606.362    610.034     -3.672    597.598    606.985    600.646    597.598    597.598
 46.470    643.000    610.525     32.475    597.700    607.396    600.827    597.700    597.700
 46.570    652.000    611.062     40.938    597.802    607.846    601.018    597.802    597.802
 46.670    620.000    611.654      8.346    597.905    608.340    601.218    597.905    597.905
 46.770    611.000    612.310     -1.310    598.009    608.887    601.431    598.009    598.009
 46.870    656.000    613.041     42.959    598.114    609.495    601.657    598.114    598.114
 46.970    595.000    613.865    -18.865    598.218    610.182    601.900    598.218    598.218
 47.070    625.863    614.809     11.054    598.324    610.969    602.162    598.324    598.324
 47.170    635.919    615.921     19.998    598.430    611.898    602.450    598.430    598.430
 47.270    635.749    617.288     18.461    598.537    613.047    602.775    598.537    598.537
 47.370    580.794    619.074    -38.280    598.644    614.558    603.156    598.644    598.644
 47.470    587.146    621.567    -34.421    598.751    616.687    603.626    598.751    598.751
 47.570    679.914    625.222     54.692    598.860    619.835    604.239    598.860    598.860
 47.670    589.000    630.660    -41.660    598.968    624.551    605.067    598.968    598.968
 47.770    650.789    638.562     12.227    599.077    631.436    606.188    599.077    599.077
 47.870    673.000    649.429     23.571    599.187    640.932    607.661    599.187    599.187
 47.970    636.000    663.215    -27.215    599.297    652.997    609.485    599.297    599.297
 48.070    670.603    678.882     -8.278    599.408    666.707    611.542    599.408    599.408
 48.170    718.000    693.985     24.015    599.519    679.896    613.558    599.519    599.519
 48.270    713.413    704.744      8.668    599.630    689.212    615.108    599.630    599.630
 48.370    741.000    707.627     33.373    599.742    691.520    615.795    599.742    599.742
 48.470    666.000    702.050    -36.050    599.854    686.298    615.558    599.854    599.854
 48.570    614.000    690.997    -76.997    599.966    676.181    614.743    599.966    599.966
 48.670    712.000    678.546     33.454    600.079    664.772    613.823    600.079    600.079
 48.770    689.707    667.671     22.036    600.192    654.693    613.148    600.192    600.192
 48.870    644.000    659.856    -15.856    600.306    647.246    612.901    600.306    600.306
 48.970    656.897    655.485      1.412    600.420    642.750    613.143    600.420    600.420
 49.070    645.000    654.298     -9.298    600.534    640.952    613.872    600.534    600.534
 49.170    665.000    655.808      9.192    600.649    641.386    615.064    600.649    600.649
 49.270    618.000    659.616    -41.616    600.763    643.646    616.727    600.763    600.763
 49.370    701.000    665.662     35.338    600.879    647.590    618.944    600.879    600.879
 49.470    709.511    674.534     34.977    600.994    653.550    621.970    600.994    600.994
 49.570    681.307    688.102     -6.795    601.109    662.760    626.442    601.109    601.109
 49.670    716.000    710.874      5.126    601.225    678.266    633.820    601.225    601.225
 49.770    779.000    752.259     26.741    601.341    706.454    647.122    601.341    601.341
 49.870    815.000    829.196    -14.196    601.458    758.841    671.769    601.458    601.458
 49.970    923.000    967.094    -44.094    601.574    852.719    715.872    601.574    601.574
 50.070   1188.000   1195.459     -7.459    601.691   1008.274    788.753    601.691    601.691
 50.170   1480.000   1536.324    -56.324    601.807   1240.251    897.703    601.807    601.807
 50.270   1868.000   1984.133   -116.133    601.924   1544.973   1040.861    601.924    601.924
 50.370   2422.000   2487.812    -65.812    602.042   1887.743   1201.871    602.042    602.042
 50.470   2962.000   2943.327     18.673    602.159   2197.820   1347.467    602.159    602.159
 50.570   3153.778   3213.900    -60.122    602.276   2382.186   1433.895    602.276    602.276
 50.670   3113.000   3197.176    -84.176    602.394   2371.227   1428.385    602.394    602.394
 50.770   3022.000   2901.116    120.884    602.511   2170.372   1333.409    602.511    602.511
 50.870   2453.823   2436.896     16.927    602.629   1855.312   1184.419    602.629    602.629
 50.970   1943.000   1939.876      3.124    602.747   1518.247   1024.579    602.747    602.747
 51.070   1463.000   1508.578    -45.578    602.864   1226.343    885.267    602.864    602.864
 51.170   1152.000   1188.444    -36.444    602.982   1010.625    780.925    602.982    602.982
 51.270    970.000    980.848    -10.848    603.100    872.026    712.007    603.100    603.100
 51.370    928.000    861.942     66.058    603.218    794.120    671.098    603.218    603.218
 51.470    861.405    800.909     60.496    603.336    755.447    648.843    603.336    603.336
 51.570    788.000    771.201     16.799    603.454    737.120    637.573    603.454    603.454
 51.670    775.255    754.622     20.633    603.572    725.819    632.408    603.572    603.572
 51.770    700.249    741.657    -41.408    603.690    714.565    630.809    603.690    603.690
 51.870    757.315    729.679     27.636    603.808    701.883    631.624    603.808    603.808
 51.970    718.596    719.360     -0.764    603.925    689.051    634.247    603.925    603.925
 52.070    726.000    711.624     14.376    604.043    677.621    638.051    604.043    604.043
 52.170    665.549    706.449    -40.901    604.161    668.524    642.085    604.161    604.161
 52.270    714.000    702.797     11.203    604.278    662.051    645.020    604.278    604.278
 52.370    691.947    699.152     -7.205    604.396    658.043    645.498    604.396    604.396
 52.470    639.000    694.576    -55.576    604.513    656.124    642.959    604.513    604.513
 52.570    660.000    689.385    -29.385    604.631    655.908    638.102    604.631    604.631
 52.670    698.000    684.684     13.316    604.748    657.156    632.272    604.748    604.748
 52.770    708.000    681.666     26.334    604.865    659.876    626.653    604.865    604.865
 52.870    719.448    681.426     38.022    604.982    664.433    621.973    604.982    604.982
 52.970    719.000    685.143     33.857    605.098    671.720    618.521    605.098    605.098
 53.070    722.000    694.444     27.556    605.215    683.381    616.278    605.215    605.215
 53.170    742.835    711.776     31.059    605.331    702.041    615.066    605.331    605.331
 53.270    750.000    740.585      9.415    605.447    731.340    614.691    605.447    605.447
 53.370    766.820    784.985    -18.164    605.563    775.532    615.014    605.563    605.563
 53.470    827.000    848.666    -21.666    605.679    838.397    615.945    605.679    605.679
 53.570    974.000    933.054     40.946    605.795    921.520    617.325    605.795    605.795
 53.670   1015.000   1035.486    -20.486    605.910   1022.151    619.244    605.910    605.910
 53.770   1190.499   1146.274     44.225    606.025   1130.886    621.416    606.025    606.025
 53.870   1190.000   1247.214    -57.214    606.140   1229.943    623.422    606.140    606.140
 53.970   1236.784   1313.274    -76.490    606.254   1294.821    624.730    606.254    606.254
 54.070   1334.000   1322.692     11.308    606.368   1304.211    624.882    606.368    606.368
 54.170   1247.000   1271.941    -24.941    606.482   1254.661    623.802    606.482    606.482
 54.270   1152.000   1178.867    -26.867    606.596   1163.645    621.858    606.596    606.596
 54.370   1066.000   1069.299     -3.299    606.709   1056.457    619.586    606.709    606.709
 54.470    951.000    963.924    -12.924    606.822    953.361    617.414    606.822    606.822
 54.570    855.000    874.635    -19.635    606.934    866.001    615.590    606.934    606.934
 54.670    788.000    805.908    -17.908    607.047    798.765    614.205    607.047    607.047
 54.770    765.932    757.125      8.807    607.159    751.049    613.246    607.159    607.159
 54.870    739.000    724.839     14.161    607.270    719.476    612.641    607.270    607.270
 54.970    679.000    704.694    -25.694    607.381    699.783    612.297    607.381    607.381
 55.070    702.000    692.726      9.274    607.492    688.089    612.133    607.492    607.492
 55.170    689.000    685.952      3.048    607.602    681.471    612.086    607.602    607.602
 55.270    652.635    682.421    -29.787    607.712    678.020    612.116    607.712    607.712
 55.370    724.000    681.001     42.999    607.822    676.625    612.200    607.822    607.822
 55.470    674.730    681.100     -6.370    607.931    676.707    612.325    607.931    607.931
 55.570    689.000    682.452      6.548    608.039    678.005    612.488    608.039    608.039
 55.670    655.000    684.983    -29.983    608.147    680.445    612.687    608.147    608.147
 55.770    637.326    688.750    -51.424    608.255    684.080    612.926    608.255    608.255
 55.870    674.000    693.945    -19.945    608.362    689.095    613.213    608.362    608.362
 55.970    672.000    700.972    -28.972    608.469    695.882    613.560    608.469    608.469
 56.070    695.000    710.631    -15.631    608.575    705.213    613.994    608.575    608.575
 56.170    651.000    724.464    -73.464    608.681    718.580    614.565    608.681    608.681
 56.270    768.000    745.318     22.682    608.786    738.737    615.366    608.786    608.786
 56.370    765.000    778.091    -13.091    608.890    770.423    616.555    608.890    608.890
 56.470    814.000    830.433    -16.433    608.995    821.040    618.380    608.995    608.995
 56.570    873.154    912.913    -39.759    609.098    900.815    621.183    609.098    609.098
 56.670    991.340   1037.961    -46.621    609.201   1021.774    625.365    609.201    609.201
 56.770   1178.121   1216.969    -38.848    609.304   1194.945    631.296    609.304    609.304
 56.870   1531.919   1455.581     76.338    609.405   1425.789    639.159    609.405    609.405
 56.970   1743.542   1748.005     -4.463    609.507   1708.705    648.767    609.507    609.507
 57.070   2020.000   2071.624    -51.624    609.607   2021.810    659.392    609.607    609.607
 57.170   2352.000   2383.040    -31.040    609.707   2323.113    669.633    609.707    609.707
 57.270   2649.483   2619.025     30.458    609.807   2551.429    677.449    609.807    609.807
 57.370   2741.393   2713.339     28.054    609.906   2642.652    680.703    609.906    609.906
 57.470   2715.000   2634.388     80.612    610.004   2566.191    678.377    610.004    610.004
 57.570   2419.379   2409.815      9.564    610.101   2348.768    671.366    610.101    610.101
 57.670   2200.000   2104.503     95.497    610.198   2053.158    661.771    610.198    610.198
 57.770   1838.000   1782.667     55.333    610.294   1741.493    651.678    610.294    610.294
 57.870   1444.000   1489.503    -45.503    610.390   1457.503    642.566    610.390    610.390
 57.970   1205.000   1249.404    -44.404    610.485   1224.765    635.262    610.485    610.485
 58.070   1116.060   1069.735     46.325    610.579   1050.332    630.081    610.579    610.579
 58.170    950.000    946.279      3.721    610.672    929.984    627.035    610.672    610.672
 58.270    885.821    869.155     16.666    610.765    853.904    626.057    610.765    610.765
 58.370    775.332    827.807    -52.475    610.857    811.492    627.194    610.857    610.857
 58.470    782.000    814.103    -32.103    610.948    794.371    630.687    610.948    610.948
 58.570    801.928    823.313    -21.385    611.039    797.423    636.922    611.039    611.039
 58.670    821.000    853.405    -32.405    611.128    818.288    646.226    611.128    611.128
 58.770    950.873    903.404     47.469    611.218    856.023    658.567    611.218    611.218
 58.870    966.000    971.491     -5.491    611.306    909.501    673.254    611.306    611.306
 58.970    993.373   1053.338    -59.966    611.393    975.946    688.738    611.393    611.393
 59.070   1162.772   1141.155     21.617    611.480   1049.945    702.643    611.480    611.480
 59.170   1230.661   1224.486      6.174    611.566   1123.737    712.277    611.566    611.566
 59.270   1349.396   1293.560     55.836    611.651   1189.413    715.776    611.651    611.651
 59.370   1366.285   1342.339     23.946    611.735   1241.017    713.054    611.735    611.735
 59.470   1362.000   1367.546     -5.546    611.819   1273.927    705.453    611.819    611.819
 59.570   1352.093   1366.992    -14.899    611.901   1284.223    694.701    611.901    611.901
 59.670   1318.677   1342.343    -23.666    611.983   1271.953    682.412    611.983    611.983
 59.770   1319.000   1302.739     16.261    612.064   1244.764    670.074    612.064    612.064
 59.870   1212.078   1262.497    -50.419    612.144   1215.754    658.905    612.144    612.144
 59.970   1228.000   1235.124     -7.124    612.223   1197.737    649.596    612.223    612.223
 60.070   1221.664   1229.567     -7.903    612.302   1199.521    642.294    612.302    612.302
 60.170   1272.000   1250.120     21.880    612.379   1225.616    636.784    612.379    612.379
 60.270   1332.000   1297.842     34.158    612.456   1277.415    632.733    612.456    612.456
 60.370   1445.000   1370.343     74.657    612.532   1352.841    629.836    612.532    612.532
 60.470   1522.000   1459.132     62.868    612.606   1443.652    627.845    612.606    612.606
 60.570   1500.339   1547.331    -46.993    612.680   1533.181    626.561    612.680    612.680
 60.670   1574.000   1610.700    -36.700    612.753   1597.351    625.825    612.753    612.753
 60.770   1578.074   1624.560    -46.486    612.825   1611.605    625.523    612.825    612.825
 60.870   1656.000   1576.650     79.350    612.896   1563.756    625.578    612.896    612.896
 60.970   1436.960   1475.248    -38.288    612.966   1462.114    625.942    612.966    612.966
 61.070   1410.651   1342.690     67.960    613.036   1329.020    626.597    613.036    613.036
 61.170   1196.000   1202.989     -6.989    613.104   1188.461    627.563    613.104    613.104
 61.270   1012.000   1074.722    -62.722    613.171   1058.940    628.911    613.171    613.171
 61.370    959.000    969.376    -10.376    613.237    951.775    630.812    613.237    613.237
 61.470    860.000    892.130    -32.130    613.303    871.826    633.587    613.303    613.303
 61.570    886.000    843.768     42.232    613.367    819.315    637.798    613.367    613.367
 61.670    892.000    823.102     68.898    613.430    792.168    644.335    613.430    613.430
 61.770    834.775    829.181      5.593    613.493    788.155    654.476    613.493    613.493
 61.870    877.000    862.582     14.418    613.554    806.228    669.846    613.554    613.554
 61.970    926.000    925.394      0.606    613.614    846.720    692.199    613.614    613.614
 62.070   1034.000   1019.901     14.099    613.674    910.461    722.992    613.674    613.674
 62.170   1145.000   1146.327     -1.327    613.732    997.134    762.765    613.732    613.732
 62.270   1315.564   1300.251     15.314    613.789   1103.388    810.453    613.789    613.789
 62.370   1486.446   1470.368     16.078    613.845   1221.186    862.794    613.845    613.845
 62.470   1657.374   1637.127     20.247    613.900   1336.803    913.970    613.900    613.900
 62.570   1703.623   1773.339    -69.717    613.954   1431.213    955.826    613.954    613.954
 62.670   1782.000   1849.502    -67.502    614.007   1483.790    979.488    614.007    614.007
 62.770   1765.000   1845.603    -80.603    614.059   1480.538    978.938    614.059    614.059
 62.870   1703.000   1762.539    -59.539    614.110   1422.058    954.456    614.110    614.110
 62.970   1649.000   1621.474     27.526    614.159   1323.111    912.435    614.159    614.159
 63.070   1413.000   1451.942    -38.942    614.208   1204.309    861.791    614.208    614.208
 63.170   1245.000   1280.491    -35.491    614.255   1084.180    810.541    614.255    614.255
 63.270   1083.000   1125.783    -42.783    614.302    975.750    764.324    614.302    614.302
 63.370    991.000    998.078     -7.078    614.347    886.179    726.242    614.347    614.347
 63.470    845.062    900.486    -55.424    614.391    817.635    697.240    614.391    614.391
 63.570    791.000    831.008    -40.008    614.434    768.719    676.719    614.434    614.434
 63.670    787.846    784.829      3.017    614.476    736.069    663.230    614.476    614.476
 63.770    806.918    756.376     50.542    614.517    715.793    655.091    614.517    614.517
 63.870    744.000    740.836      3.164    614.556    704.534    650.848    614.556    614.556
 63.970    772.123    734.816     37.307    614.594    699.912    649.485    614.594    614.594
 64.070    809.000    736.673     72.327    614.632    700.741    650.547    614.632    614.632
 64.170    738.000    746.453     -8.453    614.668    706.939    654.159    614.668    614.668
 64.270    791.000    765.673     25.327    614.702    719.315    661.031    614.702    614.702
 64.370    760.000    796.995    -36.995    614.736    739.262    672.429    614.736    614.736
 64.470    867.000    843.703     23.297    614.769    768.338    690.079    614.769    614.769
 64.570    901.000    908.919     -7.919    614.800    807.719    715.925    614.800    614.800
 64.670   1017.000    994.531     22.469    614.830    857.562    751.700    614.830    614.830
 64.770   1046.795   1099.915    -53.120    614.859    916.348    798.302    614.859    614.859
 64.870   1281.138   1220.635     60.503    614.886    980.281    855.091    614.886    614.886
 64.970   1417.240   1347.377     69.864    614.913   1042.891    919.228    614.913    614.913
 65.070   1475.558   1465.746      9.811    614.938   1095.299    985.204    614.938    614.938
 65.170   1539.112   1558.073    -18.961    614.962   1128.142   1044.715    614.962    614.962
 65.270   1540.100   1607.855    -67.754    614.985   1135.228   1087.452    614.985    614.985
 65.370   1522.000   1605.358    -83.358    615.006   1116.396   1103.843    615.006    615.006
 65.470   1537.000   1551.759    -14.759    615.027   1077.127   1089.574    615.027    615.027
 65.570   1428.952   1459.149    -30.197    615.046   1025.877   1048.273    615.046    615.046
 65.670   1325.000   1345.346    -20.346    615.063    971.147    989.252    615.063    615.063
 65.770   1254.266   1227.271     26.995    615.080    919.429    922.937    615.080    615.080
 65.870   1143.000   1117.112     25.888    615.095    874.374    857.864    615.095    615.095
 65.970    986.000   1021.565    -35.565    615.109    836.943    799.772    615.109    615.109
 66.070    988.000    942.772     45.228    615.121    806.248    751.688    615.121    615.121
 66.170    831.000    880.053    -49.053    615.133    780.831    714.395    615.133    615.133
 66.270    813.000    831.533    -18.533    615.143    759.640    687.069    615.143    615.143
 66.370    822.000    794.983     27.017    615.152    742.176    667.986    615.152    615.152
 66.470    743.000    768.129    -25.129    615.159    728.169    655.139    615.159    615.159
 66.570    704.000    748.875    -44.875    615.165    717.380    646.673    615.165    615.165
 66.670    739.795    735.496      4.300    615.170    709.570    641.105    615.170    615.170
 66.770    699.000    726.708    -27.708    615.174    704.518    637.369    615.174    615.174
 66.870    727.000    721.629      5.371    615.176    702.040    634.768    615.176    615.176
 66.970    732.148    719.717     12.431    615.177    702.020    632.876    615.177    615.177
 67.070    742.095    720.756     21.340    615.176    704.481    631.453    615.176    615.176
 67.170    680.000    724.913    -44.913    615.174    709.716    630.373    615.174    615.174
 67.270    741.371    732.888      8.482    615.171    718.478    629.584    615.171    615.171
 67.370    703.000    746.123    -43.123    615.167    732.207    629.085    615.167    615.167
 67.470    770.534    767.060      3.474    615.161    753.302    628.920    615.161    615.161
 67.570    812.000    799.378     12.622    615.154    785.354    629.177    615.154    615.154
 67.670    835.700    848.078    -12.378    615.145    833.233    629.987    615.145    615.145
 67.770    896.000    919.261    -23.261    615.135    902.876    631.516    615.135    615.135
 67.870   1076.142   1019.419     56.723    615.124   1000.597    633.941    615.124    615.124
 67.970   1080.000   1154.155    -74.155    615.111   1131.845    637.418    615.111    615.111
 68.070   1326.000   1326.400     -0.400    615.097   1299.475    642.025    615.097    615.097
 68.170   1516.099   1534.390    -18.291    615.082   1501.782    647.706    615.082    615.082
 68.270   1728.000   1769.747    -41.747    615.065   1730.639    654.213    615.065    615.065
 68.370   1894.000   2015.987   -121.987    615.047   1970.045    661.063    615.047    615.047
 68.470   2263.000   2247.821     15.179    615.027   2195.449    667.521    615.027    615.027
 68.570   2455.000   2432.589     22.411    615.006   2375.139    672.637    615.006    615.006
 68.670   2435.911   2536.574   -100.662    614.984   2476.371    675.429    614.984    614.984
 68.770   2517.000   2537.176    -20.176    614.960   2477.192    675.241    614.960    614.960
 68.870   2379.000   2434.221    -55.221    614.935   2377.421    672.065    614.935    614.935
 68.970   2204.719   2250.060    -45.341    614.909   2198.757    666.547    614.909    614.909
 69.070   2017.010   2018.355     -1.345    614.881   1973.891    659.662    614.881    614.881
 69.170   1867.000   1771.839     95.161    614.851   1734.614    652.358    614.851    614.851
 69.270   1565.375   1535.911     29.464    614.821   1505.598    645.371    614.821    614.821
 69.370   1331.000   1327.166      3.834    614.788   1302.964    639.182    614.788    614.788
 69.470   1188.890   1154.071     34.819    614.755   1134.939    634.034    614.755    614.755
 69.570   1021.000   1018.455      2.545    614.720   1003.302    629.982    614.720    614.720
 69.670    929.000    917.420     11.580    614.683    905.242    626.940    614.683    614.683
 69.770    895.000    845.365     49.635    614.645    835.321    624.745    614.645    614.645
 69.870    782.000    795.770    -13.770    614.606    787.207    623.207    614.606    614.606
 69.970    719.050    762.474    -43.424    614.565    754.918    622.148    614.565    614.565
 70.070    813.000    740.386     72.614    614.523    733.514    621.414    614.523    614.523
 70.170    677.115    725.716    -48.601    614.479    719.303    620.906    614.479    614.479
 70.270    729.000    715.848     13.152    614.434    709.748    620.544    614.434    614.434
 70.370    718.000    709.106      8.894    614.387    703.222    620.278    614.387    614.387
 70.470    665.506    704.481    -38.975    614.339    698.746    620.079    614.339    614.339
 70.570    779.000    701.400     77.600    614.290    695.761    619.931    614.290    614.290
 70.670    664.785    699.564    -34.780    614.239    693.979    619.826    614.239    614.239
 70.770    721.000    698.856     22.144    614.186    693.282    619.760    614.186    614.186
 70.870    717.235    699.295     17.940    614.132    693.690    619.736    614.132    614.132
 70.970    685.000    701.048    -16.048    614.077    695.361    619.761    614.077    614.077
 71.070    700.000    704.475     -4.475    614.020    698.640    619.850    614.020    614.020
 71.170    732.000    710.216     21.784    613.962    704.143    620.026    613.962    613.962
 71.270    680.000    719.315    -39.315    613.902    712.874    620.331    613.902    613.902
 71.370    733.000    733.363     -0.363    613.841    726.362    620.826    613.841    613.841
 71.470    734.000    754.623    -20.623    613.778    746.782    621.596    613.778    613.778
 71.570    818.000    786.082     31.918    613.714    777.005    622.757    613.714    613.714
 71.670    883.882    831.343     52.539    613.648    820.497    624.446    613.648    613.648
 71.770    929.909    894.295     35.614    613.581    880.997    626.812    613.581    613.581
 71.870   1011.000    978.490     32.510    613.513    961.921    629.992    613.513    613.513
 71.970   1138.435   1086.273     52.162    613.442   1065.522    634.076    613.442    613.442
 72.070   1201.851   1217.740    -15.889    613.371   1191.894    639.068    613.371    613.371
 72.170   1357.532   1369.713    -12.181    613.298   1337.981    644.851    613.298    613.298
 72.270   1561.000   1534.857     26.143    613.223   1496.728    651.145    613.223    613.223
 72.370   1742.000   1701.065     40.935    613.147   1656.489    657.494    613.147    613.147
 72.470   1816.000   1851.390    -35.390    613.070   1800.965    663.255    613.070    613.070
 72.570   1979.000   1965.455     13.545    612.991   1910.555    667.656    612.991    612.991
 72.670   1988.000   2023.794    -35.794    612.910   1966.532    669.959    612.910    612.910
 72.770   1956.000   2014.879    -58.879    612.828   1957.800    669.728    612.828    612.828
 72.870   1970.410   1940.545     29.866    612.744   1886.115    667.036    612.744    612.744
 72.970   1759.843   1815.009    -55.166    612.659   1765.146    662.424    612.659    612.659
 73.070   1676.000   1658.483     17.517    612.573   1614.333    656.657    612.573    612.573
 73.170   1464.713   1490.676    -25.963    612.485   1452.643    650.478    612.485    612.485
 73.270   1253.785   1327.326    -73.541    612.395   1295.232    644.468    612.395    612.395
 73.370   1151.000   1179.271    -28.271    612.304   1152.545    639.019    612.304    612.304
 73.470   1089.000   1052.691     36.309    612.212   1030.558    634.342    612.212    612.212
 73.570    895.028    949.821    -54.794    612.118    931.438    630.500    612.118    612.118
 73.670    856.000    869.898    -13.898    612.022    854.457    627.463    612.022    612.022
 73.770    838.000    810.220     27.780    611.925    797.001    625.144    611.925    611.925
 73.870    798.557    767.148     31.409    611.826    755.535    623.439    611.826    611.826
 73.970    709.000    736.906    -27.906    611.726    726.386    622.245    611.726    611.726
 74.070    690.546    716.115    -25.570    611.625    706.264    621.475    611.625    611.625
 74.170    680.000    702.063    -22.063    611.522    692.515    621.069    611.522    611.522
 74.270    713.000    692.755     20.245    611.417    683.184    620.989    611.417    611.417
 74.370    677.000    686.835     -9.835    611.311    676.928    621.221    611.311    611.311
 74.470    708.000    683.435     24.565    611.204    672.880    621.764    611.204    611.204
 74.570    697.277    682.011     15.266    611.095    670.496    622.618    611.095    611.095
 74.670    628.916    682.202    -53.286    610.984    669.425    623.774    610.984    610.984
 74.770    672.000    683.714    -11.714    610.872    669.400    625.204    610.872    610.872
 74.870    728.689    686.240     42.449    610.758    670.172    626.850    610.758    610.758
 74.970    712.000    689.400     22.600    610.643    671.454    628.619    610.643    610.643
 75.070    729.000    692.718     36.282    610.527    672.899    630.382    610.527    610.527
 75.170    700.000    695.617      4.383    610.409    674.094    631.972    610.409    610.409
 75.270    704.000    697.490      6.510    610.289    674.606    633.217    610.289    610.289
 75.370    730.000    697.866     32.134    610.168    674.094    633.987    610.168    610.168
 75.470    683.515    696.621    -13.106    610.045    672.446    634.266    610.045    610.045
 75.570    744.868    694.082     50.785    609.921    669.853    634.193    609.921    609.921
 75.670    739.000    690.936     48.064    609.796    666.738    634.031    609.796    609.796
 75.770    680.677    688.054     -7.376    609.669    663.627    634.126    609.669    609.669
 75.870    684.000    686.365     -2.365    609.540    661.058    634.869    609.540    609.540
 75.970    725.732    686.823     38.909    609.410    659.551    636.697    609.410    609.410
 76.070    635.714    690.412    -54.698    609.279    659.606    640.090    609.279    609.279
 76.170    702.317    698.131      4.186    609.145    661.704    645.569    609.145    609.145
 76.270    689.000    710.960    -21.960    609.011    666.293    653.666    609.011    609.011
 76.370    723.000    729.761     -6.761    608.875    673.749    664.864    608.875    608.875
 76.470    734.972    755.138    -20.166    608.737    684.322    679.520    608.737    608.737
 76.570    730.000    787.253    -57.253    608.598    698.057    697.749    608.598    608.598
 76.670    847.000    825.632     21.368    608.458    714.714    719.319    608.458    608.458
 76.770    894.852    868.980     25.872    608.316    733.685    743.542    608.316    608.316
 76.870    912.277    915.026     -2.748    608.173    753.930    769.188    608.173    608.173
 76.970    926.000    960.437    -34.437    608.028    773.935    794.440    608.028    608.028
 77.070    954.601   1000.856    -46.255    607.881    791.732    816.910    607.881    607.881
 77.170   1023.000   1031.284     -8.284    607.733    805.065    833.857    607.733    607.733
 77.270    982.618   1047.089    -64.471    607.584    811.850    842.732    607.584    607.584
 77.370   1050.000   1045.475      4.525    607.433    810.827    841.999    607.433    607.433
 77.470   1005.810   1026.649    -20.840    607.281    802.084    831.776    607.281    607.281
 77.570    965.000    993.720    -28.720    607.127    787.014    813.776    607.127    607.127
 77.670    943.000    951.420     -8.420    606.972    767.743    790.604    606.972    606.972
 77.770    945.000    904.661     40.339    606.815    746.474    764.968    606.815    606.815
 77.870    889.282    857.624     31.658    606.657    725.087    739.170    606.657    606.657
 77.970    846.047    813.435     32.612    606.498    704.983    714.932    606.498    606.498
 78.070    784.000    774.142      9.858    606.337    687.082    693.383    606.337    606.337
 78.170    691.801    740.821    -49.021    606.174    671.868    675.118    606.174    606.174
 78.270    720.000    713.742      6.258    606.010    659.460    660.285    606.010    606.010
 78.370    671.635    692.565    -20.930    605.845    649.705    648.700    605.845    605.845
 78.470    699.000    676.566     22.434    605.678    642.277    639.963    605.678    605.678
 78.570    641.000    664.837    -23.837    605.510    636.767    633.576    605.510    605.510
 78.670    642.000    656.446    -14.446    605.340    632.755    629.028    605.340    605.340
 78.770    655.000    650.554      4.446    605.169    629.864    625.856    605.169    605.169
 78.870    661.000    646.467     14.533    604.996    627.780    623.680    604.996    604.996
 78.970    685.000    643.655     41.345    604.822    626.265    622.210    604.822    604.822
 79.070    610.000    641.738    -31.738    604.647    625.146    621.236    604.647    604.647
 79.170    637.000    640.460     -3.460    604.470    624.308    620.620    604.470    604.470
 79.270    605.000    639.663    -34.663    604.292    623.677    620.275    604.292    604.292
 79.370    648.569    639.258      9.312    604.112    623.213    620.154    604.112    604.112
 79.470    683.410    639.210     44.200    603.931    622.897    620.242    603.931    603.931
 79.570    658.000    639.527     18.473    603.749    622.727    620.546    603.749    603.749
 79.670    599.474    640.256    -40.782    603.565    622.717    621.101    603.565    603.565
 79.770    665.052    641.489     23.563    603.380    622.888    621.977    603.380    603.380
 79.870    607.000    643.372    -36.372    603.193    623.277    623.284    603.193    603.193
 79.970    694.000    646.132     47.868    603.005    623.931    625.201    603.005    603.005
 80.070    657.000    650.101      6.899    602.815    624.911    628.000    602.815    602.815
 80.170    587.000    655.757    -68.757    602.625    626.296    632.078    602.625    602.625
 80.270    625.000    663.765    -38.765    602.432    628.191    637.997    602.432    602.432
 80.370    657.000    675.010    -18.010    602.239    630.726    646.510    602.239    602.239
 80.470    734.000    690.608     43.392    602.044    634.063    658.572    602.044    602.044
 80.570    706.000    711.884     -5.884    601.848    638.399    675.310    601.848    601.848
 80.670    781.000    740.279     40.721    601.650    643.955    697.946    601.650    601.650
 80.770    784.000    777.201      6.799    601.451    650.966    727.651    601.451    601.451
 80.870    816.000    823.812     -7.812    601.251    659.670    765.351    601.251    601.251
 80.970    976.000    880.774     95.226    601.049    670.286    811.488    601.049    601.049
 81.070    958.590    947.971     10.619    600.846    682.992    865.770    600.846    600.846
 81.170   1078.000   1024.218     53.782    600.642    697.868    926.931    600.642    600.642
 81.270   1087.840   1107.008    -19.168    600.436    714.822    992.560    600.436    600.436
 81.370   1300.000   1192.372    107.628    600.229    733.515   1059.028    600.229    600.229
 81.470   1389.000   1274.957    114.043    600.021    753.322   1121.606    600.021    600.021
 81.570   1451.000   1348.470    102.530    599.811    773.356   1174.888    599.811    599.811
 81.670   1328.679   1406.597    -77.917    599.600    792.558   1213.620    599.600    599.600
 81.770   1583.000   1444.227    138.773    599.388    809.839   1233.780    599.388    599.388
 81.870   1565.000   1458.577    106.423    599.174    824.298   1233.480    599.174    599.174
 81.970   1521.000   1449.381     71.619    598.959    835.250   1213.138    598.959    598.959
 82.070   1478.000   1418.570     59.430    598.743    842.245   1175.136    598.743    598.743
 82.170   1317.245   1369.890    -52.645    598.526    845.147   1123.353    598.526    598.526
 82.270   1327.000   1308.266     18.734    598.307    844.069   1062.600    598.307    598.307
 82.370   1225.000   1238.968    -13.968    598.087    839.246    997.911    598.087    598.087
 82.470   1194.000   1166.795     27.205    597.866    830.941    933.824    597.866    597.866
 82.570   1079.000   1095.633    -16.633    597.644    819.501    873.878    597.644    597.644
 82.670   1014.000   1028.385    -14.385    597.420    805.467    820.437    597.420    597.420
 82.770    941.000    967.020    -26.020    597.195    789.579    774.728    597.195    597.195
 82.870    919.000    912.612      6.388    596.969    772.640    737.026    596.969    596.969
 82.970    786.000    865.413    -79.413    596.741    755.342    706.888    596.741    596.741
 83.070    881.413    825.057     56.356    596.513    738.212    683.425    596.513    596.513
 83.170    776.664    790.869    -14.205    596.283    721.665    665.545    596.283    596.283
 83.270    686.000    762.140    -76.140    596.052    706.088    652.154    596.052    596.052
 83.370    697.000    738.281    -41.281    595.819    691.864    642.278    595.819    595.819
 83.470    711.000    718.846     -7.846    595.586    679.343    635.122    595.586    595.586
 83.570    703.000    703.501     -0.501    595.351    668.799    630.078    595.351    595.351
 83.670    653.000    691.983    -38.983    595.116    660.410    626.704    595.116    595.116
 83.770    720.753    684.059     36.694    594.879    654.251    624.693    594.879    594.879
 83.870    667.000    679.493    -12.493    594.640    650.298    623.832    594.640    594.640
 83.970    635.000    678.000    -43.000    594.401    648.435    623.956    594.401    594.401
 84.070    661.000    679.219    -18.219    594.161    648.445    624.914    594.161    594.161
 84.170    642.000    682.679    -40.679    593.919    650.024    626.544    593.919    593.919
 84.270    630.000    687.788    -57.788    593.676    652.779    628.648    593.676    593.676
 84.370    670.000    693.836    -23.836    593.432    656.237    630.987    593.432    593.432
 84.470    651.000    700.002    -49.002    593.187    659.860    633.279    593.187    593.187
 84.570    715.000    705.396      9.604    592.941    663.071    635.211    592.941    592.941
 84.670    711.000    709.134      1.866    592.694    665.304    636.468    592.694    592.694
 84.770    687.767    710.482    -22.715    592.446    666.086    636.785    592.446    592.446
 84.870    734.800    709.017     25.784    592.196    665.144    636.015    592.196    592.196
 84.970    678.560    704.736    -26.176    591.946    662.465    634.167    591.946    591.946
 85.070    623.000    698.038    -75.038    591.694    658.285    631.401    591.694    591.694
 85.170    643.752    689.582    -45.831    591.441    653.003    627.981    591.441    591.441
 85.270    631.675    680.123    -48.448    591.188    647.074    624.203    591.188    591.188
 85.370    650.636    670.374    -19.738    590.933    640.924    620.355    590.933    590.933
 85.470    641.000    660.952    -19.952    590.677    634.914    616.691    590.677    590.677
 85.570    601.000    652.342    -51.342    590.420    629.323    613.419    590.420    590.420
 85.670    682.391    644.899     37.492    590.163    624.339    610.706    590.163    590.163
 85.770    675.018    638.855     36.163    589.904    620.068    608.676    589.904    589.904
 85.870    595.043    634.331    -39.288    589.644    616.547    607.414    589.644    589.644
 85.970    678.477    631.362     47.116    589.383    613.753    606.978    589.383    589.383
 86.070    607.000    629.918    -22.918    589.121    611.630    607.396    589.121    589.121
 86.170    622.000    629.928     -7.928    588.858    610.102    608.669    588.858    588.858
 86.270    606.000    631.287    -25.287    588.595    609.093    610.772    588.595    588.595
 86.370    605.000    633.873    -28.873    588.330    608.537    613.646    588.330    588.330
 86.470    622.000    637.541    -15.541    588.064    608.393    617.190    588.064    588.064
 86.570    674.000    642.129     31.871    587.797    608.646    621.255    587.797    587.797
 86.670    660.000    647.451     12.549    587.530    609.313    625.638    587.530    587.530
 86.770    652.000    653.297     -1.297    587.261    610.446    630.079    587.261    587.261
 86.870    664.000    659.436      4.564    586.992    612.127    634.262    586.992    586.992
 86.970    632.051    665.620    -33.570    586.722    614.467    637.832    586.722    586.722
 87.070    704.000    671.620     32.380    586.450    617.593    640.429    586.450    586.450
 87.170    668.000    677.265     -9.265    586.178    621.644    641.746    586.178    586.178
 87.270    722.000    682.507     39.493    585.905    626.749    641.604    585.905    585.905
 87.370    674.648    687.446    -12.798    585.632    633.009    640.003    585.632    585.632
 87.470    741.000    692.300     48.700    585.357    640.473    637.111    585.357    585.357
 87.570    666.221    697.320    -31.099    585.081    649.111    633.210    585.081    585.081
 87.670    746.000    702.697     43.303    584.805    658.788    628.624    584.805    584.805
 87.770    774.000    708.483     65.517    584.528    669.249    623.662    584.528    584.528
 87.870    732.780    714.556     18.224    584.250    680.100    618.596    584.250    584.250
 87.970    714.000    720.600     -6.600    583.971    690.804    613.648    583.971    583.971
 88.070    818.000    726.117     91.883    583.692    700.690    608.992    583.692    583.692
 88.170    778.000    730.463     47.537    583.411    708.993    604.749    583.411    583.411
 88.270    728.726    732.956     -4.230    583.130    714.961    600.992    583.130    583.130
 88.370    750.000    733.040     16.960    582.849    718.011    597.745    582.849    582.849
 88.470    710.634    730.464    -19.830    582.566    717.908    594.998    582.566    582.566
 88.570    756.000    725.377     30.623    582.283    714.833    592.713    582.283    582.283
 88.670    757.000    718.268     38.732    581.999    709.329    590.837    581.999    581.999
 88.770    733.559    709.827     23.732    581.714    702.141    589.313    581.714    581.714
 88.870    646.540    700.803    -54.263    581.428    694.075    588.085    581.428    581.428
 88.970    652.000    691.915    -39.915    581.142    685.899    587.101    581.142    581.142
 89.070    668.000    683.806    -15.806    580.855    678.303    586.317    580.855    580.855
 89.170    690.467    677.012     13.456    580.568    671.855    585.696    580.568    580.568
 89.270    656.000    671.923    -15.923    580.280    666.979    585.208    580.280    580.280
 89.370    680.000    668.773     11.227    579.991    663.931    584.829    579.991    579.991
 89.470    651.000    667.618    -16.618    579.702    662.789    584.536    579.702    579.702
 89.570    649.000    668.341    -19.341    579.412    663.456    584.312    579.412    579.412
 89.670    710.608    670.668     39.940    579.121    665.676    584.138    579.121    579.121
 89.770    647.000    674.184    -27.184    578.830    669.052    583.995    578.830    578.830
 89.870    679.000    678.355      0.645    578.538    673.072    583.862    578.538    578.538
 89.970    732.000    682.558     49.442    578.246    677.135    583.718    578.246    578.246
 90.070    705.000    686.129     18.871    577.953    680.596    583.541    577.953    577.953
 90.170    739.000    688.426     50.574    577.660    682.836    583.310    577.660    577.660
 90.270    710.000    688.938     21.062    577.366    683.359    583.009    577.366    577.366
 90.370    706.589    687.379     19.210    577.071    681.887    582.629    577.071    577.071
 90.470    663.000    683.750    -20.750    576.776    678.419    582.173    576.776    576.776
 90.570    683.000    678.311      4.689    576.481    673.205    581.650    576.481    576.481
 90.670    663.000    671.492     -8.492    576.185    666.660    581.077    576.185    576.185
 90.770    714.045    663.795     50.250    575.889    659.264    580.473    575.889    575.889
 90.870    669.000    655.703     13.297    575.592    651.487    579.856    575.592    575.592
 90.970    661.000    647.643     13.357    575.295    643.737    579.241    575.295    575.295
 91.070    651.000    639.960     11.040    574.997    636.350    578.642    574.997    574.997
 91.170    625.056    632.912     -7.856    574.699    629.572    578.067    574.699    574.699
 91.270    637.000    626.672     10.328    574.400    623.572    577.524    574.400    574.400
 91.370    645.809    621.334     24.475    574.101    618.439    577.014    574.101    574.101
 91.470    582.000    616.924    -34.924    573.802    614.200    576.540    573.802    573.802
 91.570    604.754    613.420     -8.666    573.503    610.832    576.100    573.503    573.503
 91.670    625.000    610.763     14.237    573.203    608.279    575.693    573.203    573.203
 91.770    579.000    608.878    -29.878    572.903    606.470    575.315    572.903    572.903
 91.870    575.000    607.693    -32.693    572.602    605.332    574.965    572.602    572.602
 91.970    579.247    607.144    -27.897    572.301    604.806    574.639    572.301    572.301
 92.070    651.000    607.196     43.804    572.000    604.857    574.337    572.000    572.000
 92.170    593.932    607.841    -13.909    571.699    605.478    574.058    571.699    571.699
 92.270    609.000    609.108     -0.108    571.397    606.695    573.805    571.397    571.397
 92.370    591.464    611.061    -19.598    571.095    608.571    573.579    571.095    571.095
 92.470    671.000    613.801     57.199    570.793    611.201    573.384    570.793    570.793
 92.570    648.000    617.454     30.546    570.491    614.709    573.224    570.491    570.491
 92.670    630.000    622.173      7.827    570.188    619.240    573.106    570.188    570.188
 92.770    592.829    628.118    -35.289    569.886    624.952    573.034    569.886    569.886
 92.870    646.303    635.452     10.850    569.583    632.000    573.013    569.583    569.583
 92.970    674.000    644.318     29.682    569.280    640.523    573.048    569.280    569.280
 93.070    693.000    654.827     38.173    568.977    650.631    573.140    568.977    568.977
 93.170    681.450    667.041     14.409    568.674    662.385    573.290    568.674    568.674
 93.270    704.000    680.958     23.042    568.370    675.786    573.497    568.370    568.370
 93.370    677.000    696.501    -19.501    568.067    690.760    573.756    568.067    568.067
 93.470    704.000    713.506     -9.506    567.764    707.148    574.062    567.764    567.764
 93.570    787.503    731.715     55.788    567.460    724.702    574.408    567.460    567.460
 93.670    807.000    750.778     56.222    567.157    743.074    574.788    567.157    567.157
 93.770    743.799    770.260    -26.461    566.853    761.836    575.199    566.853    566.853
 93.870    793.000    789.676      3.324    566.549    780.499    575.644    566.549    566.549
 93.970    817.402    808.586      8.816    566.246    798.611    576.135    566.246    566.246
 94.070    805.000    826.711    -21.711    565.942    815.863    576.702    565.942    565.942
 94.170    856.000    843.961     12.039    565.639    832.119    577.391    565.639    565.639
 94.270    815.000    860.515    -45.515    565.336    847.488    578.272    565.336    565.336
 94.370    888.000    876.731     11.269    565.032    862.248    579.425    565.032    565.032
 94.470    824.000    893.014    -69.014    564.729    876.713    580.939    564.729    564.729
 94.570    863.000    909.667    -46.667    564.426    891.109    582.894    564.426    564.426
 94.670    923.000    926.815     -3.815    564.123    905.493    585.354    564.123    564.123
 94.770    880.224    944.389    -64.165    563.820    919.764    588.355    563.820    563.820
 94.870    921.000    962.194    -41.194    563.518    933.727    591.896    563.518    563.518
 94.970   1019.000    979.983     39.017    563.215    947.180    595.931    563.215    563.215
 95.070    969.000    997.494    -28.494    562.913    959.957    600.365    562.913    562.913
 95.170   1046.000   1014.403     31.597    562.611    971.882    605.050    562.611    562.611
 95.270   1051.000   1030.224     20.776    562.309    982.668    609.787    562.309    562.309
 95.370   1048.000   1044.217      3.783    562.007    991.819    614.332    562.007    562.007
 95.470   1054.000   1055.364     -1.364    561.706    998.596    618.408    561.706    561.706
 95.570   1106.844   1062.447     44.397    561.405   1002.074    621.719    561.405    561.405
 95.670   1165.000   1064.222    100.778    561.104   1001.287    623.989    561.104    561.104
 95.770   1057.982   1059.698     -1.716    560.804    995.462    625.000    560.804    560.804
 95.870   1090.000   1048.400     41.600    560.504    984.239    624.635    560.504    560.504
 95.970   1092.836   1030.549     62.287    560.204    967.829    622.904    560.204    560.204
 96.070   1060.000   1007.084     52.916    559.905    947.035    619.942    559.905    559.905
 96.170   1002.000    979.493     22.507    559.606    923.115    615.980    559.606    559.606
 96.270    906.258    949.587    -43.329    559.308    897.595    611.300    559.308    559.308
 96.370    960.200    919.281     40.919    559.010    872.098    606.196    559.010    559.010
 96.470    902.404    890.449     11.954    558.712    848.220    600.945    558.712    558.712
 96.570    903.000    864.839     38.161    558.415    827.468    595.788    558.415    558.415
 96.670    885.141    844.024     41.118    558.118    811.217    590.925    558.118    558.118
 96.770    867.000    829.377     37.623    557.822    800.692    586.502    557.822    557.822
 96.870    784.686    822.058    -37.373    557.527    796.955    582.619    557.527    557.527
 96.970    838.000    823.008     14.992    557.232    800.895    579.327    557.232    557.232
 97.070    844.000    832.942     11.058    556.937    813.214    576.637    556.937    556.937
 97.170    848.000    852.341     -4.341    556.643    834.415    574.532    556.643    556.643
 97.270    848.276    881.440    -33.164    556.350    864.774    572.970    556.350    556.350
 97.370    959.657    920.203     39.454    556.058    904.305    571.898    556.058    556.058
 97.470    976.000    968.280      7.720    555.766    952.720    571.258    555.766    555.766
 97.570   1071.000   1024.922     46.078    555.474   1009.333    570.986    555.474    555.474
 97.670   1156.000   1089.153     66.847    555.184   1073.228    571.023    555.184    555.184
 97.770   1121.000   1159.376    -38.376    554.894   1142.874    571.303    554.894    554.894
 97.870   1262.000   1233.567     28.433    554.605   1216.314    571.760    554.605    554.605
 97.970   1295.797   1309.188    -13.391    554.316   1291.080    572.324    554.316    554.316
 98.070   1388.000   1383.197      4.803    554.029   1364.206    572.921    554.029    554.029
 98.170   1494.000   1452.114     41.886    553.742   1432.290    573.472    553.742    553.742
 98.270   1510.000   1512.176     -2.176    553.456   1491.652    573.896    553.456    553.456
 98.370   1617.000   1559.646     57.354    553.170   1538.629    574.116    553.170    553.170
 98.470   1577.168   1591.277    -14.109    552.886   1570.045    574.064    552.886    552.886
 98.570   1620.000   1604.867     15.133    552.603   1583.738    573.696    552.603    552.603
 98.670   1539.385   1599.697    -60.312    552.320   1579.006    572.996    552.320    552.320
 98.770   1550.000   1576.677    -26.677    552.038   1556.736    571.982    552.038    552.038
 98.870   1456.311   1538.118    -81.808    551.758   1519.196    570.698    551.758    551.758
 98.970   1476.000   1487.282    -11.282    551.478   1469.584    569.207    551.478    551.478
 99.070   1395.855   1427.876    -32.021    551.199   1411.535    567.580    551.199    551.199
 99.170   1285.348   1363.658    -78.310    550.921   1348.738    565.886    550.921    550.921
 99.270   1321.000   1298.173     22.827    550.644   1284.674    564.191    550.644    550.644
 99.370   1207.000   1234.607    -27.607    550.369   1222.471    562.551    550.369    550.369
 99.470   1190.000   1175.720     14.280    550.094   1164.841    561.016    550.094    550.094
 99.570   1141.000   1123.823     17.177    549.820   1114.057    559.623    549.820    549.820
 99.670   1125.091   1080.806     44.285    549.548   1071.981    558.402    549.548    549.548
 99.770   1038.000   1048.172    -10.172    549.277   1040.095    557.374    549.277    549.277
 99.870   1024.000   1027.073     -3.073    549.006   1019.541    556.551    549.006    549.006
 99.970   1039.660   1018.344     21.316    548.737   1011.149    555.936    548.737    548.737
100.070   1065.000   1022.509     42.491    548.470   1015.448    555.527    548.470    548.470
100.170   1057.777   1039.797     17.979    548.203   1032.676    555.315    548.203    548.203
100.270   1026.000   1070.145    -44.145    547.938   1062.784    555.284    547.938    547.938
100.370   1164.000   1113.194     50.806    547.674   1105.434    555.415    547.674    547.674
100.470   1172.000   1168.291      3.709    547.411   1159.997    555.685    547.411    547.411
100.570   1253.637   1234.469     19.168    547.149   1225.535    556.066    547.149    547.149
100.670   1291.233   1310.424    -19.191    546.889   1300.774    556.526    546.889    546.889
100.770   1369.000   1394.483    -25.483    546.630   1384.076    557.031    546.630    546.630
100.870   1495.191   1484.575     10.616    546.373   1473.409    557.544    546.373    546.373
100.970   1515.000   1578.215    -63.215    546.117   1566.327    558.025    546.117    546.117
101.070   1621.973   1672.634    -50.661    545.863   1660.098    558.436    545.863    545.863
101.170   1732.327   1764.786    -32.459    545.609   1751.716    558.738    545.609    545.609
101.270   1850.000   1851.654     -1.654    545.358   1838.190    558.903    545.358    545.358
101.370   1988.000   1930.515     57.485    545.108   1916.818    558.910    545.108    545.108
101.470   2015.000   1999.164     15.836    544.859   1985.396    558.756    544.859    544.859
101.570   2107.000   2055.984     51.016    544.612   2042.297    558.452    544.612    544.612
101.670   2174.472   2099.831     74.641    544.367   2086.349    558.023    544.367    544.367
101.770   2139.767   2129.804      9.963    544.123   2116.618    557.503    544.123    544.123
101.870   2081.071   2145.062    -63.991    543.881   2132.225    556.928    543.881    543.881
101.970   2148.640   2144.826      3.815    543.640   2132.354    556.336    543.640    543.640
102.070   2106.000   2128.607    -22.607    543.401   2116.484    555.759    543.401    543.401
102.170   2136.589   2096.588     40.001    543.164   2084.769    555.225    543.164    543.164
102.270   2040.579   2049.970     -9.391    542.929   2038.386    554.756    542.929    542.929
102.370   1909.810   1991.083    -81.273    542.695   1979.652    554.367    542.695    542.695
102.470   1883.000   1923.172    -40.172    542.463   1911.804    554.066    542.463    542.463
102.570   1831.000   1849.948    -18.948    542.233   1838.554    553.853    542.233    542.233
102.670   1701.000   1775.085    -74.085    542.004   1763.584    553.719    542.004    542.004
102.770   1621.621   1701.814    -80.194    541.778   1690.143    553.649    541.778    541.778
102.870   1664.000   1632.691     31.309    541.553   1620.807    553.623    541.553    541.553
102.970   1504.832   1569.492    -64.660    541.331   1557.379    553.615    541.331    541.331
103.070   1509.000   1513.213     -4.213    541.110   1500.878    553.602    541.110    541.110
103.170   1446.000   1464.100    -18.100    540.891   1451.577    553.560    540.891    540.891
103.270   1431.092   1421.721      9.372    540.674   1409.060    553.469    540.674    540.674
103.370   1421.584   1385.044     36.540    540.459   1372.317    553.313    540.459    540.459
103.470   1338.000   1352.572    -14.572    540.247   1339.864    553.074    540.247    540.247
103.570   1321.000   1322.507     -1.507    540.036   1309.919    552.739    540.036    540.036
103.670   1246.000   1292.991    -46.991    539.827   1280.633    552.297    539.827    539.827
103.770   1231.000   1262.364    -31.364    539.621   1250.352    551.742    539.621    539.621
103.870   1195.000   1229.415    -34.415    539.416   1217.865    551.074    539.416    539.416
103.970   1110.000   1193.501    -83.501    539.214   1182.518    550.304    539.214    539.214
104.070   1156.000   1154.576      1.424    539.014   1144.249    549.446    539.014    539.014
104.170   1124.342   1113.076     11.266    538.816   1103.470    548.524    538.816    538.816
104.270   1072.000   1069.750      2.250    538.621   1060.907    547.561    538.621    538.621
104.370   1008.924   1025.500    -16.576    538.427   1017.438    546.582    538.427    538.427
104.470    979.000    981.253     -2.253    538.236    973.968    545.608    538.236    538.236
104.570    923.000    937.884    -14.884    538.048    931.355    544.657    538.048    538.048
104.670    896.106    896.171     -0.065    537.861    890.360    543.745    537.861    537.861
104.770    867.000    856.766     10.234    537.677    851.626    542.884    537.677    537.677
104.870    781.622    820.185    -38.563    537.496    815.660    542.080    537.496    537.496
104.970    779.000    786.795     -7.795    537.317    782.825    541.340    537.317    537.317
105.070    734.587    756.821    -22.234    537.140    753.342    540.664    537.140    537.140
105.170    729.000    730.348     -1.348    536.966    727.299    540.054    536.966    536.966
105.270    706.000    707.325     -1.325    536.794    704.651    539.501    536.794    536.794
105.370    694.000    687.640      6.360    536.625    685.285    539.008    536.625    536.625
105.470    668.000    671.100     -3.100    536.459    669.006    538.575    536.459    536.459
105.570    648.923    657.429     -8.506    536.295    655.549    538.193    536.295    536.295
105.670    641.000    646.340     -5.340    536.134    644.632    537.856    536.134    536.134
105.770    586.403    637.543    -51.140    535.975    635.971    537.558    535.975    535.975
105.870    661.000    630.762     30.238    535.819    629.295    537.294    535.819    535.819
105.970    620.000    625.747     -5.747    535.666    624.358    537.060    535.666    535.666
106.070    640.000    622.285     17.715    535.516    620.950    536.852    535.516    535.516
106.170    653.000    620.201     32.799    535.368    618.901    536.668    535.368    535.368
106.270    650.000    619.364     30.636    535.223    618.080    536.504    535.223    535.223
106.370    590.000    619.680    -29.680    535.081    618.396    536.360    535.081    535.081
106.470    618.000    621.091     -3.091    534.942    619.792    536.234    534.942    534.942
106.570    638.000    623.569     14.431    534.806    622.240    536.125    534.806    534.806
106.670    611.000    627.105    -16.105    534.673    625.732    536.033    534.673    534.673
106.770    586.411    631.706    -45.295    534.543    630.276    535.958    534.543    534.543
106.870    655.000    637.388     17.612    534.415    635.885    535.899    534.415    534.415
106.970    610.802    644.163    -33.361    534.291    642.574    535.858    534.291    534.291
107.070    683.000    652.035     30.965    534.170    650.346    535.833    534.170    534.170
107.170    647.000    660.989    -13.989    534.052    659.187    535.825    534.052    534.052
107.270    713.000    670.981     42.019    533.937    669.053    535.833    533.937    533.937
107.370    692.000    681.931     10.069    533.825    679.865    535.856    533.825    533.825
107.470    690.867    693.715     -2.849    533.716    691.500    535.892    533.716    533.716
107.570    704.000    706.160     -2.160    533.611    703.790    535.939    533.611    533.611
107.670    726.640    719.045      7.596    533.508    716.515    535.993    533.508    533.508
107.770    711.186    732.097    -20.911    533.409    729.408    536.051    533.409    533.409
107.870    706.709    745.000    -38.291    533.314    742.156    536.109    533.314    533.314
107.970    750.493    757.402     -6.909    533.221    754.413    536.160    533.221    533.221
108.070    754.722    768.925    -14.203    533.132    765.806    536.200    533.132    533.132
108.170    749.000    779.195    -30.195    533.047    775.967    536.224    533.047    533.047
108.270    814.277    787.871     26.406    532.965    784.561    536.226    532.965    532.965
108.370    816.000    794.693     21.307    532.886    791.331    536.202    532.886    532.886
108.470    847.528    799.524     48.004    532.811    796.141    536.149    532.811    532.811
108.570    791.000    802.378    -11.378    532.739    799.009    536.068    532.739    532.739
108.670    797.667    803.433     -5.766    532.671    800.108    535.959    532.671    532.671
108.770    809.000    803.003      5.997    532.606    799.750    535.827    532.606    532.606
108.870    747.518    801.495    -53.977    532.545    798.337    535.676    532.545    532.545
108.970    807.000    799.357      7.643    532.488    796.309    535.512    532.488    532.488
109.070    784.000    797.024    -13.024    532.434    794.098    535.341    532.434    532.434
109.170    761.000    794.884    -33.884    532.384    792.084    535.168    532.384    532.384
109.270    689.000    793.246   -104.246    532.338    790.574    534.999    532.338    532.338
109.370    771.000    792.330    -21.330    532.296    789.781    534.837    532.296    532.296
109.470    814.635    792.251     22.384    532.257    789.818    534.686    532.257    532.257
109.570    790.000    793.017     -3.017    532.223    790.692    534.547    532.223    532.223
109.670    854.775    794.532     60.242    532.192    792.305    534.423    532.192    532.192
109.770    826.835    796.594     30.241    532.165    794.453    534.312    532.165    532.165
109.870    778.000    798.906    -20.906    532.142    796.843    534.215    532.142    532.142
109.970    789.000    801.095    -12.095    532.123    799.100    534.131    532.123    532.123
110.070    790.066    802.733    -12.667    532.108    800.800    534.057    532.108    532.108
110.170    798.000    803.379     -5.379    532.097    801.504    533.991    532.097    532.097
110.270    802.000    802.625     -0.625    532.090    800.806    533.931    532.090    532.090
110.370    771.000    800.152    -29.152    532.087    798.389    533.874    532.087    532.087
110.470    787.000    795.770     -8.770    532.089    794.065    533.820    532.089    532.089
110.570    776.000    789.444    -13.444    532.094    787.800    533.766    532.094    532.094
110.670    741.000    781.276    -40.276    532.104    779.709    533.700    532.104    532.104
110.770    744.000    771.539    -27.539    532.118    770.039    533.647    532.118    532.118
110.870    761.094    760.542      0.552    532.137    759.109    533.599    532.137    532.137
110.970    771.000    748.645     22.355    532.160    747.278    533.554    532.160    532.160
111.070    702.000    736.213    -34.213    532.187    734.911    533.514    532.187    532.187
111.170    723.000    723.593     -0.593    532.218    722.356    533.480    532.218    532.218
111.270    717.928    711.102      6.825    532.254    709.925    533.453    532.254    532.254
111.370    669.000    699.014    -30.014    532.295    697.894    533.434    532.295    532.295
111.470    685.000    687.556     -2.556    532.339    686.489    533.424    532.339    532.339
111.570    687.000    676.905     10.095    532.389    675.884    533.424    532.389    532.389
111.670    701.000    667.217     33.783    532.443    666.238    533.434    532.443    532.443
111.770    682.000    658.578     23.422    532.502    657.635    533.455    532.502    532.502
111.870    635.000    651.040    -16.040    532.565    650.126    533.486    532.565    532.565
111.970    652.000    644.616      7.384    532.633    643.726    533.528    532.633    532.633
112.070    657.000    639.289     17.711    532.706    638.417    533.581    532.706    532.706
112.170    615.530    635.016    -19.486    532.783    634.156    533.644    532.783    532.783
112.270    650.582    631.731     18.851    532.865    630.878    533.717    532.865    532.865
112.370    617.000    629.355    -12.355    532.952    628.505    533.800    532.952    532.952
112.470    606.000    627.803    -21.803    533.044    626.953    533.891    533.044    533.044
112.570    667.437    626.985     40.452    533.141    626.131    533.990    533.141    533.141
112.670    617.000    626.809     -9.809    533.243    625.949    534.097    533.243    533.243
112.770    646.000    627.192     18.808    533.350    626.324    534.211    533.350    533.350
112.870    599.365    628.056    -28.691    533.461    627.178    534.331    533.461    533.461
112.970    621.000    629.332     -8.332    533.578    628.443    534.458    533.578    533.578
113.070    621.662    630.964     -9.303    533.700    630.065    534.590    533.700    533.700
113.170    589.000    632.910    -43.910    533.827    632.000    534.727    533.827    533.827
113.270    673.000    635.140     37.860    533.960    634.219    534.869    533.960    533.960
113.370    655.395    637.640     17.756    534.097    636.709    535.017    534.097    534.097
113.470    640.000    640.413     -0.413    534.240    639.471    535.170    534.240    534.240
113.570    611.000    643.477    -32.477    534.388    642.523    535.330    534.388    534.388
113.670    666.000    646.867     19.133    534.541    645.900    535.496    534.541    534.541
113.770    664.000    650.636     13.364    534.700    649.653    535.670    534.700    534.700
113.870    600.000    654.856    -54.856    534.864    653.854    535.852    534.864    534.864
113.970    694.665    659.623     35.042    535.033    658.598    536.043    535.033    535.033
114.070    677.000    665.063     11.937    535.208    664.010    536.246    535.208    535.208
114.170    639.000    671.337    -32.337    535.388    670.249    536.461    535.388    535.388
114.270    687.000    678.652      8.348    535.574    677.519    536.690    535.574    535.574
114.370    663.000    687.269    -24.269    535.766    686.081    536.934    535.766    535.766
114.470    673.495    697.520    -24.025    535.963    696.265    537.196    535.963    535.963
114.570    689.000    709.819    -20.819    536.166    708.481    537.478    536.166    536.166
114.670    734.000    724.681      9.319    536.375    723.243    537.782    536.375    536.375
114.770    734.000    742.738     -8.738    536.589    741.181    538.111    536.589    536.589
114.870    776.000    764.760     11.240    536.809    763.058    538.468    536.809    536.809
114.970    840.368    791.667     48.701    537.035    789.795    538.856    537.035    537.035
115.070    824.000    824.550     -0.550    537.267    822.478    539.277    537.267    537.267
115.170    844.000    864.680    -20.680    537.505    862.375    539.736    537.505    537.505
115.270    888.000    913.516    -25.516    537.749    910.940    540.235    537.749    537.749
115.370   1005.000    972.703     32.297    537.998    969.815    540.778    537.998    537.998
115.470   1061.126   1044.059     17.068    538.254   1040.815    541.368    538.254    538.254
115.570   1145.000   1129.552     15.448    538.516   1125.904    542.008    538.516    538.516
115.670   1254.000   1231.262     22.738    538.784   1227.160    542.701    538.784    538.784
115.770   1331.000   1351.326    -20.326    539.058   1346.718    543.450    539.058    539.058
115.870   1533.000   1491.868     41.132    539.338   1486.698    544.255    539.338    539.338
115.970   1664.000   1654.905      9.095    539.625   1649.119    545.117    539.625    539.625
116.070   1888.944   1842.252     46.692    539.917   1835.795    546.038    539.917    539.917
116.170   2078.000   2055.399     22.601    540.217   2048.217    547.014    540.217    540.217
116.270   2310.000   2295.388     14.612    540.522   2287.433    548.045    540.522    540.522
116.370   2588.000   2562.686     25.314    540.834   2553.913    549.126    540.834    540.834
116.470   2837.000   2857.062    -20.062    541.152   2847.432    550.251    541.152    541.152
116.570   3282.206   3177.466    104.740    541.477   3166.950    551.413    541.477    541.477
116.670   3531.000   3521.939      9.061    541.808   3510.518    552.604    541.808    541.808
116.770   3889.000   3887.535      1.465    542.146   3875.202    553.814    542.146    542.146
116.870   4160.000   4270.280   -110.280    542.491   4257.038    555.033    542.491    542.491
116.970   4580.000   4665.153    -85.153    542.842   4651.021    556.248    542.842    542.842
117.070   4911.000   5066.089   -155.089    543.200   5051.096    557.448    543.200    543.200
117.170   5428.000   5466.115    -38.115    543.565   5450.305    558.625    543.565    543.565
117.270   5795.000   5857.393    -62.393    543.936   5840.821    559.767    543.936    543.936
117.370   6172.000   6231.304    -59.304    544.314   6214.034    560.864    544.314    544.314
117.470   6527.000   6578.731    -51.731    544.699   6560.842    561.905    544.699    544.699
117.570   6921.922   6890.329     31.593    545.091   6871.908    562.880    545.091    545.091
117.670   7161.000   7156.907      4.093    545.490   7138.054    563.777    545.490    545.490
117.770   7420.000   7369.932     50.068    545.896   7350.757    564.587    545.896    545.896
117.870   7512.000   7522.118    -10.118    546.309   7502.734    565.300    546.309    546.309
117.970   7544.000   7608.034    -64.034    546.730   7588.561    565.909    546.730    546.730
118.070   7699.349   7624.633     74.716    547.157   7605.192    566.410    547.157    547.157
118.170   7591.000   7571.573     19.427    547.591   7552.280    566.802    547.591    547.591
118.270   7440.983   7451.251    -10.268    548.033   7432.215    567.086    548.033    548.033
118.370   7271.000   7268.538      2.462    548.482   7249.861    567.269    548.482    548.482
118.470   6963.000   7030.290    -67.290    548.938   7012.063    567.357    548.938    548.938
118.570   6592.000   6744.740   -152.740    549.402   6727.043    567.361    549.402    549.402
118.670   6354.000   6420.894    -66.894    549.873   6403.795    567.289    549.873    549.873
118.770   6103.000   6068.000     35.000    550.351   6051.557    567.154    550.351    550.351
118.870   5533.291   5695.138   -161.847    550.837   5679.398    566.965    550.837    550.837
118.970   5399.530   5310.902     88.628    551.331   5295.903    566.735    551.331    551.331
119.070   4874.000   4923.189    -49.189    551.832   4908.955    566.474    551.832    551.832
119.170   4615.000   4539.035     75.965    552.340   4525.584    566.194    552.340    552.340
119.270   4229.000   4164.521     64.479    552.857   4151.856    565.908    552.857    552.857
119.370   3809.000   3804.706      4.294    553.381   3792.824    565.628    553.381    553.381
119.470   3490.000   3463.613     26.387    553.913   3452.499    565.364    553.913    553.913
119.570   3267.427   3144.244    123.183    554.452   3133.875    565.127    554.452    554.452
119.670   2830.000   2848.635    -18.635    555.000   2838.979    564.926    555.000    555.000
119.770   2593.930   2577.936     15.994    555.555   2568.957    564.770    555.555    555.555
119.870   2334.000   2332.522      1.478    556.119   2324.176    564.666    556.119    556.119
119.970   2097.000   2112.109    -15.109    556.690   2104.348    564.619    556.690    556.690
120.070   1881.197   1915.877    -34.680    557.269   1908.649    564.634    557.269    557.269
120.170   1738.000   1742.595     -4.595    557.857   1735.844    564.715    557.857    557.857
120.270   1515.151   1590.728    -75.577    558.452   1584.398    564.865    558.452    558.452
120.370   1507.176   1458.544     48.632    559.056   1452.576    565.086    559.056    559.056
120.470   1366.323   1344.203     22.120    559.668   1338.535    565.379    559.668    559.668
120.570   1381.000   1245.832    135.168    560.289   1240.402    565.745    560.289    560.289
120.670   1126.815   1161.592    -34.777    560.917   1156.339    566.186    560.917    560.917
120.770   1157.091   1089.728     67.363    561.554   1084.587    566.700    561.554    561.554
120.870    984.564   1028.606    -44.042    562.200   1023.514    567.290    562.200    562.200
120.970   1033.684    976.739     56.945    562.854    971.632    567.954    562.854    562.854
121.070    977.000    932.798     44.202    563.516    927.609    568.695    563.516    563.516
121.170    903.914    895.616      8.297    564.187    890.280    569.512    564.187    564.187
121.270    848.000    864.188    -16.188    564.867    858.636    570.407    564.867    564.867
121.370    824.631    837.652    -13.021    565.555    831.815    571.380    565.555    565.555
121.470    841.000    815.284     25.716    566.252    809.092    572.433    566.252    566.252
121.570    838.821    796.479     42.342    566.958    789.859    573.568    566.958    566.958
121.670    758.000    780.736    -22.736    567.672    773.614    574.787    567.672    567.672
121.770    746.000    767.640    -21.640    568.396    759.939    576.091    568.396    568.396
121.870    752.000    756.851     -4.851    569.128    748.492    577.482    569.128    569.128
121.970    714.000    748.089    -34.089    569.869    738.992    578.963    569.869    569.869
122.070    739.994    741.122     -1.128    570.620    731.205    580.535    570.620    570.620
122.170    706.062    735.757    -29.695    571.379    724.938    582.198    571.379    571.379
122.270    694.000    731.832    -37.832    572.147    720.027    583.954    572.147    572.147
122.370    673.000    729.209    -56.209    572.925    716.334    585.804    572.925    572.925
122.470    701.000    727.766    -26.766    573.712    713.737    587.746    573.712    573.712
122.570    716.000    727.396    -11.396    574.508    712.129    589.780    574.508    574.508
122.670    708.329    727.997    -19.668    575.313    711.414    591.905    575.313    575.313
122.770    748.728    729.477     19.251    576.128    711.500    594.115    576.128    576.128
122.870    678.000    731.743    -53.743    576.952    712.300    596.407    576.952    576.952
122.970    714.000    734.703    -20.703    577.786    713.730    598.773    577.786    577.786
123.070    685.000    738.263    -53.263    578.629    715.705    601.203    578.629    578.629
123.170    788.633    742.322     46.311    579.482    718.138    603.685    579.482    579.482
123.270    791.758    746.779     44.979    580.344    720.941    606.203    580.344    580.344
123.370    755.000    751.521      3.479    581.216    724.023    608.738    581.216    581.216
123.470    705.496    756.433    -50.937    582.097    727.288    611.270    582.097    582.097
123.570    801.000    761.393     39.607    582.989    730.638    613.774    582.989    582.989
123.670    779.462    766.270     13.192    583.890    733.971    616.222    583.890    583.890
123.770    717.830    770.932    -53.102    584.801    737.184    618.586    584.801    584.801
123.870    799.000    775.243     23.757    585.722    740.170    620.835    585.722    585.722
123.970    772.000    779.068     -7.068    586.653    742.825    622.939    586.653    586.653
124.070    744.040    782.276    -38.236    587.594    745.050    624.866    587.594    587.594
124.170    807.600    784.747     22.853    588.545    746.753    626.589    588.545    588.545
124.270    822.000    786.379     35.621    589.507    747.855    628.083    589.507    589.507
124.370    843.405    787.091     56.314    590.478    748.294    629.329    590.478    590.478
124.470    827.000    786.832     40.168    591.460    748.032    630.316    591.460    591.460
124.570    793.000    785.580      7.420    592.452    747.049    631.040    592.452    592.452
124.670    734.747    783.327    -48.580    593.454    745.334    631.506    593.454    593.454
124.770    826.000    780.155     45.845    594.467    742.954    631.727    594.467    594.467
124.870    804.355    776.146     28.208    595.490    739.972    631.724    595.490    595.490
124.970    813.769    771.381     42.388    596.523    736.441    631.523    596.523    596.523
