neutron_powder_diffraction_0022
R_wp: 3.629
Temperature (K): 505.672
Counts: 82764.00
Wavelength (Ã…): 2.52098
COMMENTS
Test file for demonstrating the .xyy file format in Reel1.0
END OF HEADER
   tth       Y_obs     Y_calc      Y_res    Background    Phase_1_Nuc    Phase_1_Mag    Phase_2_Nuc    Phase_2_Mag
  9.970    731.000    703.560     27.440    701.854    702.922    702.492    701.854    701.854
 10.070    747.374    702.821     44.553    701.023    702.176    701.668    701.023    701.023
 10.170    714.957    702.097     12.859    700.195    701.446    700.846    700.195    700.195
 10.270    712.000    701.391     10.609    699.370    700.732    700.028    699.370    699.370
 10.370    747.481    700.704     46.777    698.548    700.038    699.213    698.548    698.548
 10.470    724.194    700.041     24.153    697.728    699.367    698.401    697.728    697.728
 10.570    721.000    699.406     21.594    696.912    698.725    697.591    696.912    696.912
 10.670    732.000    698.805     33.195    696.098    698.117    696.785    696.098    696.098
 10.770    713.000    698.246     14.754    695.288    697.550    695.982    695.288    695.288
 10.870    737.000    697.739     39.261    694.480    697.035    695.182    694.480    694.480
 10.970    720.987    697.299     23.688    693.675    696.587    694.385    693.675    693.675
 11.070    713.000    696.944     16.056    692.873    696.224    693.591    692.873    692.873
 11.170    725.000    696.703     28.297    692.074    695.975    692.801    692.074    692.074
 11.270    744.000    696.617     47.383    691.278    695.880    692.013    691.278    691.278
 11.370    719.259    696.750     22.509    690.486    696.004    691.228    690.486    690.486
 11.470    650.925    697.226    -46.301    689.696    696.471    690.447    689.696    689.696
 11.570    732.000    698.308     33.692    688.909    697.543    689.669    688.909    688.909
 11.670    772.000    700.573     71.427    688.124    699.797    688.894    688.124    688.124
 11.770    757.000    705.190     51.810    687.343    704.403    688.121    687.343    687.343
 11.870    762.601    714.083     48.518    686.565    713.281    687.353    686.565    686.565
 11.970    773.000    729.527     43.473    685.790    728.707    686.587    685.790    685.790
 12.070    830.000    752.713     77.287    685.018    751.869    685.824    685.018    685.018
 12.170    841.000    780.580     60.420    684.249    779.710    685.065    684.249    684.249
 12.270    859.000    803.507     55.493    683.483    802.614    684.309    683.483    683.483
 12.370    828.000    807.811     20.189    682.720    806.906    683.555    682.720    682.720
 12.470    820.000    789.512     30.488    681.960    788.606    682.806    681.960    681.960
 12.570    758.000    760.276     -2.276    681.203    759.376    682.059    681.203    681.203
 12.670    770.013    732.955     37.058    680.449    732.060    681.315    680.449    680.449
 12.770    688.000    712.917    -24.917    679.698    712.022    680.575    679.698    679.698
 12.870    737.101    700.187     36.914    678.950    699.288    679.838    678.950    678.950
 12.970    653.240    692.673    -39.433    678.205    691.767    679.104    678.205    678.205
 13.070    666.000    688.187    -22.187    677.463    687.271    678.374    677.463    677.463
 13.170    718.767    685.251     33.516    676.724    684.325    677.647    676.724    676.724
 13.270    618.000    683.088    -65.088    675.989    682.151    676.922    675.989    675.989
 13.370    728.392    681.342     47.050    675.256    680.393    676.202    675.256    675.256
 13.470    656.000    679.852    -23.852    674.526    678.892    675.484    674.526    674.526
 13.570    643.380    678.539    -35.158    673.800    677.566    674.770    673.800    673.800
 13.670    632.000    677.352    -45.352    673.076    676.367    674.059    673.076    673.076
 13.770    688.000    676.262     11.738    672.355    675.264    673.352    672.355    672.355
 13.870    650.000    675.245    -25.245    671.638    674.234    672.648    671.638    671.638
 13.970    665.000    674.287     -9.287    670.924    673.263    671.947    670.924    670.924
 14.070    685.000    673.377     11.623    670.212    672.339    671.249    670.212    670.212
 14.170    723.000    672.518     50.482    669.504    671.466    670.556    669.504    669.504
 14.270    672.662    671.686      0.976    668.799    670.619    669.865    668.799    668.799
 14.370    628.000    670.867    -42.867    668.097    669.786    669.178    668.097    668.097
 14.470    643.357    670.069    -26.712    667.398    668.973    668.494    667.398    667.398
 14.570    626.000    669.290    -43.290    666.702    668.178    667.813    666.702    666.702
 14.670    640.000    668.527    -28.527    666.009    667.399    667.136    666.009    666.009
 14.770    678.202    667.778     10.425    665.320    666.635    666.462    665.320    665.320
 14.870    627.857    667.045    -39.188    664.633    665.885    665.792    664.633    664.633
 14.970    598.000    666.321    -68.321    663.949    665.145    665.125    663.949    663.949
 15.070    711.171    665.606     45.565    663.269    664.413    664.461    663.269    663.269
 15.170    668.478    664.899      3.579    662.592    663.689    663.801    662.592    662.592
 15.270    680.675    664.201     16.474    661.917    662.973    663.145    661.917    661.917
 15.370    634.264    663.511    -29.248    661.246    662.265    662.492    661.246    661.246
 15.470    651.000    662.829    -11.829    660.578    661.564    661.842    660.578    660.578
 15.570    664.000    662.153      1.847    659.913    660.869    661.196    659.913    659.913
 15.670    673.000    661.484     11.516    659.251    660.181    660.554    659.251    659.251
 15.770    667.000    660.821      6.179    658.593    659.498    659.915    658.593    658.593
 15.870    648.000    660.164    -12.164    657.937    658.821    659.280    657.937    657.937
 15.970    647.405    659.513    -12.107    657.285    658.149    658.648    657.285    657.285
 16.070    632.111    658.867    -26.756    656.635    657.482    658.020    656.635    656.635
 16.170    672.000    658.226     13.774    655.989    656.819    657.396    655.989    655.989
 16.270    642.679    657.591    -14.912    655.346    656.162    656.775    655.346    655.346
 16.370    670.000    656.961     13.039    654.706    655.509    656.158    654.706    654.706
 16.470    652.000    656.336     -4.336    654.069    654.861    655.544    654.069    654.069
 16.570    634.000    655.720    -21.720    653.435    654.221    654.934    653.435    653.435
 16.670    662.000    655.108      6.892    652.804    653.584    654.328    652.804    652.804
 16.770    635.000    654.498    -19.498    652.177    652.949    653.726    652.177    652.177
 16.870    682.417    653.893     28.524    651.552    652.318    653.127    651.552    651.552
 16.970    692.344    653.297     39.047    650.931    651.695    652.532    650.931    650.931
 17.070    598.000    652.712    -54.712    650.313    651.082    651.942    650.313    650.313
 17.170    618.810    652.140    -33.330    649.697    650.482    651.355    649.697    649.697
 17.270    662.317    651.613     10.704    649.085    649.924    650.774    649.085    649.085
 17.370    639.901    651.036    -11.135    648.477    649.318    650.195    648.477    648.477
 17.470    658.000    650.458      7.542    647.871    648.710    649.619    647.871    647.871
 17.570    656.000    649.886      6.114    647.268    648.107    649.048    647.268    647.268
 17.670    632.000    649.335    -17.335    646.669    647.524    648.480    646.669    646.669
 17.770    573.000    648.785    -75.785    646.072    646.941    647.916    646.072    646.072
 17.870    635.000    648.226    -13.226    645.479    646.349    647.356    645.479    645.479
 17.970    672.864    647.671     25.193    644.889    645.759    646.801    644.889    644.889
 18.070    666.620    647.121     19.500    644.302    645.173    646.249    644.302    644.302
 18.170    617.000    646.575    -29.575    643.718    644.591    645.702    643.718    643.718
 18.270    675.000    646.033     28.967    643.137    644.012    645.158    643.137    643.137
 18.370    648.236    645.497      2.739    642.559    643.437    644.619    642.559    642.559
 18.470    640.000    644.965     -4.965    641.985    642.865    644.084    641.985    641.985
 18.570    669.000    644.438     24.562    641.413    642.297    643.554    641.413    641.413
 18.670    616.000    643.919    -27.919    640.845    641.736    643.027    640.845    640.845
 18.770    647.000    643.411      3.589    640.280    641.185    642.506    640.280    640.280
 18.870    663.749    642.899     20.850    639.718    640.629    641.988    639.718    639.718
 18.970    643.555    642.392      1.163    639.159    640.075    641.475    639.159    639.159
 19.070    623.000    641.889    -18.889    638.603    639.525    640.967    638.603    638.603
 19.170    661.281    641.391     19.890    638.050    638.978    640.463    638.050    638.050
 19.270    623.000    640.898    -17.898    637.500    638.435    639.964    637.500    637.500
 19.370    662.000    640.418     21.582    636.954    637.901    639.471    636.954    636.954
 19.470    613.000    640.008    -27.008    636.410    637.420    638.998    636.410    636.410
 19.570    599.000    639.564    -40.564    635.870    636.913    638.520    635.870    635.870
 19.670    613.185    639.096    -25.911    635.333    636.388    638.041    635.333    635.333
 19.770    644.059    638.633      5.426    634.798    635.864    637.566    634.798    634.798
 19.870    649.147    638.173     10.974    634.267    635.344    637.097    634.267    634.267
 19.970    599.000    637.721    -38.721    633.739    634.828    636.633    633.739    633.739
 20.070    645.000    637.294      7.706    633.215    634.331    636.178    633.215    633.215
 20.170    602.872    636.909    -34.037    632.693    633.857    635.744    632.693    632.693
 20.270    650.000    636.492     13.508    632.174    633.366    635.300    632.174    632.174
 20.370    612.000    636.113    -24.113    631.658    632.912    634.859    631.658    631.658
 20.470    649.719    635.716     14.003    631.146    632.440    634.423    631.146    631.146
 20.570    598.146    635.326    -37.180    630.637    631.970    633.992    630.637    630.637
 20.670    636.000    634.925      1.075    630.130    631.488    633.568    630.130    630.130
 20.770    650.000    634.566     15.434    629.627    631.042    633.150    629.627    629.627
 20.870    628.658    634.179     -5.521    629.127    630.568    632.738    629.127    629.127
 20.970    646.052    633.794     12.258    628.630    630.091    632.332    628.630    628.630
 21.070    603.000    633.420    -30.420    628.135    629.622    631.933    628.135    628.135
 21.170    666.916    633.066     33.849    627.645    629.164    631.547    627.645    627.645
 21.270    618.784    632.708    -13.924    627.157    628.702    631.163    627.157    627.157
 21.370    630.000    632.360     -2.360    626.672    628.247    630.785    626.672    626.672
 21.470    608.435    632.029    -23.594    626.190    627.805    630.414    626.190    626.190
 21.570    608.000    631.696    -23.696    625.711    627.356    630.051    625.711    625.711
 21.670    629.000    631.372     -2.372    625.235    626.911    629.696    625.235    625.235
 21.770    602.453    631.058    -28.605    624.763    626.472    629.349    624.763    624.763
 21.870    614.000    630.757    -16.757    624.293    626.040    629.011    624.293    624.293
 21.970    627.000    630.466     -3.466    623.827    625.612    628.681    623.827    623.827
 22.070    651.000    630.187     20.813    623.363    625.189    628.361    623.363    623.363
 22.170    608.000    629.920    -21.920    622.903    624.773    628.050    622.903    622.903
 22.270    587.569    629.668    -42.100    622.445    624.365    627.749    622.445    622.445
 22.370    606.852    629.433    -22.581    621.991    623.965    627.459    621.991    621.991
 22.470    658.000    629.211     28.789    621.540    623.571    627.180    621.540    621.540
 22.570    666.686    629.006     37.680    621.091    623.186    626.912    621.091    621.091
 22.670    652.305    628.821     23.484    620.646    622.811    626.656    620.646    620.646
 22.770    636.000    628.662      7.338    620.204    622.452    626.414    620.204    620.204
 22.870    622.914    628.520     -5.606    619.764    622.100    626.184    619.764    619.764
 22.970    564.000    628.401    -64.401    619.328    621.761    625.968    619.328    619.328
 23.070    653.129    628.309     24.820    618.895    621.437    625.767    618.895    618.895
 23.170    622.366    628.248     -5.882    618.464    621.132    625.581    618.464    618.464
 23.270    631.150    628.223      2.927    618.037    620.848    625.413    618.037    618.037
 23.370    626.000    628.238     -2.238    617.613    620.590    625.261    617.613    617.613
 23.470    665.358    628.299     37.059    617.192    620.363    625.128    617.192    617.192
 23.570    605.183    628.415    -23.232    616.773    620.175    625.015    616.773    616.773
 23.670    674.799    628.598     46.201    616.358    620.035    624.922    616.358    616.358
 23.770    606.000    628.863    -22.863    615.946    619.956    624.853    615.946    615.946
 23.870    670.729    629.229     41.500    615.536    619.959    624.808    615.536    615.536
 23.970    620.749    629.729     -8.980    615.130    620.072    624.789    615.130    615.130
 24.070    630.118    630.413     -0.294    614.726    620.342    624.800    614.726    614.726
 24.170    650.000    631.365     18.635    614.326    620.854    624.840    614.326    614.326
 24.270    658.487    632.780     25.707    613.928    621.799    624.912    613.928    613.928
 24.370    683.000    635.069     47.931    613.534    623.587    625.021    613.534    613.534
 24.470    696.000    639.035     56.965    613.142    627.016    625.169    613.142    613.142
 24.570    627.000    645.951    -18.951    612.753    633.358    625.359    612.753    612.753
 24.670    674.000    657.256     16.744    612.368    644.049    625.596    612.368    612.368
 24.770    692.000    673.585     18.415    611.985    659.718    625.884    611.985    611.985
 24.870    717.000    693.044     23.956    611.605    678.467    626.227    611.605    611.605
 24.970    707.000    709.389     -2.389    611.228    694.040    626.633    611.228    611.228
 25.070    766.000    713.746     52.254    610.854    697.552    627.108    610.854    610.854
 25.170    750.075    703.210     46.865    610.483    686.086    627.659    610.483    610.483
 25.270    694.994    685.091      9.902    610.114    666.949    628.295    610.114    610.114
 25.370    704.000    667.890     36.110    609.749    648.639    629.025    609.749    609.749
 25.470    706.000    655.417     50.583    609.386    634.955    629.863    609.386    609.386
 25.570    661.000    647.939     13.061    609.027    626.153    630.822    609.027    609.027
 25.670    688.721    644.216     44.505    608.670    620.974    631.917    608.670    608.670
 25.770    720.000    642.827     77.173    608.316    617.979    633.167    608.316    608.316
 25.870    629.262    642.766    -13.504    607.965    616.138    634.596    607.965    607.965
 25.970    555.000    643.494    -88.494    607.617    614.883    636.230    607.617    607.617
 26.070    639.000    644.782     -5.782    607.272    613.950    638.104    607.272    607.272
 26.170    631.538    646.549    -15.011    606.930    613.225    640.253    606.930    606.930
 26.270    675.069    648.769     26.300    606.590    612.636    642.722    606.590    606.590
 26.370    631.000    651.479    -20.479    606.253    612.159    645.572    606.253    606.253
 26.470    643.000    654.732    -11.732    605.919    611.776    648.874    605.919    605.919
 26.570    621.000    658.607    -37.607    605.588    611.476    652.718    605.588    605.588
 26.670    621.629    663.214    -41.585    605.260    611.253    657.218    605.260    605.260
 26.770    625.731    668.698    -42.966    604.935    611.109    662.520    604.935    604.935
 26.870    691.093    675.251     15.842    604.612    611.046    668.813    604.612    604.612
 26.970    736.000    683.131     52.869    604.292    611.073    676.345    604.292    604.292
 27.070    661.000    692.685    -31.685    603.975    611.205    685.449    603.975    603.975
 27.170    676.000    704.389    -28.389    603.661    611.463    696.579    603.661    603.661
 27.270    686.000    718.906    -32.906    603.350    611.879    710.367    603.350    603.350
 27.370    743.000    737.192      5.808    603.041    612.500    727.721    603.041    603.041
 27.470    709.000    760.631    -51.631    602.735    613.392    749.959    602.735    602.735
 27.570    808.000    791.515     16.485    602.432    614.669    779.259    602.432    602.432
 27.670    816.000    834.519    -18.519    602.132    616.560    820.062    602.132    602.132
 27.770    911.000    902.686      8.314    601.834    619.704    884.769    601.834    601.834
 27.870    977.783   1036.703    -58.920    601.540    626.081   1012.064    601.540    601.540
 27.970   1285.000   1346.412    -61.412    601.248    641.035   1306.413    601.248    601.248
 28.070   1963.000   2049.064    -86.064    600.958    675.131   1974.474    600.958    600.958
 28.170   3191.000   3400.870   -209.870    600.672    740.836   3260.022    600.672    600.672
 28.270   5239.000   5418.889   -179.889    600.388    839.022   5179.380    600.388    600.388
 28.370   7621.907   7517.964    103.943    600.107    941.350   7175.921    600.107    600.107
 28.470   8441.000   8507.538    -66.538    599.828    990.190   8116.721    599.828    599.828
 28.570   7500.298   7649.457   -149.159    599.552    950.209   7298.678    599.552    599.552
 28.670   5753.746   5773.760    -20.014    599.279    862.882   5510.185    599.279    599.279
 28.770   4451.000   4172.091    278.909    599.009    792.809   3978.317    599.009    599.009
 28.870   3482.000   3512.933    -30.933    598.741    774.173   3337.467    598.741    598.741
 28.970   3733.544   3753.468    -19.924    598.476    804.410   3547.460    598.476    598.476
 29.070   4275.000   4384.995   -109.995    598.214    853.705   4129.465    598.214    598.214
 29.170   4693.000   4699.807     -6.807    597.954    877.740   4420.113    597.954    597.954
 29.270   4269.000   4261.237      7.763    597.697    848.672   4010.520    597.697    597.697
 29.370   3258.658   3318.016    -59.359    597.442    784.412   3131.376    597.442    597.442
 29.470   2273.000   2351.816    -78.816    597.191    718.352   2230.940    597.191    597.191
 29.570   1576.000   1633.494    -57.494    596.941    669.223   1561.408    596.941    596.941
 29.670   1223.000   1201.699     21.301    596.695    639.733   1158.771    596.695    596.695
 29.770    957.331    976.723    -19.392    596.451    624.433    948.797    596.451    596.451
 29.870    912.500    864.920     47.580    596.209    616.903    844.254    596.209    596.209
 29.970    808.450    805.012      3.439    595.971    612.948    788.049    595.971    595.971
 30.070    783.000    767.746     15.254    595.735    610.576    752.912    595.735    595.735
 30.170    782.736    741.540     41.197    595.501    609.016    728.029    595.501    595.501
 30.270    749.000    721.968     27.032    595.270    608.003    709.237    595.270    595.270
 30.370    763.000    707.155     55.845    595.041    607.490    694.707    595.041    595.041
 30.470    654.000    696.362    -42.362    594.816    607.613    683.562    594.816    594.816
 30.570    746.000    689.796     56.204    594.592    608.800    675.582    594.592    594.592
 30.670    729.915    688.757     41.158    594.371    611.916    671.202    594.371    594.371
 30.770    740.000    695.458     44.542    594.153    618.203    671.389    594.153    594.153
 30.870    726.000    711.816     14.184    593.937    628.717    677.003    593.937    593.937
 30.970    746.000    736.982      9.018    593.724    643.140    687.515    593.724    593.724
 31.070    747.000    764.222    -17.222    593.513    658.266    699.401    593.513    593.513
 31.170    823.000    779.853     43.147    593.305    667.497    705.587    593.305    593.305
 31.270    782.000    771.922     10.078    593.099    665.058    699.897    593.099    593.099
 31.370    789.000    743.533     45.467    592.896    652.492    683.886    592.896    592.896
 31.470    728.000    708.461     19.539    592.695    636.532    664.592    592.695    592.695
 31.570    681.433    677.947      3.485    592.497    622.667    647.757    592.497    592.497
 31.670    753.000    656.235     96.765    592.301    612.984    635.541    592.301    592.301
 31.770    634.203    642.686     -8.483    592.108    607.188    627.599    592.108    592.108
 31.870    661.000    634.762     26.238    591.917    604.058    622.616    591.917    591.917
 31.970    665.000    630.051     34.949    591.728    602.433    619.343    591.728    591.728
 32.070    675.000    627.005     47.995    591.542    601.570    616.974    591.542    591.542
 32.170    604.000    624.843    -20.843    591.358    601.100    615.099    591.358    591.358
 32.270    625.000    623.227      1.773    591.177    600.866    613.535    591.177    591.177
 32.370    601.353    622.014    -20.662    590.998    600.810    612.201    590.998    590.998
 32.470    633.800    621.145     12.655    590.822    600.910    611.055    590.822    590.822
 32.570    621.000    620.593      0.407    590.648    601.164    610.074    590.648    590.648
 32.670    593.357    620.356    -26.998    590.476    601.583    609.247    590.476    590.476
 32.770    637.000    620.448     16.552    590.306    602.185    608.567    590.306    590.306
 32.870    615.262    620.903     -5.642    590.139    603.004    608.037    590.139    590.139
 32.970    635.284    621.780     13.503    589.975    604.088    607.665    589.975    589.975
 33.070    667.000    623.166     43.834    589.812    605.506    607.470    589.812    589.812
 33.170    580.866    625.195    -44.330    589.652    607.361    607.485    589.652    589.652
 33.270    686.000    628.089     57.911    589.495    609.818    607.764    589.495    589.495
 33.370    631.000    632.257     -1.257    589.339    613.179    608.414    589.339    589.339
 33.470    654.000    638.566     15.434    589.186    618.083    609.665    589.186    589.186
 33.570    701.000    648.938     52.062    589.035    625.937    612.030    589.035    589.035
 33.670    704.000    667.353     36.647    588.887    639.655    616.575    588.887    588.887
 33.770    687.000    700.863    -13.863    588.740    664.401    625.187    588.740    588.740
 33.870    799.000    759.312     39.688    588.596    707.379    640.505    588.596    588.596
 33.970    880.572    851.865     28.707    588.455    775.298    664.984    588.455    588.455
 34.070    957.000    979.421    -22.421    588.315    868.820    698.867    588.315    588.315
 34.170   1149.569   1124.085     25.484    588.178    974.854    737.354    588.178    588.178
 34.270   1218.218   1240.985    -22.767    588.043   1060.567    768.416    588.043    588.043
 34.370   1306.000   1271.815     34.185    587.910   1083.285    776.416    587.910    587.910
 34.470   1226.000   1196.005     29.995    587.779   1027.945    755.835    587.779    587.779
 34.570   1113.645   1057.599     56.046    587.651    926.776    718.479    587.651    587.651
 34.670    904.000    915.147    -11.147    587.525    822.630    680.049    587.525    587.525
 34.770    795.000    801.415     -6.415    587.401    739.491    649.330    587.401    587.401
 34.870    750.000    724.276     25.724    587.279    683.123    628.435    587.279    587.279
 34.970    679.000    677.755      1.245    587.159    649.155    615.761    587.159    587.159
 35.070    680.000    651.532     28.468    587.041    630.033    608.541    587.041    587.041
 35.170    635.000    636.731     -1.731    586.926    619.263    604.394    586.926    586.926
 35.270    659.000    627.752     31.248    586.813    612.745    601.819    586.813    586.813
 35.370    614.000    621.704     -7.704    586.701    608.364    600.041    586.701    586.701
 35.470    607.000    617.263    -10.263    586.592    605.149    598.705    586.592    586.592
 35.570    645.560    613.826     31.734    586.485    602.661    597.650    586.485    586.485
 35.670    632.000    611.089     20.911    586.380    600.675    596.794    586.380    586.380
 35.770    613.000    608.873      4.127    586.278    599.060    596.090    586.278    586.278
 35.870    625.000    607.057     17.943    586.177    597.727    595.506    586.177    586.177
 35.970    565.351    605.559    -40.208    586.078    596.614    595.022    586.078    586.078
 36.070    589.000    604.316    -15.316    585.982    595.676    594.621    585.982    585.982
 36.170    614.000    603.286     10.714    585.887    594.877    594.295    585.887    585.887
 36.270    607.000    602.435      4.565    585.794    594.194    594.035    585.794    585.794
 36.370    635.435    601.742     33.693    585.704    593.606    593.840    585.704    585.704
 36.470    646.000    601.190     44.810    585.615    593.098    593.707    585.615    585.615
 36.570    626.950    600.772     26.179    585.529    592.661    593.639    585.529    585.529
 36.670    629.000    600.482     28.518    585.444    592.285    593.641    585.444    585.444
 36.770    636.371    600.325     36.046    585.361    591.966    593.720    585.361    585.361
 36.870    571.900    600.309    -28.409    585.281    591.701    593.888    585.281    585.281
 36.970    594.020    600.452     -6.432    585.202    591.491    594.163    585.202    585.202
 37.070    622.000    600.786     21.214    585.126    591.342    594.570    585.126    585.126
 37.170    619.742    601.366     18.375    585.051    591.271    595.146    585.051    585.051
 37.270    628.000    602.297     25.703    584.978    591.321    595.954    584.978    584.978
 37.370    604.000    603.781      0.219    584.907    591.576    597.112    584.907    584.907
 37.470    624.000    606.210     17.790    584.838    592.182    598.865    584.838    584.838
 37.570    642.000    610.301     31.699    584.771    593.339    601.731    584.771    584.771
 37.670    578.490    617.246    -38.755    584.706    595.242    606.708    584.706    584.706
 37.770    661.694    628.759     32.935    584.642    597.950    615.449    584.642    584.642
 37.870    668.410    646.752     21.658    584.581    601.207    630.121    584.581    584.581
 37.970    672.000    672.361     -0.361    584.521    604.229    652.648    584.521    584.521
 38.070    757.000    704.532     52.468    584.463    605.753    683.237    584.463    584.463
 38.170    739.000    739.007     -0.007    584.407    604.999    718.411    584.407    584.407
 38.270    709.000    767.215    -58.215    584.353    602.538    749.029    584.353    584.353
 38.370    788.000    776.605     11.395    584.301    599.438    761.472    584.301    584.301
 38.470    752.000    760.399     -8.399    584.250    596.417    748.239    584.250    584.250
 38.570    728.000    726.773      1.227    584.202    593.885    717.097    584.202    584.202
 38.670    702.749    689.526     13.223    584.155    592.002    681.684    584.155    584.155
 38.770    651.000    657.616     -6.616    584.109    590.719    651.010    584.109    584.109
 38.870    608.000    634.255    -26.255    584.066    589.888    628.436    584.066    584.066
 38.970    605.000    619.018    -14.018    584.024    589.358    613.686    584.024    584.024
 39.070    598.156    609.842    -11.687    583.984    589.015    604.812    583.984    583.984
 39.170    571.000    604.488    -33.488    583.946    588.784    599.651    583.946    583.946
 39.270    575.000    601.273    -26.273    583.910    588.619    596.564    583.910    583.910
 39.370    612.000    599.185     12.815    583.875    588.496    594.565    583.875    583.875
 39.470    578.000    597.705    -19.705    583.842    588.402    593.145    583.842    583.842
 39.570    611.000    596.583     14.417    583.810    588.330    592.064    583.810    583.810
 39.670    579.000    595.699    -16.699    583.780    588.276    591.204    583.780    583.780
 39.770    570.712    594.987    -24.275    583.752    588.238    590.502    583.752    583.752
 39.870    585.000    594.407     -9.407    583.726    588.214    589.920    583.726    583.726
 39.970    603.000    593.930      9.070    583.701    588.200    589.431    583.701    583.701
 40.070    576.000    593.535    -17.535    583.678    588.197    589.015    583.678    583.678
 40.170    606.000    593.213     12.787    583.656    588.210    588.659    583.656    583.656
 40.270    573.000    592.950    -19.950    583.636    588.236    588.351    583.636    583.636
 40.370    620.048    592.738     27.310    583.618    588.273    588.083    583.618    583.618
 40.470    612.563    592.570     19.993    583.601    588.324    587.848    583.601    583.601
 40.570    598.000    592.442      5.558    583.586    588.388    587.641    583.586    583.586
 40.670    618.000    592.352     25.648    583.573    588.466    587.458    583.573    583.573
 40.770    576.239    592.297    -16.058    583.560    588.561    587.296    583.560    583.560
 40.870    602.227    592.276      9.950    583.550    588.674    587.152    583.550    583.550
 40.970    631.100    592.291     38.810    583.541    588.808    587.024    583.541    583.541
 41.070    580.000    592.342    -12.342    583.533    588.965    586.910    583.533    583.533
 41.170    601.000    592.431      8.569    583.527    589.150    586.810    583.527    583.527
 41.270    587.000    592.564     -5.564    583.523    589.367    586.720    583.523    583.523
 41.370    607.000    592.744     14.256    583.520    589.623    586.642    583.520    583.520
 41.470    621.000    592.981     28.019    583.518    589.926    586.575    583.518    583.518
 41.570    615.000    593.285     21.715    583.518    590.288    586.517    583.518    583.518
 41.670    592.000    593.672     -1.672    583.520    590.724    586.469    583.520    583.520
 41.770    636.385    594.162     42.223    583.522    591.254    586.432    583.522    583.522
 41.870    604.000    594.791      9.209    583.527    591.914    586.405    583.527    583.527
 41.970    613.000    595.620     17.380    583.532    592.763    586.392    583.532    583.532
 42.070    597.000    596.771      0.229    583.539    593.917    586.396    583.539    583.539
 42.170    616.000    598.489     17.511    583.548    595.614    586.426    583.548    583.548
 42.270    587.000    601.244    -14.244    583.558    598.306    586.501    583.558    583.558
 42.370    616.534    605.839     10.695    583.569    602.766    586.649    583.569    583.569
 42.470    629.596    613.432     16.164    583.581    610.108    586.915    583.581    583.581
 42.570    623.000    625.317     -2.317    583.595    621.579    587.348    583.595    583.595
 42.670    632.000    642.379    -10.379    583.611    638.030    587.982    583.611    583.611
 42.770    627.000    664.239    -37.239    583.627    659.097    588.802    583.627    583.627
 42.870    675.000    688.227    -13.227    583.645    682.210    589.705    583.645    583.645
 42.970    666.380    708.444    -42.064    583.664    701.694    590.469    583.664    583.664
 43.070    763.342    716.798     46.545    583.685    709.758    590.785    583.685    583.685
 43.170    665.000    708.919    -43.919    583.707    702.198    590.488    583.707    583.707
 43.270    661.000    689.016    -28.016    583.730    683.062    589.736    583.730    583.730
 43.370    675.000    665.164      9.836    583.754    660.121    588.837    583.754    583.754
 43.470    667.000    643.327     23.673    583.780    639.119    588.017    583.780    583.780
 43.570    583.000    626.249    -43.249    583.806    622.694    587.381    583.806    583.806
 43.670    559.000    614.354    -55.354    583.834    611.256    586.945    583.834    583.834
 43.770    651.000    606.779     44.221    583.863    603.976    586.676    583.863    583.863
 43.870    656.000    602.233     53.767    583.894    599.609    586.524    583.894    583.894
 43.970    574.288    599.553    -25.265    583.926    597.036    586.447    583.926    583.926
 44.070    587.598    597.926    -10.328    583.958    595.476    586.411    583.958    583.958
 44.170    586.000    596.876    -10.876    583.992    594.469    586.401    583.992    583.992
 44.270    573.000    596.151    -23.151    584.027    593.775    586.406    584.027    584.027
 44.370    593.000    595.629     -2.629    584.064    593.273    586.421    584.064    584.064
 44.470    568.000    595.246    -27.246    584.101    592.904    586.444    584.101    584.101
 44.570    588.500    594.967     -6.467    584.139    592.634    586.473    584.139    584.139
 44.670    567.000    594.770    -27.770    584.179    592.441    586.509    584.179    584.179
 44.770    571.000    594.639    -23.639    584.220    592.310    586.550    584.220    584.220
 44.870    587.083    594.563     -7.480    584.261    592.230    586.596    584.261    584.261
 44.970    602.000    594.534      7.466    584.304    592.193    586.646    584.304    584.304
 45.070    646.000    594.546     51.454    584.348    592.193    586.701    584.348    584.348
 45.170    587.000    594.593     -7.593    584.393    592.226    586.761    584.393    584.393
 45.270    556.336    594.672    -38.337    584.439    592.287    586.825    584.439    584.439
 45.370    592.000    594.782     -2.782    584.486    592.375    586.893    584.486    584.486
 45.470    610.490    594.920     15.570    584.534    592.488    586.966    584.534    584.534
 45.570    656.000    595.085     60.915    584.583    592.624    587.044    584.583    584.583
 45.670    626.000    595.277     30.723    584.633    592.784    587.126    584.633    584.633
 45.770    571.989    595.495    -23.506    584.684    592.966    587.213    584.684    584.684
 45.870    574.381    595.741    -21.360    584.736    593.171    587.306    584.736    584.736
 45.970    635.000    596.016     38.984    584.789    593.400    587.404    584.789    584.789
 46.070    664.000    596.320     67.680    584.843    593.654    587.508    584.843    584.843
 46.170    619.193    596.657     22.536    584.898    593.935    587.619    584.898    584.898
 46.270    570.000    597.029    -27.029    584.954    594.245    587.736    584.954    584.954
 46.370    592.000    597.439     -5.439    585.010    594.587    587.861    585.010    585.010
 46.470    570.868    597.893    -27.026    585.068    594.965    587.995    585.068    585.068
 46.570    598.000    598.397     -0.397    585.126    595.384    588.137    585.126    585.126
 46.670    606.000    598.957      7.043    585.186    595.851    588.291    585.186    585.186
 46.770    586.000    599.584    -13.584    585.246    596.373    588.456    585.246    585.246
 46.870    598.102    600.291     -2.189    585.307    596.962    588.635    585.307    585.307
 46.970    585.220    601.098    -15.878    585.369    597.634    588.830    585.369    585.369
 47.070    601.000    602.034     -1.034    585.431    598.418    589.045    585.431    585.431
 47.170    560.000    603.156    -43.156    585.495    599.360    589.287    585.495    585.495
 47.270    606.482    604.564      1.918    585.559    600.552    589.568    585.559    585.559
 47.370    578.000    606.451    -28.451    585.624    602.161    589.909    585.624    585.624
 47.470    608.000    609.145     -1.145    585.690    604.482    590.348    585.690    585.690
 47.570    571.000    613.154    -42.154    585.757    607.963    590.939    585.757    585.757
 47.670    582.000    619.148    -37.148    585.824    613.201    591.759    585.824    585.824
 47.770    597.000    627.819    -30.819    585.892    620.810    592.883    585.892    585.892
 47.870    595.000    639.607    -44.607    585.961    631.180    594.362    585.961    585.961
 47.970    639.000    654.297    -15.297    586.031    644.118    596.175    586.031    586.031
 48.070    655.000    670.557    -15.557    586.101    658.435    598.178    586.101    586.101
 48.170    635.000    685.528    -50.528    586.172    671.584    600.063    586.172    586.172
 48.270    690.000    695.132     -5.132    586.244    679.928    601.389    586.244    586.244
 48.370    720.000    696.140     23.860    586.316    680.590    601.809    586.316    586.316
 48.470    760.000    688.816     71.184    586.389    673.799    601.358    586.389    586.389
 48.570    647.000    676.681    -29.681    586.463    662.680    600.425    586.463    586.463
 48.670    621.530    663.789    -42.259    586.537    650.835    599.461    586.537    586.537
 48.770    642.927    652.895     -9.969    586.612    640.708    598.778    586.612    586.612
 48.870    657.685    645.280     12.404    586.688    633.423    598.530    586.688    586.688
 48.970    603.654    641.175    -37.521    586.764    629.169    598.759    586.764    586.764
 49.070    636.000    640.231     -4.231    586.841    627.612    599.452    586.841    586.841
 49.170    645.149    641.931      3.218    586.918    628.256    600.586    586.918    586.918
 49.270    582.000    645.895    -63.895    586.996    630.712    602.173    586.996    586.996
 49.370    635.237    652.129    -16.892    587.075    634.891    604.307    587.075    587.075
 49.470    609.000    661.359    -52.359    587.154    641.237    607.269    587.154    587.154
 49.570    645.000    675.769    -30.769    587.234    651.235    611.758    587.234    587.234
 49.670    701.000    700.500      0.500    587.314    668.443    619.356    587.314    587.314
 49.770    743.000    746.045     -3.045    587.394    700.149    633.266    587.394    587.394
 49.870    863.499    830.757     32.743    587.475    759.125    659.063    587.475    587.475
 49.970    916.000    980.997    -64.997    587.557    863.819    704.658    587.557    587.557
 50.070   1157.000   1226.331    -69.331    587.639   1034.525    779.321    587.639    587.639
 50.170   1567.000   1584.551    -17.551    587.722   1283.744    888.349    587.722    587.722
 50.270   1975.994   2042.981    -66.987    587.805   1602.687   1027.872    587.805    587.805
 50.370   2498.482   2541.357    -42.875    587.888   1949.460   1179.543    587.888    587.888
 50.470   2853.000   2968.026   -115.026    587.972   2246.431   1309.362    587.972    587.972
 50.570   3217.000   3186.781     30.219    588.057   2398.892   1375.842    588.057    588.057
 50.670   3063.000   3112.018    -49.018    588.141   2347.318   1352.873    588.141    588.141
 50.770   2694.511   2776.708    -82.198    588.226   2114.661   1250.417    588.226    588.226
 50.870   2376.000   2302.668     73.332    588.312   1785.715   1105.461    588.312    588.312
 50.970   1820.000   1819.042      0.958    588.398   1450.426    957.211    588.398    588.398
 51.070   1429.000   1412.851     16.149    588.484   1169.454    832.044    588.484    588.484
 51.170   1064.429   1119.416    -54.987    588.571    967.457    740.651    588.571    588.571
 51.270    933.000    933.776     -0.776    588.658    840.942    681.576    588.658    588.658
 51.370    848.000    829.833     18.167    588.745    771.503    647.133    588.745    588.745
 51.470    824.232    777.337     46.895    588.833    737.551    628.663    588.833    588.833
 51.570    808.000    751.509     56.491    588.921    721.021    619.445    588.921    588.921
 51.670    698.000    736.148    -38.148    589.009    709.823    615.366    589.009    589.009
 51.770    726.000    723.414      2.586    589.097    698.196    614.341    589.097    589.097
 51.870    772.000    711.559     60.441    589.186    685.342    615.422    589.186    589.186
 51.970    658.897    701.423    -42.526    589.275    672.657    618.052    589.275    589.275
 52.070    675.070    693.818    -18.748    589.364    661.589    621.597    589.364    589.364
 52.170    717.370    688.602     28.768    589.454    652.947    625.106    589.454    589.454
 52.270    722.000    684.732     37.268    589.544    646.926    627.343    589.544    589.544
 52.370    690.000    680.897      9.103    589.634    643.322    627.201    589.634    589.634
 52.470    678.066    676.437      1.628    589.724    641.749    624.405    589.724    589.724
 52.570    675.662    671.762      3.900    589.814    641.846    619.724    589.814    589.814
 52.670    624.250    667.882    -43.631    589.905    643.416    614.366    589.905    589.905
 52.770    624.963    665.877    -40.913    589.995    646.533    609.336    589.995    589.995
 52.870    663.000    666.809     -3.809    590.086    651.668    605.226    590.086    590.086
 52.970    713.000    671.948     41.052    590.177    659.874    602.249    590.177    590.177
 53.070    701.281    683.132     18.149    590.268    673.033    600.366    590.268    590.268
 53.170    745.000    703.121     41.879    590.360    694.062    599.416    590.360    590.360
 53.270    745.000    735.663      9.337    590.451    726.869    599.240    590.451    590.451
 53.370    776.000    784.983     -8.983    590.543    775.800    599.720    590.543    590.543
 53.470    799.000    854.448    -55.448    590.634    844.381    600.693    590.634    590.634
 53.570    916.261    945.055    -28.793    590.726    933.451    602.320    590.726    590.726
 53.670   1082.308   1052.452     29.857    590.818   1038.881    604.378    590.818    590.818
 53.770   1164.000   1164.968     -0.968    590.909   1149.283    606.587    590.909    590.909
 53.870   1256.000   1262.058     -6.058    591.001   1244.550    608.507    591.001    591.001
 53.970   1317.535   1317.592     -0.057    591.093   1299.104    609.588    591.093    591.093
 54.070   1247.000   1312.602    -65.602    591.185   1294.373    609.431    591.185    591.185
 54.170   1193.000   1249.223    -56.223    591.277   1232.447    608.078    591.277    591.277
 54.270   1100.491   1148.798    -48.307    591.369   1134.224    605.970    591.369    591.369
 54.370   1016.000   1036.968    -20.968    591.461   1024.816    603.638    591.461    591.461
 54.470    940.000    932.748      7.252    591.553    922.845    601.477    591.553    591.553
 54.570    830.000    846.390    -16.390    591.644    838.353    599.699    591.644    591.644
 54.670    765.000    781.118    -16.118    591.736    774.497    598.369    591.736    591.736
 54.770    688.000    735.492    -47.492    591.828    729.871    597.457    591.828    591.828
 54.870    733.000    705.671     27.329    591.920    700.714    596.883    591.920    591.920
 54.970    674.000    687.244    -13.244    592.011    682.705    596.554    592.011    592.011
 55.070    652.740    676.378    -23.638    592.103    672.093    596.390    592.103    592.103
 55.170    683.000    670.283     12.717    592.194    666.146    596.333    592.194    592.194
 55.270    667.511    667.180      0.332    592.286    663.120    596.346    592.286    592.286
 55.370    647.000    666.056    -19.056    592.377    662.025    596.408    592.377    592.377
 55.470    625.889    666.396    -40.507    592.468    662.355    596.509    592.468    592.468
 55.570    653.000    667.979    -14.979    592.559    663.893    596.645    592.559    592.559
 55.670    699.204    670.760     28.444    592.650    666.595    596.815    592.650    592.650
 55.770    677.000    674.828      2.172    592.740    670.546    597.022    592.740    592.740
 55.870    639.678    680.423    -40.744    592.831    675.978    597.275    592.831    592.831
 55.970    637.000    688.039    -51.039    592.921    683.373    597.586    592.921    592.921
 56.070    671.000    698.649    -27.649    593.011    693.674    597.984    593.011    593.011
 56.170    722.000    714.098      7.902    593.101    708.675    598.519    593.101    593.101
 56.270    744.000    737.718      6.282    593.191    731.614    599.286    593.191    593.191
 56.370    786.000    775.065     10.935    593.280    767.891    600.440    593.280    593.280
 56.470    865.955    834.515     31.440    593.370    825.647    602.214    593.370    593.370
 56.570    907.000    927.154    -20.154    593.459    915.660    604.917    593.459    593.459
 56.670   1030.000   1065.297    -35.297    593.547   1049.900    608.894    593.547    593.547
 56.770   1265.000   1259.158      5.842    593.636   1238.300    614.429    593.636    593.636
 56.870   1537.374   1511.873     25.501    593.724   1483.911    621.612    593.724    593.724
 56.970   1770.000   1813.854    -43.854    593.812   1777.420    630.176    593.812    593.812
 57.070   2093.000   2137.725    -44.725    593.899   2092.218    639.359    593.899    593.899
 57.170   2491.000   2435.432     55.568    593.987   2381.594    647.823    593.987    593.987
 57.270   2669.000   2642.458     26.542    594.074   2582.826    653.773    594.074    594.074
 57.370   2740.000   2699.155     40.845    594.160   2637.909    655.548    594.160    594.160
 57.470   2562.394   2586.447    -24.053    594.247   2528.270    652.617    594.247    594.247
 57.570   2353.000   2340.974     12.026    594.333   2289.512    646.007    594.333    594.333
 57.670   2039.004   2028.649     10.355    594.418   1985.709    637.561    594.418    594.418
 57.770   1717.153   1710.105      7.048    594.503   1675.803    628.979    594.503    594.503
 57.870   1399.749   1426.148    -26.399    594.588   1399.450    621.424    594.588    594.588
 57.970   1144.000   1197.473    -53.473    594.673   1176.728    615.518    594.673    594.673
 58.070   1008.903   1028.861    -19.958    594.757   1012.198    611.488    594.757    594.757
 58.170    867.000    914.743    -47.743    594.840    900.275    609.350    594.840    594.840
 58.270    817.350    844.959    -27.609    594.923    830.790    609.117    594.923    594.923
 58.370    800.000    809.400     -9.400    595.006    793.480    610.936    595.006    595.006
 58.470    790.933    800.681     -9.748    595.089    780.623    615.145    595.089    595.089
 58.570    777.000    814.765    -37.765    595.171    787.753    622.169    595.171    595.171
 58.670    835.987    850.025    -14.038    595.252    812.968    632.285    595.252    595.252
 58.770    955.695    905.502     50.193    595.333    855.497    645.302    595.333    595.333
 58.870    955.697    978.995    -23.298    595.413    914.087    660.276    595.413    595.413
 58.970   1036.121   1065.473    -29.352    595.493    985.552    675.364    595.493    595.493
 59.070   1084.000   1156.283    -72.283    595.573   1063.863    687.944    595.573    595.573
 59.170   1220.000   1240.392    -20.392    595.652   1140.714    695.291    595.652    595.652
 59.270   1313.000   1308.283      4.717    595.730   1208.088    695.903    595.730    595.730
 59.370   1372.775   1354.639     18.137    595.808   1260.105    690.340    595.808    595.808
 59.470   1310.195   1376.335    -66.140    595.886   1291.733    680.504    595.886    595.886
 59.570   1415.432   1371.098     44.334    595.962   1298.654    668.437    595.962    595.962
 59.670   1365.511   1341.664     23.847    596.039   1281.874    655.865    596.039    596.039
 59.770   1259.506   1299.216    -39.710    596.114   1251.180    644.179    596.114    596.114
 59.870   1322.000   1259.237     62.763    596.190   1221.142    634.289    596.190    596.190
 59.970   1260.000   1234.849     25.151    596.264   1204.569    626.513    596.264    596.264
 60.070   1274.000   1233.967     40.033    596.338   1209.536    620.693    596.338    596.338
 60.170   1219.265   1260.067    -40.802    596.411   1239.905    616.449    596.411    596.411
 60.270   1348.000   1313.507     34.493    596.484   1296.420    613.397    596.484    596.484
 60.370   1434.884   1390.540     44.345    596.556   1375.635    611.243    596.556    596.556
 60.470   1525.000   1480.532     44.468    596.628   1467.132    609.776    596.628    596.628
 60.570   1548.226   1564.492    -16.266    596.698   1552.081    608.844    596.698    596.698
 60.670   1586.000   1617.476    -31.476    596.769   1605.654    608.333    596.769    596.769
 60.770   1556.274   1616.964    -60.690    596.838   1605.408    608.168    596.838    596.838
 60.870   1550.000   1555.090     -5.090    596.907   1543.518    608.295    596.907    596.907
 60.970   1425.000   1443.764    -18.764    596.975   1431.914    608.686    596.975    596.975
 61.070   1337.000   1306.383     30.617    597.042   1293.991    609.334    597.042    597.042
 61.170   1173.000   1166.176      6.824    597.109   1152.949    610.267    597.109    597.109
 61.270   1018.000   1040.330    -22.330    597.175   1025.890    611.567    597.175    597.175
 61.370    927.000    938.988    -11.988    597.241    922.781    613.411    597.241    597.241
 61.470    826.000    866.312    -40.312    597.305    847.456    616.131    597.305    597.305
 61.570    874.719    822.525     52.194    597.369    799.574    620.288    597.369    597.369
 61.670    821.000    806.321     14.679    597.432    776.956    626.758    597.432    597.432
 61.770    838.896    816.916     21.980    597.494    777.600    636.759    597.494    597.494
 61.870    781.000    855.082    -74.082    597.556    800.781    651.786    597.556    597.556
 61.970    953.095    922.865     30.230    597.617    847.009    673.375    597.617    597.617
 62.070   1092.000   1022.055     69.945    597.677    916.930    702.669    597.677    597.677
 62.170   1100.000   1151.865    -51.865    597.736   1009.581    739.848    597.736    597.736
 62.270   1278.593   1306.462    -27.868    597.795   1120.512    783.530    597.795    597.795
 62.370   1520.476   1472.960     47.516    597.852   1240.270    830.292    597.852    597.852
 62.470   1610.575   1630.414    -19.839    597.909   1353.617    874.432    597.909    597.909
 62.570   1693.000   1751.068    -58.068    597.965   1440.407    908.351    597.965    597.965
 62.670   1829.867   1806.996     22.871    598.020   1480.383    924.383    598.020    598.020
 62.770   1768.000   1782.889    -14.889    598.075   1462.429    918.331    598.075    598.075
 62.870   1672.000   1685.426    -13.426    598.128   1391.365    892.040    598.128    598.128
 62.970   1604.153   1538.714     65.438    598.181   1284.641    852.155    598.181    598.181
 63.070   1309.647   1371.465    -61.818    598.232   1163.052    806.588    598.232    598.232
 63.170   1205.000   1207.645     -2.645    598.283   1043.955    761.942    598.283    598.283
 63.270   1008.437   1063.241    -54.804    598.333    938.933    722.627    598.333    598.333
 63.370   1025.000    946.346     78.654    598.382    853.844    690.878    598.382    598.382
 63.470    874.000    858.575     15.425    598.430    789.856    667.145    598.430    598.430
 63.570    850.000    797.125     52.875    598.478    744.936    650.662    598.478    598.478
 63.670    770.000    757.004     12.996    598.524    715.465    640.055    598.524    598.524
 63.770    710.000    732.940    -22.940    598.570    697.625    633.874    598.570    598.570
 63.870    735.000    720.541     14.459    598.614    688.229    630.912    598.614    598.614
 63.970    767.000    716.980     50.020    598.658    685.210    630.409    598.658    598.658
 64.070    765.589    721.129     44.461    598.700    687.691    632.115    598.700    598.700
 64.170    695.649    733.456    -37.807    598.742    695.861    636.307    598.742    598.742
 64.270    796.000    755.775     40.225    598.783    710.731    643.786    598.783    598.783
 64.370    792.000    790.860      1.140    598.822    733.788    655.840    598.822    598.822
 64.470    887.384    841.853     45.531    598.861    766.524    674.117    598.861    598.861
 64.570    936.000    911.414     24.586    598.899    809.852    700.364    598.899    598.899
 64.670   1031.000   1000.619     30.381    598.936    863.450    735.981    598.936    598.936
 64.770   1078.291   1107.714    -29.423    598.971    925.106    781.428    598.971    598.971
 64.870   1237.000   1226.927     10.073    599.006    990.166    835.590    599.006    599.006
 64.970   1372.000   1347.678     24.322    599.040   1051.304    895.218    599.040    599.040
 65.070   1521.352   1454.944     66.409    599.072   1099.229    954.586    599.072    599.072
 65.170   1655.000   1531.814    123.186    599.104   1125.149   1005.577    599.104    599.104
 65.270   1586.000   1564.269     21.731    599.135   1124.412   1038.822    599.135    599.135
 65.370   1587.000   1546.193     40.807    599.164   1098.591   1046.632    599.164    599.164
 65.470   1556.000   1482.083     73.917    599.193   1054.327   1026.852    599.193    599.193
 65.570   1444.000   1385.528     58.472    599.220   1000.404    984.282    599.220    599.220
 65.670   1282.000   1273.679      8.321    599.247    944.976    927.918    599.247    599.247
 65.770   1202.000   1161.551     40.449    599.272    893.842    866.973    599.272    599.272
 65.870   1020.000   1059.255    -39.255    599.296    849.932    808.628    599.296    599.296
 65.970    943.000    971.836    -28.836    599.319    813.681    757.493    599.319    599.319
 66.070    883.000    900.452    -17.452    599.341    784.013    715.803    599.341    599.341
 66.170    786.000    844.037    -58.037    599.362    759.540    683.882    599.362    599.362
 66.270    795.131    800.654     -5.523    599.382    739.313    660.743    599.382    599.382
 66.370    710.000    768.144    -58.144    599.401    722.838    644.722    599.401    599.401
 66.470    714.033    744.370    -30.336    599.418    709.801    633.997    599.418    599.418
 66.570    658.000    727.425    -69.425    599.435    699.920    626.946    599.435    599.435
 66.670    740.488    715.779     24.710    599.450    692.933    622.299    599.450    599.450
 66.770    703.000    708.317     -5.317    599.464    688.616    619.165    599.464    599.464
 66.870    751.289    704.295     46.994    599.477    686.803    616.968    599.477    599.477
 66.970    711.824    703.290      8.534    599.489    687.416    615.362    599.489    599.489
 67.070    702.637    705.206     -2.570    599.499    690.551    614.154    599.499    599.499
 67.170    684.000    710.357    -26.357    599.509    696.619    613.245    599.509    599.509
 67.270    716.328    719.635     -3.307    599.517    706.549    612.602    599.517    599.517
 67.370    707.000    734.745    -27.745    599.524    722.033    612.235    599.524    599.524
 67.470    729.127    758.461    -29.334    599.530    745.795    612.195    599.530    599.530
 67.570    769.000    794.844    -25.844    599.535    781.801    612.574    599.535    599.535
 67.670    884.000    849.253     34.747    599.538    835.281    613.504    599.538    599.538
 67.770    947.787    928.006     19.781    599.541    912.394    615.144    599.541    599.541
 67.870   1044.621   1037.505      7.117    599.542   1019.380    617.655    599.542    599.542
 67.970   1130.000   1182.797    -52.797    599.542   1161.161    621.167    599.542    599.542
 68.070   1360.000   1365.694     -5.694    599.540   1339.504    625.722    599.540    599.540
 68.170   1542.000   1582.744    -40.744    599.538   1551.061    631.222    599.538    599.538
 68.270   1734.000   1823.437    -89.437    599.534   1785.607    637.384    599.534    599.534
 68.370   2099.746   2068.882     30.864    599.529   2024.762    643.697    599.529    599.529
 68.470   2363.234   2291.454     71.780    599.522   2241.644    649.422    599.522    599.522
 68.570   2390.292   2457.125    -66.832    599.515   2403.135    653.645    599.515    599.515
 68.670   2591.000   2533.572     57.428    599.506   2477.774    655.501    599.506    599.506
 68.770   2584.000   2503.580     80.420    599.495   2448.798    654.526    599.495    599.495
 68.870   2360.967   2374.277    -13.309    599.484   2323.132    650.909    599.484    599.484
 68.970   2210.305   2172.930     37.374    599.471   2127.311    645.378    599.471    599.471
 69.070   1970.000   1933.981     36.019    599.457   1894.859    638.853    599.457    599.457
 69.170   1699.000   1688.329     10.671    599.442   1655.859    632.158    599.442    599.442
 69.270   1459.000   1458.807      0.193    599.425   1432.537    625.903    599.425    599.425
 69.370   1217.829   1259.571    -41.742    599.407   1238.680    620.466    599.407    599.407
 69.470   1203.000   1097.048    105.952    599.388   1080.548    616.018    599.388    599.388
 69.570    968.461    971.551     -3.089    599.368    958.448    612.566    599.368    599.368
 69.670    898.496    879.237     19.258    599.346    868.643    610.009    599.346    599.346
 69.770    817.059    814.101      2.959    599.323    805.287    608.185    599.323    599.323
 69.870    781.696    769.627     12.070    599.298    762.040    606.918    599.298    599.298
 69.970    773.000    739.910     33.090    599.272    733.160    606.045    599.272    599.272
 70.070    767.000    720.232     46.768    599.245    714.040    605.452    599.245    599.245
 70.170    726.319    707.138     19.181    599.217    701.324    605.041    599.217    599.217
 70.270    739.000    698.302     40.698    599.187    692.747    604.749    599.187    599.187
 70.370    737.000    692.259     44.741    599.155    686.883    604.537    599.155    599.155
 70.470    728.000    688.141     39.859    599.123    682.885    604.381    599.123    599.123
 70.570    643.969    685.462    -41.493    599.089    680.282    604.270    599.089    599.089
 70.670    698.655    683.981     14.674    599.054    678.837    604.197    599.054    599.054
 70.770    732.000    683.618     48.382    599.017    678.472    604.161    599.017    599.017
 70.870    727.000    684.434     42.566    598.979    679.245    604.164    598.979    598.979
 70.970    708.000    686.643     21.357    598.939    681.360    604.216    598.939    598.939
 71.070    694.000    690.674      3.326    598.899    685.233    604.332    598.899    598.899
 71.170    702.097    697.273      4.823    598.856    691.580    604.538    598.856    598.856
 71.270    660.000    707.631    -47.631    598.813    701.551    604.878    598.813    598.813
 71.370    694.000    723.531    -29.531    598.768    716.864    605.414    598.768    598.768
 71.470    759.912    747.462     12.450    598.721    739.919    606.235    598.721    598.721
 71.570    796.000    782.632     13.368    598.673    773.810    607.454    598.673    598.673
 71.670    875.024    832.808     42.215    598.624    822.169    609.206    598.624    598.624
 71.770    860.000    901.896    -41.896    598.574    888.763    611.628    598.574    598.574
 71.870    971.000    993.232    -22.232    598.522    976.809    614.840    598.522    598.522
 71.970   1097.751   1108.639    -10.888    598.468   1088.065    618.906    598.468    598.468
 72.070   1254.615   1247.368      7.247    598.413   1221.807    623.802    598.413    598.413
 72.170   1387.130   1405.091    -17.961    598.357   1373.864    629.377    598.357    598.357
 72.270   1498.000   1573.104    -75.104    598.299   1535.836    635.326    598.299    598.299
 72.370   1803.000   1737.804     65.196    598.240   1694.605    641.172    598.240    598.240
 72.470   1925.000   1880.858     44.142    598.179   1832.485    646.271    598.179    598.179
 72.570   1915.579   1981.193    -65.615    598.117   1929.149    649.884    598.117    598.117
 72.670   2073.325   2020.388     52.937    598.054   1966.824    651.364    598.054    598.054
 72.770   2038.047   1990.282     47.765    597.989   1937.630    650.425    597.989    597.989
 72.870   1897.261   1897.178      0.083    597.922   1847.638    647.293    597.922    597.922
 72.970   1746.417   1758.488    -12.070    597.854   1713.639    642.579    597.854    597.854
 73.070   1660.227   1595.235     64.992    597.785   1555.915    637.020    597.785    597.785
 73.170   1401.000   1426.266    -25.266    597.714   1392.655    631.269    597.714    597.714
 73.270   1201.866   1265.845    -63.980    597.642   1237.639    625.815    597.642    597.642
 73.370   1154.000   1123.317     30.683    597.568   1099.904    620.963    597.568    597.568
 73.470    981.000   1003.548    -22.548    597.493    984.169    616.863    597.493    597.493
 73.570    909.000    907.717      1.283    597.416    891.584    613.544    597.416    597.416
 73.670    838.290    834.311      3.979    597.338    820.691    610.955    597.338    597.338
 73.770    773.000    780.195     -7.195    597.258    768.444    609.007    597.258    597.258
 73.870    742.000    741.572      0.428    597.177    731.143    607.603    597.177    597.177
 73.970    702.891    714.710    -11.819    597.095    705.153    606.648    597.095    597.095
 74.070    668.009    696.400    -28.391    597.011    687.337    606.072    597.011    597.011
 74.170    694.000    684.145      9.855    596.925    675.245    605.823    596.925    596.925
 74.270    634.000    676.160    -42.160    596.838    667.120    605.878    596.838    596.838
 74.370    707.000    671.261     35.739    596.750    661.784    606.229    596.750    596.750
 74.470    663.000    668.699     -5.699    596.660    658.488    606.876    596.660    596.660
 74.570    694.000    668.005     25.995    596.568    656.763    607.819    596.568    596.568
 74.670    624.000    668.846    -44.846    596.475    656.292    609.043    596.475    596.475
 74.770    653.000    670.925    -17.925    596.381    656.814    610.511    596.381    596.381
 74.870    719.580    673.906     45.675    596.285    658.058    612.157    596.285    596.285
 74.970    648.000    677.363    -29.363    596.187    659.702    613.879    596.187    596.187
 75.070    747.000    680.764     66.236    596.088    661.352    615.537    596.088    596.088
 75.170    657.000    683.495    -26.495    595.988    662.557    616.967    595.988    595.988
 75.270    722.000    684.962     37.038    595.885    662.881    618.011    595.885    595.885
 75.370    695.000    684.784     10.216    595.782    662.036    618.576    595.782    595.782
 75.470    741.000    682.981     58.019    595.677    660.009    618.693    595.677    595.677
 75.570    652.000    680.009    -28.009    595.570    657.087    618.532    595.570    595.570
 75.670    706.000    676.634     29.366    595.462    653.762    618.368    595.462    595.462
 75.770    740.000    673.759     66.241    595.353    650.598    618.541    595.353    595.353
 75.870    694.000    672.333     21.667    595.242    648.162    619.432    595.242    595.242
 75.970    704.000    673.320     30.680    595.129    646.997    621.463    595.129    595.129
 76.070    714.000    677.705     36.295    595.015    647.626    625.095    595.015    595.015
 76.170    672.129    686.479    -14.350    594.899    650.549    630.822    594.899    594.899
 76.270    718.000    700.581     17.419    594.782    656.216    639.129    594.782    594.782
 76.370    722.000    720.791      1.209    594.664    664.987    650.437    594.664    594.664
 76.470    747.000    747.580     -0.580    594.543    677.065    665.016    594.543    594.543
 76.570    794.361    780.925     13.437    594.422    692.410    682.880    594.422    594.422
 76.670    825.000    820.115      4.885    594.298    710.655    703.688    594.298    594.298
 76.770    834.571    863.588    -29.017    594.174    731.027    726.650    594.174    594.174
 76.870    893.472    908.797    -15.324    594.047    752.287    750.459    594.047    594.047
 76.970    953.000    952.144      0.856    593.920    772.696    773.257    593.920    593.920
 77.070   1003.000    989.085     13.915    593.790    790.068    792.691    593.790    593.790
 77.170   1055.226   1014.652     40.574    593.660    802.011    806.183    593.660    593.660
 77.270    984.000   1024.658    -40.658    593.527    806.518    811.554    593.527    593.527
 77.370   1044.629   1017.219     27.410    593.393    802.681    807.828    593.393    593.393
 77.470    989.435    993.612     -4.177    593.258    791.110    795.671    593.258    593.258
 77.570    959.000    957.668      1.332    593.121    773.635    777.080    593.121    593.121
 77.670    954.577    914.266     40.311    592.983    752.594    754.596    592.983    592.983
 77.770    887.000    868.041     18.959    592.843    730.206    730.633    592.843    592.843
 77.870    812.000    822.736    -10.736    592.701    708.263    707.140    592.701    592.701
 77.970    724.000    781.029    -57.029    592.558    688.048    685.514    592.558    592.558
 78.070    785.899    744.578     41.321    592.414    670.355    666.619    592.414    592.414
 78.170    731.312    714.142     17.170    592.268    655.547    650.850    592.268    592.268
 78.270    725.552    689.754     35.798    592.121    643.637    638.227    592.121    592.121
 78.370    653.000    670.926    -17.926    591.972    634.394    628.496    591.972    591.972
 78.470    643.000    656.864    -13.864    591.821    627.434    621.245    591.821    591.821
 78.570    625.000    646.654    -21.654    591.669    622.319    615.999    591.669    591.669
 78.670    672.000    639.408     32.592    591.515    618.622    612.296    591.515    591.515
 78.770    605.000    634.348    -29.348    591.360    615.970    609.733    591.360    591.360
 78.870    651.789    630.851     20.938    591.204    614.064    607.987    591.204    591.204
 78.970    630.000    628.451      1.549    591.046    612.678    606.816    591.046    591.046
 79.070    606.000    626.824    -20.824    590.886    611.655    606.051    590.886    590.886
 79.170    620.000    625.754     -5.754    590.725    610.892    605.583    590.725    590.725
 79.270    648.518    625.114     23.404    590.563    610.326    605.347    590.563    590.563
 79.370    609.000    624.836    -15.836    590.399    609.922    605.309    590.399    590.399
 79.470    644.000    624.902     19.098    590.233    609.667    605.464    590.233    590.233
 79.570    625.000    625.330     -0.330    590.066    609.564    605.829    590.066    590.066
 79.670    583.000    626.180    -43.180    589.897    609.628    606.445    589.897    589.897
 79.770    637.000    627.555      9.445    589.727    609.888    607.390    589.727    589.727
 79.870    644.000    629.619     14.381    589.556    610.383    608.787    589.556    589.556
 79.970    644.914    632.619     12.295    589.383    611.167    610.829    589.383    589.383
 80.070    669.593    636.917     32.676    589.208    612.311    613.807    589.208    589.208
 80.170    625.000    643.027    -18.027    589.032    613.910    618.141    589.032    589.032
 80.270    650.000    651.654     -1.654    588.855    616.083    624.414    588.855    588.855
 80.370    627.432    663.721    -36.290    588.676    618.988    633.393    588.676    588.676
 80.470    685.000    680.370      4.630    588.496    622.818    646.028    588.496    588.496
 80.570    646.000    702.919    -56.919    588.314    627.799    663.409    588.314    588.314
 80.670    730.965    732.757     -1.791    588.130    634.187    686.668    588.130    588.130
 80.770    748.338    771.175    -22.836    587.946    642.245    716.836    587.946    587.946
 80.870    801.288    819.154    -17.866    587.759    652.230    754.635    587.759    587.759
 80.970    824.283    877.113    -52.830    587.572    664.372    800.257    587.572    587.572
 81.070   1011.000    944.638     66.362    587.382    678.827    853.130    587.382    587.382
 81.170   1092.000   1020.210     71.790    587.192    695.615    911.717    587.192    587.192
 81.270   1148.000   1100.995     47.005    587.000    714.536    973.386    587.000    587.000
 81.370   1303.000   1182.763    120.237    586.806    735.106   1034.392    586.806    586.806
 81.470   1334.000   1260.054     73.946    586.611    756.534   1090.065    586.611    586.611
 81.570   1376.287   1326.720     49.567    586.415    777.772   1135.307    586.415    586.415
 81.670   1313.681   1376.949    -63.268    586.217    797.643   1165.483    586.217    586.217
 81.770   1386.084   1406.459    -20.375    586.018    814.999   1177.459    586.018    586.018
 81.870   1471.016   1413.466     57.550    585.817    828.982   1170.305    585.817    585.817
 81.970   1422.338   1398.498     23.840    585.615    838.952   1145.187    585.615    585.615
 82.070   1504.000   1364.048    139.952    585.411    844.575   1104.931    585.411    585.411
 82.170   1414.000   1314.080     99.920    585.206    845.834   1053.515    585.206    585.206
 82.270   1212.716   1253.368    -40.652    585.000    842.933    995.512    585.000    585.000
 82.370   1223.812   1186.714     37.098    584.792    836.155    935.437    584.792    584.792
 82.470   1189.000   1118.323     70.677    584.583    825.831    877.165    584.583    584.583
 82.570   1098.000   1051.545     46.455    584.373    812.427    823.581    584.373    584.373
 82.670    944.450    988.865    -44.415    584.161    796.628    776.486    584.161    584.161
 82.770    962.000    931.934     30.066    583.947    779.280    736.686    583.947    583.947
 82.870    841.000    881.572    -40.572    583.733    761.200    704.183    583.733    583.733
 82.970    795.000    837.864    -42.864    583.516    743.046    678.406    583.516    583.516
 83.070    844.000    800.390     43.610    583.299    725.302    658.451    583.299    583.299
 83.170    719.000    768.532    -49.532    583.080    708.367    643.301    583.080    583.080
 83.270    752.361    741.705     10.655    582.860    692.633    631.980    582.860    582.860
 83.370    713.713    719.450     -5.737    582.638    678.480    623.647    582.638    582.638
 83.470    729.570    701.430     28.140    582.416    666.247    617.628    582.416    582.416
 83.570    640.000    687.390    -47.390    582.191    656.185    613.417    582.191    582.191
 83.670    656.000    677.115    -21.115    581.966    648.443    610.650    581.966    581.966
 83.770    650.526    670.398    -19.872    581.739    643.066    609.073    581.739    581.739
 83.870    649.000    667.000    -18.000    581.511    640.000    608.504    581.511    581.511
 83.970    682.789    666.617     16.171    581.281    639.086    608.796    581.281    581.281
 84.070    697.892    668.847     29.045    581.050    640.064    609.807    581.050    581.050
 84.170    703.938    673.167     30.772    580.818    642.574    611.377    580.818    580.818
 84.270    699.000    678.929     20.071    580.585    646.160    613.311    580.585    580.585
 84.370    661.729    685.362    -23.633    580.350    650.282    615.380    580.350    580.350
 84.470    679.000    691.592    -12.592    580.114    654.334    617.317    580.114    580.114
 84.570    641.000    696.692    -55.692    579.876    657.677    618.832    579.876    579.876
 84.670    627.000    699.781    -72.781    579.638    659.707    619.651    579.638    579.638
 84.770    693.839    700.188     -6.350    579.398    659.965    619.561    579.398    579.398
 84.870    679.525    697.623    -18.098    579.157    658.245    618.478    579.157    579.157
 84.970    632.000    692.249    -60.249    578.914    654.649    616.462    578.914    578.914
 85.070    689.000    684.603      4.397    578.671    649.523    613.704    578.671    578.671
 85.170    712.907    675.428     37.479    578.426    643.354    610.458    578.426    578.426
 85.270    651.000    665.497    -14.497    578.179    636.646    606.995    578.179    578.179
 85.370    686.508    655.511     30.997    577.932    629.850    603.565    577.932    577.932
 85.470    623.000    646.054    -23.054    577.683    623.332    600.382    577.683    577.683
 85.570    580.000    637.574    -57.574    577.434    617.365    597.623    577.434    577.434
 85.670    610.000    630.385    -20.385    577.183    612.124    595.427    577.183    577.183
 85.770    602.379    624.678    -22.299    576.930    607.698    593.895    576.930    576.930
 85.870    575.889    620.539    -44.651    576.677    604.101    593.101    576.677    576.677
 85.970    583.000    617.973    -34.973    576.422    601.292    593.090    576.422    576.422
 86.070    610.662    616.929     -6.267    576.167    599.198    593.882    576.167    576.167
 86.170    632.000    617.312     14.688    575.910    597.731    595.475    575.910    575.910
 86.270    598.000    619.008    -21.008    575.652    596.807    597.834    575.652    575.652
 86.370    616.000    621.879     -5.879    575.392    596.358    600.892    575.392    575.392
 86.470    691.000    625.771     65.229    575.132    596.343    604.536    575.132    575.132
 86.570    639.000    630.514      8.486    574.871    596.750    608.606    574.871    574.871
 86.670    588.000    635.916    -47.916    574.608    597.603    612.887    574.608    574.608
 86.770    683.000    641.761     41.239    574.344    598.956    617.111    574.344    574.344
 86.870    654.923    647.817      7.106    574.079    600.896    620.957    574.079    574.079
 86.970    662.000    653.844      8.156    573.813    603.533    624.076    573.813    573.813
 87.070    707.000    659.629     47.371    573.546    606.992    626.130    573.546    573.546
 87.170    643.000    665.041    -22.041    573.278    611.401    626.858    573.278    573.278
 87.270    745.000    670.084     74.916    573.009    616.876    626.151    573.009    573.009
 87.370    683.803    674.906      8.898    572.739    623.496    624.075    572.739    572.739
 87.470    680.000    679.743      0.257    572.467    631.280    620.850    572.467    572.467
 87.570    706.000    684.829     21.171    572.195    640.161    616.774    572.195    572.195
 87.670    688.000    690.303     -2.303    571.922    649.965    612.161    571.922    571.922
 87.770    750.000    696.149     53.851    571.647    660.390    607.297    571.647    571.647
 87.870    696.000    702.170     -6.170    571.372    670.997    602.427    571.372    571.372
 87.970    740.000    707.985     32.015    571.096    681.208    597.747    571.096    571.096
 88.070    745.000    713.049     31.951    570.818    690.330    593.404    570.818    570.818
 88.170    690.423    716.713    -26.291    570.540    697.621    589.496    570.540    570.540
 88.270    717.000    718.359     -1.359    570.260    702.411    586.073    570.260    570.260
 88.370    716.000    717.561     -1.561    569.980    704.266    583.144    569.980    569.980
 88.470    716.905    714.230      2.675    569.699    703.120    580.686    569.699    569.699
 88.570    743.000    708.643     34.357    569.417    699.294    578.654    569.417    569.417
 88.670    722.000    701.358     20.642    569.133    693.398    576.996    569.133    569.133
 88.770    652.000    693.075    -41.075    568.849    686.186    575.655    568.849    568.849
 88.870    651.891    684.520    -32.630    568.564    678.439    574.579    568.564    568.564
 88.970    633.850    676.382    -42.532    568.279    670.889    573.719    568.279    568.279
 89.070    640.000    669.263    -29.263    567.992    664.181    573.036    567.992    567.992
 89.170    661.000    663.647     -2.647    567.704    658.829    572.497    567.704    567.704
 89.270    639.000    659.867    -20.867    567.416    655.193    572.077    567.416    567.416
 89.370    677.000    658.085     18.915    567.126    653.458    571.752    567.126    567.126
 89.470    673.000    658.288     14.712    566.836    653.630    571.504    566.836    566.836
 89.570    699.652    660.287     39.365    566.545    655.539    571.313    566.545    566.545
 89.670    665.000    663.738      1.262    566.253    658.857    571.163    566.253    566.253
 89.770    647.559    668.155    -20.595    565.961    663.120    571.034    565.961    565.961
 89.870    681.000    672.941      8.059    565.667    667.750    570.905    565.667    565.667
 89.970    636.281    677.420    -41.139    565.373    672.092    570.755    565.373    565.373
 90.070    705.531    680.894     24.637    565.078    675.471    570.562    565.078    565.078
 90.170    692.000    682.732      9.268    564.782    677.273    570.306    564.782    564.782
 90.270    681.000    682.478     -1.478    564.486    677.057    569.976    564.486    564.486
 90.370    679.000    679.953     -0.953    564.189    674.646    569.565    564.189    564.189
 90.470    666.000    675.279     -9.279    563.891    670.158    569.079    563.891    563.891
 90.570    644.971    668.825    -23.854    563.592    663.949    568.533    563.592    563.592
 90.670    707.000    661.097     45.903    563.293    656.506    567.944    563.293    563.293
 90.770    648.000    652.633     -4.633    562.993    648.349    567.330    562.993    562.993
 90.870    630.000    643.931    -13.931    562.692    639.961    566.710    562.692    562.692
 90.970    589.784    635.415    -45.631    562.391    631.750    566.097    562.391    562.391
 91.070    666.713    627.417     39.295    562.089    624.038    565.502    562.089    562.089
 91.170    574.994    620.178    -45.184    561.787    617.057    564.935    561.787    561.787
 91.270    646.000    613.849     32.151    561.483    610.954    564.400    561.483    561.483
 91.370    575.000    608.502    -33.502    561.180    605.798    563.900    561.180    561.180
 91.470    646.210    604.143     42.067    560.875    601.596    563.434    560.875    560.875
 91.570    624.000    600.730     23.270    560.570    598.307    563.002    560.570    560.570
 91.670    596.164    598.195     -2.031    560.265    595.864    562.601    560.265    560.265
 91.770    607.000    596.456     10.544    559.959    594.189    562.229    559.959    559.959
 91.870    597.000    595.437      1.563    559.652    593.208    561.882    559.652    559.652
 91.970    608.000    595.082     12.918    559.345    592.866    561.560    559.345    559.345
 92.070    615.000    595.362     19.638    559.038    593.135    561.261    559.038    559.038
 92.170    626.865    596.282     30.582    558.730    594.021    560.987    558.730    558.730
 92.270    583.000    597.887    -14.887    558.421    595.564    560.738    558.421    558.421
 92.370    578.010    600.256    -22.246    558.112    597.842    560.517    558.112    558.112
 92.470    561.092    603.503    -42.411    557.803    600.965    560.329    557.803    557.803
 92.570    570.000    607.769    -37.769    557.493    605.069    560.179    557.493    557.493
 92.670    641.000    613.214     27.786    557.183    610.308    560.072    557.183    557.183
 92.770    642.000    620.003     21.997    556.872    616.842    560.012    556.872    556.872
 92.870    622.000    628.293     -6.293    556.561    624.823    560.004    556.561    556.561
 92.970    628.117    638.213    -10.096    556.250    634.379    560.052    556.250    556.250
 93.070    610.250    649.854    -39.604    555.938    645.598    560.156    555.938    555.938
 93.170    657.000    663.247     -6.247    555.626    658.513    560.315    555.626    555.626
 93.270    714.226    678.352     35.875    555.314    673.086    560.527    555.314    555.314
 93.370    704.000    695.045      8.955    555.001    689.201    560.785    555.001    555.001
 93.470    708.013    713.109     -5.096    554.688    706.646    561.084    554.688    554.688
 93.570    724.904    732.230     -7.326    554.375    725.115    561.416    554.375    554.375
 93.670    737.000    752.001    -15.001    554.061    744.208    561.774    554.061    554.061
 93.770    788.000    771.944     16.056    553.748    763.448    562.157    553.748    553.748
 93.870    770.000    791.555    -21.555    553.434    782.329    562.569    553.434    553.434
 93.970    805.000    810.448     -5.448    553.120    800.444    563.028    553.120    553.120
 94.070    832.000    828.403      3.597    552.805    817.542    563.568    552.805    552.805
 94.170    811.000    845.430    -34.430    552.491    833.580    564.243    552.491    552.491
 94.270    840.223    861.778    -21.555    552.176    848.734    565.121    552.176    552.176
 94.370    822.000    877.817    -55.817    551.862    863.295    566.284    551.862    551.862
 94.470    866.000    893.901    -27.901    551.547    877.536    567.812    551.547    551.547
 94.570    923.000    910.248     12.752    551.232    891.603    569.778    551.232    551.232
 94.670    927.000    926.891      0.109    550.917    905.479    572.230    550.917    550.917
 94.770    970.723    943.701     27.022    550.602    919.016    575.190    550.602    550.602
 94.870    954.000    960.468     -6.468    550.287    932.022    578.638    550.287    550.287
 94.970    955.000    976.966    -21.966    549.971    944.331    582.514    549.971    549.971
 95.070    996.925    992.952      3.973    549.656    955.813    586.707    549.656    549.656
 95.170    964.059   1008.094    -44.035    549.341    966.291    591.059    549.341    549.341
 95.270   1076.472   1021.861     54.611    549.026    975.440    595.368    549.026    549.026
 95.370   1012.000   1033.455    -21.455    548.711    982.701    599.391    548.711    548.711
 95.470   1005.644   1041.819    -36.175    548.396    987.289    602.860    548.396    548.396
 95.570   1071.517   1045.758     25.759    548.081    988.276    605.506    548.081    548.081
 95.670    987.000   1044.138    -57.138    547.766    984.772    607.086    547.766    547.766
 95.770   1086.000   1036.198     49.802    547.452    976.178    607.435    547.452    547.452
 95.870   1059.000   1021.758     37.242    547.137    962.374    606.494    547.137    547.137
 95.970   1016.000   1001.359     14.641    546.823    943.839    604.324    546.823    546.823
 96.070    997.281    976.187     21.094    546.509    921.588    601.096    546.509    546.509
 96.170    965.519    947.867     17.652    546.195    897.004    597.052    546.195    546.195
 96.270    950.050    918.232     31.818    545.881    871.648    592.463    545.881    545.881
 96.370    936.778    889.142     47.636    545.568    847.112    587.596    545.568    545.568
 96.470    814.653    862.375    -47.723    545.254    824.931    582.697    545.254    545.254
 96.570    878.000    839.566     38.434    544.942    806.530    577.974    544.942    544.942
 96.670    813.000    822.170     -9.170    544.629    793.200    573.591    544.629    544.629
 96.770    807.000    811.444     -4.444    544.317    786.081    569.666    544.317    544.317
 96.870    818.000    808.434      9.566    544.005    786.145    566.274    544.005    544.005
 96.970    800.000    813.968    -13.968    543.693    794.187    563.446    543.693    543.693
 97.070    862.000    828.650     33.350    543.382    810.812    561.182    543.382    543.382
 97.170    821.922    852.843    -30.921    543.071    836.411    559.456    543.071    543.071
 97.270    910.000    886.655     23.345    542.761    871.134    558.224    542.761    542.761
 97.370   1000.000    929.904     70.096    542.451    914.851    557.435    542.451    542.451
 97.470   1043.000    982.070     60.930    542.141    967.099    557.031    542.141    542.141
 97.570   1058.000   1042.252     15.748    541.832   1027.040    556.952    541.832    541.832
 97.670   1095.709   1109.248    -13.539    541.524   1093.529    557.141    541.524    541.524
 97.770   1196.000   1181.240     14.760    541.216   1164.815    557.531    541.216    541.216
 97.870   1258.000   1255.994      2.006    540.909   1238.727    558.058    540.909    540.909
 97.970   1360.000   1330.740     29.260    540.602   1312.571    558.651    540.602    540.602
 98.070   1390.000   1402.244    -12.244    540.296   1383.185    559.233    540.296    540.296
 98.170   1444.545   1466.897    -22.352    539.990   1447.043    559.727    539.990    539.990
 98.270   1532.000   1520.941     11.059    539.685   1500.464    560.053    539.685    539.685
 98.370   1630.762   1560.852     69.911    539.381   1539.998    560.139    539.381    539.381
 98.470   1583.000   1583.861     -0.861    539.077   1562.932    559.928    539.077    539.077
 98.570   1643.544   1588.468     55.076    538.775   1567.793    559.391    538.775    538.775
 98.670   1630.045   1574.743     55.302    538.472   1554.650    558.527    538.472    538.472
 98.770   1618.000   1544.289     73.711    538.171   1525.072    557.368    538.171    538.171
 98.870   1462.402   1499.890    -37.488    537.871   1481.789    555.969    537.871    537.871
 98.970   1403.473   1445.027    -41.554    537.571   1428.213    554.396    537.571    537.571
 99.070   1348.370   1383.425    -35.055    537.272   1368.001    552.718    537.272    537.272
 99.170   1367.112   1318.730     48.381    536.974   1304.731    551.002    536.974    536.974
 99.270   1266.480   1254.304     12.176    536.677   1241.704    549.309    536.677    536.677
 99.370   1202.000   1193.114      8.886    536.380   1181.836    547.691    536.380    536.380
 99.470   1084.413   1137.696    -53.282    536.085   1127.621    546.190    536.085    536.085
 99.570   1106.000   1090.150     15.850    535.790   1081.128    544.838    535.790    535.790
 99.670   1046.087   1052.176     -6.090    535.497   1044.032    543.661    535.497    535.497
 99.770    997.000   1025.108    -28.108    535.205   1017.652    542.673    535.205    535.205
 99.870   1007.000   1009.943     -2.943    534.913   1002.981    541.880    534.913    534.913
 99.970    986.000   1007.368    -21.368    534.623   1000.704    541.284    534.623    534.623
100.070    977.946   1017.764    -39.818    534.333   1011.211    540.876    534.333    534.333
100.170   1083.542   1041.219     42.323    534.045   1034.603    540.645    534.045    534.045
100.270   1074.000   1077.531     -3.531    533.758   1070.693    540.575    533.758    533.758
100.370   1136.000   1126.206      9.794    533.472   1119.009    540.645    533.472    533.472
100.470   1124.506   1186.447    -61.941    533.187   1178.778    540.830    533.187    533.187
100.570   1219.710   1257.137    -37.427    532.904   1248.911    541.104    532.904    532.904
100.670   1430.000   1336.811     93.189    532.622   1327.973    541.438    532.622    532.622
100.770   1418.424   1423.627     -5.203    532.340   1414.154    541.798    532.340    532.340
100.870   1584.000   1515.347     68.653    532.061   1505.249    542.152    532.061    532.061
100.970   1628.000   1609.354     18.646    531.782   1598.676    542.466    531.782    531.782
101.070   1742.112   1702.740     39.372    531.505   1691.561    542.706    531.505    531.505
101.170   1736.916   1792.534    -55.617    531.229   1780.960    542.843    531.229    531.229
101.270   1836.857   1875.848    -38.991    530.955   1864.006    542.856    530.955    530.955
101.370   1902.461   1950.204    -47.743    530.681   1938.231    542.736    530.681    530.681
101.470   2029.505   2013.664     15.841    530.410   2001.691    542.486    530.410    530.410
101.570   2073.000   2064.809      8.191    530.140   2052.951    542.122    530.140    530.140
101.670   2140.000   2102.561     37.439    529.871   2090.906    541.669    529.871    529.871
101.770   2132.672   2125.993      6.679    529.604   2114.599    541.159    529.604    529.604
101.870   2160.585   2134.240     26.346    529.338   2123.131    540.622    529.338    529.338
101.970   2111.603   2126.626    -15.023    529.074   2115.798    540.089    529.074    529.074
102.070   2097.705   2102.984     -5.279    528.812   2092.405    539.587    528.812    528.812
102.170   2104.777   2064.017     40.760    528.551   2053.634    539.136    528.551    528.551
102.270   1961.776   2011.527    -49.751    528.292   2001.271    538.751    528.292    528.292
102.370   1933.992   1948.349    -14.357    528.034   1938.142    538.442    528.034    528.034
102.470   1849.000   1878.007    -29.007    527.778   1867.771    538.211    527.778    527.778
102.570   1739.000   1804.226    -65.226    527.524   1793.887    538.051    527.524    527.524
102.670   1705.000   1730.479    -25.479    527.272   1719.977    537.952    527.272    527.272
102.770   1612.000   1659.668    -47.668    527.021   1648.960    537.896    527.021    527.021
102.870   1535.000   1593.957    -58.957    526.773   1583.023    537.861    526.773    526.773
102.970   1555.336   1534.722     20.614    526.526   1523.565    537.825    526.526    526.526
103.070   1449.000   1482.566    -33.566    526.281   1471.213    537.766    526.281    526.281
103.170   1399.774   1437.371    -37.597    526.038   1425.866    537.666    526.038    526.038
103.270   1388.000   1398.374    -10.374    525.797   1386.778    537.508    525.797    525.797
103.370   1416.064   1364.274     51.791    525.558   1352.661    537.279    525.558    525.558
103.470   1342.000   1333.379      8.621    525.321   1321.839    536.966    525.321    525.321
103.570   1231.000   1303.823    -72.823    525.086   1292.451    536.560    525.086    525.086
103.670   1246.007   1273.809    -27.802    524.853   1262.710    536.052    524.853    524.853
103.770   1246.375   1241.883      4.492    524.622   1231.161    535.442    524.622    524.622
103.870   1175.577   1207.120    -31.543    524.393   1196.876    534.735    524.393    524.393
103.970   1117.000   1169.198    -52.198    524.166   1159.518    533.943    524.166    524.166
104.070   1154.883   1128.348     26.535    523.942   1119.301    533.084    523.942    523.942
104.170   1078.000   1085.206     -7.206    523.719   1076.838    532.179    523.719    523.719
104.270   1023.863   1040.635    -16.772    523.499   1032.972    531.250    523.499    523.499
104.370    986.511    995.581     -9.071    523.281    988.628    530.317    523.281    523.281
104.470    991.856    950.974     40.883    523.066    944.717    529.399    523.066    523.066
104.570    926.000    907.657     18.343    522.853    902.069    528.511    522.853    522.853
104.670    876.000    866.363      9.637    522.642    861.404    527.665    522.642    522.642
104.770    805.000    827.686    -22.686    522.434    823.309    526.868    522.434    522.434
104.870    805.000    792.078     12.922    522.228    788.228    526.128    522.228    522.228
104.970    799.000    759.839     39.161    522.024    756.461    525.446    522.024    522.024
105.070    701.944    731.127    -29.183    521.823    728.165    524.823    521.823    521.823
105.170    701.626    705.967     -4.341    521.625    703.365    524.259    521.625    521.625
105.270    730.000    684.249     45.751    521.429    681.961    523.743    521.429    521.429
105.370    714.000    665.842     48.158    521.236    663.814    523.285    521.236    521.236
105.470    663.000    650.499     12.501    521.045    648.684    522.877    521.045    521.045
105.570    649.000    637.933     11.067    520.857    636.291    522.512    520.857    520.857
105.670    636.000    627.851      8.149    520.672    626.347    522.186    520.672    520.672
105.770    647.559    619.966     27.593    520.489    618.569    521.893    520.489    520.489
105.870    632.000    614.012     17.988    520.309    612.695    521.630    520.309    520.309
105.970    614.271    609.755      4.516    520.132    608.496    521.393    520.132    520.132
106.070    616.000    607.001      8.999    519.958    605.778    521.180    519.958    519.958
106.170    646.000    605.596     40.404    519.786    604.393    520.987    519.786    519.786
106.270    569.792    605.429    -35.637    519.618    604.229    520.813    519.618    519.618
106.370    567.427    606.426    -39.000    519.452    605.214    520.657    519.452    519.452
106.470    568.450    608.547    -40.097    519.290    607.308    520.518    519.290    519.290
106.570    644.846    611.774     33.072    519.130    610.495    520.396    519.130    519.130
106.670    644.000    616.110     27.890    518.973    614.777    520.290    518.973    518.973
106.770    667.000    621.566     45.434    518.820    620.166    520.202    518.820    518.820
106.870    646.000    628.158     17.842    518.670    626.676    520.130    518.670    518.670
106.970    616.000    635.894    -19.894    518.522    634.316    520.075    518.522    518.522
107.070    604.000    644.764    -40.764    518.378    643.077    520.036    518.378    518.378
107.170    640.632    654.736    -14.104    518.237    652.926    520.014    518.237    518.237
107.270    711.000    665.741     45.259    518.099    663.797    520.007    518.099    518.099
107.370    715.000    677.669     37.331    517.965    675.580    520.014    517.965    517.965
107.470    654.510    690.361    -35.850    517.834    688.118    520.033    517.834    517.834
107.570    658.808    703.605    -44.797    517.706    701.204    520.060    517.706    517.706
107.670    664.000    717.143    -53.143    517.582    714.581    520.093    517.582    517.582
107.770    771.024    730.663     40.361    517.461    727.943    520.127    517.461    517.461
107.870    729.000    743.815    -14.815    517.343    740.945    520.158    517.343    517.343
107.970    753.000    756.217     -3.217    517.229    753.210    520.180    517.229    517.229
108.070    793.000    767.477     25.523    517.119    764.352    520.187    517.119    517.119
108.170    793.000    777.224     15.776    517.012    774.005    520.174    517.012    517.012
108.270    731.000    785.149    -54.149    516.908    781.865    520.138    516.908    516.908
108.370    782.000    791.051     -9.051    516.809    787.733    520.074    516.809    516.809
108.470    745.000    794.875    -49.875    516.713    791.557    519.981    516.713    516.713
108.570    738.000    796.731    -58.731    516.620    793.446    519.860    516.620    516.620
108.670    826.000    796.882     29.118    516.532    793.659    519.714    516.532    516.532
108.770    816.471    795.710     20.761    516.447    792.574    519.547    516.447    516.447
108.870    731.000    793.659    -62.659    516.366    790.629    519.364    516.366    516.366
108.970    762.633    791.186    -28.553    516.289    788.276    519.171    516.289    516.289
109.070    767.000    788.713    -21.713    516.216    785.932    518.974    516.216    516.216
109.170    767.000    786.597    -19.597    516.147    783.947    518.778    516.147    516.147
109.270    770.000    785.104    -15.104    516.081    782.583    518.588    516.081    516.081
109.370    773.321    784.401    -11.080    516.020    782.005    518.406    516.020    516.020
109.470    770.364    784.546    -14.182    515.963    782.267    518.236    515.963    515.963
109.570    808.111    785.489     22.621    515.910    783.318    518.079    515.910    515.910
109.670    731.000    787.071    -56.071    515.861    784.996    517.936    515.861    515.861
109.770    765.000    789.030    -24.030    515.816    787.043    517.808    515.816    515.816
109.870    758.000    791.020    -33.020    515.776    789.110    517.693    515.776    515.776
109.970    792.000    792.627     -0.627    515.739    790.787    517.590    515.739    515.739
110.070    844.157    793.407     50.750    515.707    791.631    517.497    515.707    515.707
110.170    758.000    792.931    -34.931    515.680    791.216    517.412    515.680    515.680
110.270    827.970    790.837     37.133    515.656    789.180    517.333    515.656    515.656
110.370    804.000    786.878     17.122    515.637    785.279    517.258    515.637    515.637
110.470    753.000    780.960    -27.960    515.623    779.420    517.186    515.623    515.623
110.570    747.000    773.138    -26.138    515.613    771.662    517.113    515.613    515.613
110.670    779.000    763.606     15.394    515.608    762.204    517.035    515.608    515.608
110.770    739.000    752.687    -13.687    515.607    751.349    516.970    515.607    515.607
110.870    750.464    740.724      9.740    515.611    739.448    516.911    515.611    515.611
110.970    734.000    728.088      5.912    515.619    726.874    516.856    515.619    515.619
111.070    746.244    715.140     31.104    515.632    713.986    516.808    515.632    515.632
111.170    718.000    702.214     15.786    515.650    701.117    516.767    515.650    515.650
111.270    750.000    689.604     60.396    515.673    688.561    516.734    515.673    515.673
111.370    707.005    677.560     29.446    515.701    676.567    516.709    515.701    515.701
111.470    589.000    666.286    -77.286    515.733    665.338    516.694    515.733    515.733
111.570    679.000    655.936     23.064    515.770    655.028    516.689    515.770    515.770
111.670    680.000    646.618     33.382    515.813    645.746    516.694    515.813    515.813
111.770    650.000    638.416     11.584    515.860    637.573    516.710    515.860    515.860
111.870    603.000    631.350    -28.350    515.912    630.531    516.736    515.912    515.912
111.970    626.781    625.413      1.368    515.970    624.612    516.773    515.970    515.970
112.070    604.643    620.569    -15.925    516.032    619.781    516.821    516.032    516.032
112.170    576.434    616.759    -40.325    516.100    615.980    516.878    516.100    516.100
112.270    645.000    613.907     31.093    516.173    613.133    516.944    516.173    516.173
112.370    618.000    611.929      6.071    516.251    611.156    517.020    516.251    516.251
112.470    629.000    610.731     18.269    516.335    609.956    517.104    516.335    516.335
112.570    573.431    610.225    -36.794    516.424    609.446    517.196    516.424    516.424
112.670    620.000    610.321      9.679    516.518    609.535    517.296    516.518    516.518
112.770    609.000    610.936     -1.936    516.618    610.142    517.403    516.618    516.618
112.870    635.679    611.997     23.682    516.723    611.194    517.516    516.723    516.723
112.970    638.000    613.443     24.557    516.833    612.631    517.635    516.833    516.833
113.070    593.696    615.225    -21.529    516.950    614.403    517.760    516.950    516.950
113.170    609.000    617.307     -8.307    517.072    616.476    517.891    517.072    517.072
113.270    605.000    619.669    -14.669    517.199    618.829    518.027    517.199    517.199
113.370    591.000    622.308    -31.308    517.332    621.458    518.170    517.332    517.332
113.470    599.000    625.235    -26.235    517.471    624.374    518.319    517.471    517.471
113.570    662.000    628.479     33.521    517.616    627.607    518.475    517.616    517.616
113.670    659.000    632.086     26.914    517.767    631.201    518.638    517.767    517.767
113.770    644.000    636.122      7.878    517.924    635.221    518.810    517.924    517.924
113.870    657.000    640.675     16.325    518.086    639.755    518.992    518.086    518.086
113.970    598.000    645.861    -47.861    518.254    644.916    519.183    518.254    518.254
114.070    697.523    651.828     45.695    518.429    650.853    519.387    518.429    518.429
114.170    643.000    658.768    -15.768    518.610    657.755    519.604    518.610    518.610
114.270    645.000    666.924    -21.924    518.796    665.864    519.835    518.796    518.796
114.370    622.000    676.604    -54.604    518.989    675.486    520.083    518.989    518.989
114.470    699.000    688.193     10.807    519.188    687.005    520.349    519.188    519.188
114.570    669.299    702.173    -32.874    519.394    700.899    520.636    519.394    519.394
114.670    740.000    719.133     20.867    519.605    717.756    520.945    519.605    519.605
114.770    765.722    739.794     25.928    519.823    738.294    521.280    519.823    519.823
114.870    767.000    765.022      1.978    520.048    763.375    521.642    520.048    520.048
114.970    800.000    795.843      4.157    520.279    794.024    522.035    520.279    520.279
115.070    789.240    833.460    -44.220    520.516    831.440    522.461    520.516    520.516
115.170    838.000    879.257    -41.257    520.760    877.003    522.923    520.760    520.760
115.270    925.000    934.801     -9.801    521.011    932.278    523.424    521.011    521.011
115.370    996.000   1001.832     -5.832    521.268    999.003    523.966    521.268    521.268
115.470   1024.849   1082.248    -57.398    521.532   1079.070    524.553    521.532    521.532
115.570   1239.212   1178.062     61.150    521.803   1174.494    525.186    521.803    521.803
115.670   1317.000   1291.365     25.635    522.080   1287.360    525.867    522.080    522.080
115.770   1415.568   1424.248     -8.680    522.365   1419.761    526.598    522.365    522.365
115.870   1603.194   1578.731     24.463    522.656   1573.714    527.378    522.656    522.656
115.970   1759.000   1756.660      2.340    522.954   1751.066    528.209    522.954    522.954
116.070   1963.193   1959.597      3.597    523.259   1953.382    529.090    523.259    523.259
116.170   2230.000   2188.702     41.298    523.572   2181.825    530.017    523.572    523.572
116.270   2401.000   2444.610    -43.610    523.891   2437.032    530.988    523.891    523.891
116.370   2703.632   2727.302    -23.670    524.218   2718.992    531.998    524.218    524.218
116.470   3058.000   3035.996     22.004    524.552   3026.929    533.041    524.552    524.552
116.570   3328.000   3369.044    -41.044    524.893   3359.203    534.110    524.893    524.893
116.670   3565.000   3723.853   -158.853    525.241   3713.233    535.196    525.241    525.241
116.770   4076.527   4096.834    -20.307    525.597   4085.440    536.292    525.597    525.597
116.870   4522.000   4483.381     38.619    525.960   4471.228    537.387    525.960    525.960
116.970   4861.000   4877.877    -16.877    526.330   4864.990    538.474    526.330    526.330
117.070   5229.000   5273.707    -44.707    526.708   5260.126    539.541    526.708    526.708
117.170   5743.924   5663.492     80.431    527.094   5649.261    540.582    527.094    527.094
117.270   5909.000   6039.007   -130.007    527.487   6024.180    541.591    527.487    527.487
117.370   6412.568   6391.443     21.125    527.888   6376.085    542.557    527.888    527.888
117.470   6594.723   6711.674   -116.951    528.297   6695.858    543.474    528.297    528.297
117.570   7140.000   6990.585    149.415    528.713   6974.391    544.332    528.713    528.713
117.670   7247.771   7219.523     28.248    529.138   7203.039    545.124    529.138    529.138
117.770   7327.000   7390.852    -63.852    529.570   7374.171    545.842    529.570    529.570
117.870   7576.000   7498.553     77.447    530.010   7481.771    546.480    530.010    530.010
117.970   7632.590   7538.790     93.801    530.458   7522.003    547.034    530.458    530.458
118.070   7584.000   7510.303     73.697    530.914   7493.607    547.501    530.914    530.914
118.170   7260.957   7414.548   -153.591    531.379   7398.033    547.882    531.379    531.379
118.270   7202.000   7255.532    -53.532    531.851   7239.282    548.181    531.851    531.851
118.370   6951.000   7039.384    -88.384    532.332   7023.475    548.401    532.332    532.332
118.470   6527.000   6773.790   -246.790    532.821   6758.289    548.549    532.821    532.821
118.570   6414.000   6467.379    -53.379    533.318   6452.347    548.634    533.318    533.318
118.670   6174.384   6129.181     45.203    533.823   6114.669    548.661    533.823    533.823
118.770   5660.673   5768.180   -107.507    534.337   5754.232    548.640    534.337    534.337
118.870   5290.000   5392.984   -102.984    534.860   5379.636    548.580    534.860    534.860
118.970   5009.000   5011.582     -2.582    535.391   4998.862    548.488    535.391    535.391
119.070   4604.000   4631.173    -27.173    535.931   4619.101    548.376    535.931    535.931
119.170   4270.000   4258.056     11.944    536.479   4246.643    548.252    536.479    536.479
119.270   3981.000   3897.551     83.449    537.036   3886.799    548.127    537.036    537.036
119.370   3657.219   3553.970    103.248    537.602   3543.874    548.012    537.602    537.602
119.470   3330.468   3230.624     99.844    538.176   3221.170    547.915    538.176    538.176
119.570   2929.224   2929.857     -0.633    538.760   2921.023    547.845    538.760    538.760
119.670   2644.000   2653.121     -9.121    539.352   2644.881    547.811    539.352    539.352
119.770   2443.000   2401.074     41.926    539.954   2393.393    547.820    539.954    539.954
119.870   2206.000   2173.685     32.315    540.564   2166.525    547.877    540.564    540.564
119.970   1981.000   1970.359     10.641    541.184   1963.679    547.987    541.184    541.184
120.070   1790.991   1790.054      0.937    541.813   1783.807    548.156    541.813    541.813
120.170   1624.000   1631.389     -7.389    542.451   1625.528    548.385    542.451    542.451
120.270   1551.000   1492.753     58.247    543.098   1487.225    548.677    543.098    543.098
120.370   1411.000   1372.390     38.610    543.755   1367.143    549.035    543.755    543.755
120.470   1273.000   1268.485      4.515    544.421   1263.465    549.460    544.421    544.421
120.570   1225.000   1179.229     45.771    545.096   1174.380    549.952    545.096    545.096
120.670   1077.800   1102.872    -25.072    545.781   1098.138    550.514    545.781    545.781
120.770    993.728   1037.771    -44.043    546.476   1033.094    551.144    546.476    546.476
120.870    998.938    982.412     16.526    547.180    977.735    551.845    547.180    547.180
120.970    909.595    935.433    -25.837    547.894    930.696    552.616    547.894    547.894
121.070    944.000    895.627     48.373    548.618    890.770    553.458    548.618    548.618
121.170    880.832    861.943     18.889    549.351    856.906    554.372    549.351    549.351
121.270    841.000    833.480      7.520    550.094    828.200    555.359    550.094    550.094
121.370    791.000    809.472    -18.472    550.848    803.885    556.420    550.848    550.848
121.470    778.000    789.275    -11.275    551.611    783.316    557.556    551.611    551.611
121.570    745.000    772.352    -27.352    552.384    765.955    558.769    552.384    552.384
121.670    715.854    758.259    -42.405    553.168    751.357    560.060    553.168    553.168
121.770    767.464    746.629     20.835    553.961    739.151    561.431    553.961    553.961
121.870    713.000    737.158    -24.158    554.765    729.033    562.883    554.765    554.765
121.970    696.179    729.594    -33.415    555.579    720.751    564.418    555.579    555.579
122.070    745.572    723.727     21.845    556.404    714.093    566.035    556.404    556.404
122.170    719.000    719.383     -0.383    557.239    708.884    567.736    557.239    557.239
122.270    654.000    716.409    -62.409    558.084    704.972    569.521    558.084    558.084
122.370    668.538    714.675    -46.137    558.940    702.227    571.390    558.940    558.940
122.470    672.000    714.065    -42.065    559.807    700.534    573.341    559.807    559.807
122.570    672.000    714.473    -42.473    560.684    699.789    575.374    560.684    560.684
122.670    658.000    715.799    -57.799    561.572    699.894    577.485    561.572    561.572
122.770    699.000    717.949    -18.949    562.471    700.759    579.670    562.471    562.471
122.870    730.000    720.826      9.174    563.381    702.294    581.924    563.381    563.381
122.970    772.344    724.334     48.010    564.302    704.411    584.238    564.302    564.302
123.070    699.000    728.374    -29.374    565.233    707.021    586.602    565.233    565.233
123.170    652.000    732.840    -80.840    566.176    710.031    589.003    566.176    566.176
123.270    701.000    737.623    -36.623    567.130    713.348    591.425    567.130    567.130
123.370    768.000    742.606     25.394    568.095    716.874    593.850    568.095    568.095
123.470    748.620    747.666      0.954    569.071    720.506    596.258    569.071    569.071
123.570    745.000    752.677     -7.677    570.058    724.140    598.625    570.058    570.058
123.670    733.000    757.504    -24.504    571.057    727.669    600.925    571.057    571.057
123.770    774.000    762.012     11.988    572.067    730.982    603.133    572.067    572.067
123.870    732.433    766.065    -33.632    573.089    733.972    605.221    573.089    573.089
123.970    769.000    769.530     -0.530    574.123    736.533    607.163    574.123    574.123
124.070    807.695    772.286     35.409    575.168    738.568    608.932    575.168    575.168
124.170    827.000    774.225     52.775    576.225    739.991    610.506    576.225    576.225
124.270    753.601    775.260    -21.658    577.293    740.735    611.868    577.293    577.293
124.370    760.000    775.333    -15.333    578.373    740.754    613.005    578.373    578.373
124.470    789.133    774.418     14.715    579.466    740.024    613.914    579.466    579.466
124.570    823.000    772.518     50.482    580.570    738.547    614.596    580.570    580.570
124.670    767.000    769.637     -2.637    581.686    736.319    615.061    581.686    581.686
124.770    769.190    765.917      3.273    582.815    733.462    615.326    582.815    582.815
124.870    830.000    761.420     68.580    583.955    730.019    615.413    583.955    583.955
124.970    789.183    756.246     32.937    585.108    726.064    615.346    585.108    585.108
