neutron_powder_diffraction_0051
R_wp: 4.023
Temperature (K): 650.889
Counts: 83253.00
Wavelength (Ã…): 2.52098
COMMENTS
Test file for demonstrating the .xyy file format in Reel1.0
END OF HEADER
   tth       Y_obs     Y_calc      Y_res    Background    Phase_1_Nuc    Phase_1_Mag    Phase_2_Nuc    Phase_2_Mag
  9.970    653.450    671.062    -17.612    669.701    670.687    670.076    669.701    669.701
 10.070    700.000    670.492     29.508    669.047    670.112    669.426    669.047    669.047
 10.170    692.000    669.933     22.067    668.394    669.550    668.777    668.394    668.394
 10.270    641.000    669.388    -28.388    667.741    669.001    668.128    667.741    667.741
 10.370    707.102    668.860     38.242    667.089    668.468    667.480    667.089    667.089
 10.470    651.000    668.352    -17.352    666.437    667.956    666.832    666.437    666.437
 10.570    719.853    667.868     51.985    665.785    667.467    666.185    665.785    665.785
 10.670    716.195    667.415     48.781    665.134    667.010    665.538    665.134    665.134
 10.770    714.000    666.999     47.001    664.484    666.590    664.892    664.484    664.484
 10.870    661.000    666.632     -5.632    663.834    666.218    664.247    663.834    663.834
 10.970    711.191    666.328     44.864    663.185    665.908    663.603    663.185    663.185
 11.070    696.000    666.105     29.895    662.536    665.680    662.959    662.536    662.536
 11.170    668.000    665.991      2.009    661.889    665.562    662.316    661.889    661.889
 11.270    667.000    666.028      0.972    661.241    665.594    661.673    661.241    661.241
 11.370    703.000    666.284     36.716    660.595    665.844    661.032    660.595    660.595
 11.470    712.000    666.886     45.114    659.949    666.441    660.391    659.949    659.949
 11.570    710.000    668.130     41.870    659.304    667.678    659.751    659.304    659.304
 11.670    774.000    670.704    103.296    658.660    670.246    659.112    658.660    658.660
 11.770    719.000    676.065     42.935    658.016    675.598    658.474    658.016    658.016
 11.870    643.437    686.619    -43.182    657.373    686.140    657.837    657.373    657.373
 11.970    697.527    705.048     -7.520    656.731    704.553    657.200    656.731    656.731
 12.070    843.000    732.076    110.924    656.090    731.560    656.565    656.090    656.090
 12.170    776.155    762.737     13.418    655.450    762.199    655.930    655.450    655.450
 12.270    748.489    783.514    -35.025    654.811    782.958    655.297    654.811    654.811
 12.370    747.769    780.361    -32.591    654.172    779.800    654.664    654.172    654.172
 12.470    721.000    755.332    -34.332    653.534    754.779    654.032    653.534    653.534
 12.570    744.370    723.465     20.906    652.898    722.923    653.402    652.898    652.898
 12.670    733.871    696.643     37.229    652.262    696.109    652.772    652.262    652.262
 12.770    640.000    678.529    -38.529    651.627    677.998    652.144    651.627    651.627
 12.870    703.882    667.908     35.974    650.993    667.376    651.516    650.993    650.993
 12.970    627.000    661.975    -34.975    650.360    661.440    650.890    650.360    650.360
 13.070    631.000    658.445    -27.445    649.729    657.904    650.265    649.729    649.729
 13.170    627.000    656.086    -29.086    649.098    655.539    649.641    649.098    649.098
 13.270    647.000    654.296     -7.296    648.468    653.743    649.018    648.468    648.468
 13.370    652.000    652.825     -0.825    647.839    652.266    648.397    647.839    647.839
 13.470    623.000    651.558    -28.558    647.212    650.992    647.776    647.212    647.212
 13.570    683.000    650.435     32.565    646.585    649.861    647.157    646.585    646.585
 13.670    633.319    649.415    -16.096    645.960    648.834    646.539    645.960    645.960
 13.770    674.451    648.474     25.976    645.335    647.886    645.922    645.335    645.335
 13.870    697.584    647.594     49.990    644.712    646.998    645.307    644.712    644.712
 13.970    658.000    646.761     11.239    644.090    646.157    644.693    644.090    644.090
 14.070    646.000    645.966      0.034    643.469    645.354    644.080    643.469    643.469
 14.170    598.415    645.199    -46.785    642.849    644.579    643.469    642.849    642.849
 14.270    601.000    644.459    -43.459    642.231    643.831    642.859    642.231    642.231
 14.370    612.000    643.760    -31.760    641.614    643.122    642.251    641.614    641.614
 14.470    680.010    643.062     36.947    640.998    642.415    641.644    640.998    640.998
 14.570    635.000    642.372     -7.372    640.383    641.716    641.039    640.383    640.383
 14.670    608.000    641.694    -33.694    639.770    641.029    640.434    639.770    639.770
 14.770    668.366    641.027     27.339    639.157    640.352    639.832    639.157    639.157
 14.870    627.000    640.369    -13.369    638.547    639.684    639.230    638.547    638.547
 14.970    599.000    639.719    -40.719    637.937    639.024    638.631    637.937    637.937
 15.070    651.064    639.076     11.988    637.329    638.372    638.033    637.329    637.329
 15.170    678.000    638.439     39.561    636.722    637.725    637.436    636.722    636.722
 15.270    624.000    637.809    -13.809    636.116    637.084    636.841    636.116    636.116
 15.370    645.000    637.184      7.816    635.512    636.448    636.248    635.512    635.512
 15.470    616.000    636.564    -20.564    634.910    635.817    635.656    634.910    634.910
 15.570    632.000    635.948     -3.948    634.308    635.190    635.066    634.308    634.308
 15.670    661.659    635.337     26.322    633.708    634.568    634.478    633.708    633.708
 15.770    625.000    634.730     -9.730    633.110    633.948    633.891    633.110    633.110
 15.870    591.000    634.126    -43.126    632.513    633.333    633.306    632.513    632.513
 15.970    604.000    633.527    -29.527    631.917    632.721    632.723    631.917    631.917
 16.070    658.000    632.930     25.070    631.323    632.112    632.141    631.323    631.323
 16.170    582.321    632.337    -50.017    630.731    631.506    631.562    630.731    630.731
 16.270    676.565    631.751     44.814    630.139    630.906    630.984    630.139    630.139
 16.370    628.000    631.166     -3.166    629.550    630.308    630.408    629.550    629.550
 16.470    657.430    630.583     26.847    628.962    629.711    629.834    628.962    628.962
 16.570    589.826    630.009    -40.183    628.375    629.122    629.262    628.375    628.375
 16.670    624.000    629.432     -5.432    627.790    628.530    628.691    627.790    627.790
 16.770    655.000    628.856     26.144    627.207    627.940    628.123    627.207    627.207
 16.870    661.918    628.284     33.634    626.625    627.353    627.556    626.625    626.625
 16.970    574.000    627.715    -53.715    626.045    626.767    626.992    626.045    626.045
 17.070    609.000    627.148    -18.148    625.466    626.184    626.430    625.466    625.466
 17.170    675.380    626.584     48.796    624.889    625.604    625.870    624.889    624.889
 17.270    631.277    626.023      5.254    624.314    625.025    625.311    624.314    624.314
 17.370    635.000    625.467      9.533    623.740    624.452    624.755    623.740    623.740
 17.470    608.000    624.943    -16.943    623.168    623.910    624.201    623.168    623.168
 17.570    615.000    624.436     -9.436    622.597    623.384    623.650    622.597    622.597
 17.670    616.000    623.890     -7.890    622.029    622.819    623.100    622.029    622.029
 17.770    588.000    623.343    -35.343    621.461    622.252    622.552    621.461    621.461
 17.870    596.000    622.798    -26.798    620.896    621.687    622.007    620.896    620.896
 17.970    606.000    622.256    -16.256    620.332    621.125    621.464    620.332    620.332
 18.070    610.421    621.718    -11.297    619.770    620.566    620.923    619.770    619.770
 18.170    610.041    621.201    -11.160    619.210    620.027    620.384    619.210    619.210
 18.270    636.513    620.692     15.821    618.652    619.496    619.848    618.652    618.652
 18.370    656.350    620.164     36.186    618.095    618.944    619.315    618.095    618.095
 18.470    596.000    619.636    -23.636    617.540    618.393    618.783    617.540    617.540
 18.570    604.000    619.111    -15.111    616.987    617.844    618.255    616.987    616.987
 18.670    659.879    618.589     41.290    616.435    617.296    617.728    616.435    616.435
 18.770    632.000    618.075     13.925    615.886    616.755    617.206    615.886    615.886
 18.870    638.224    617.609     20.615    615.338    616.253    616.694    615.338    615.338
 18.970    562.000    617.118    -55.118    614.792    615.731    616.180    614.792    614.792
 19.070    628.053    616.611     11.442    614.248    615.195    615.664    614.248    614.248
 19.170    627.311    616.108     11.203    613.705    614.662    615.151    613.705    613.705
 19.270    615.000    615.614     -0.614    613.165    614.138    614.641    613.165    613.165
 19.370    572.000    615.120    -43.120    612.626    613.612    614.134    612.626    612.626
 19.470    629.000    614.624     14.376    612.090    613.084    613.630    612.090    612.090
 19.570    641.000    614.131     26.869    611.555    612.558    613.128    611.555    611.555
 19.670    609.000    613.642     -4.642    611.022    612.034    612.630    611.022    611.022
 19.770    618.000    613.157      4.843    610.491    611.513    612.134    610.491    610.491
 19.870    601.027    612.675    -11.648    609.961    610.994    611.642    609.961    609.961
 19.970    591.000    612.197    -21.197    609.434    610.478    611.153    609.434    609.434
 20.070    600.000    611.723    -11.723    608.909    609.964    610.667    608.909    608.909
 20.170    636.000    611.253     24.747    608.385    609.454    610.184    608.385    608.385
 20.270    556.000    610.792    -54.792    607.864    608.950    609.706    607.864    607.864
 20.370    626.146    610.359     15.787    607.344    608.470    609.233    607.344    607.344
 20.470    568.679    609.921    -41.243    606.826    607.982    608.765    606.826    606.826
 20.570    657.804    609.505     48.300    606.311    607.515    608.300    606.311    606.311
 20.670    618.271    609.081      9.190    605.797    607.042    607.836    605.797    605.797
 20.770    600.000    608.662     -8.662    605.285    606.573    607.375    605.285    605.285
 20.870    607.000    608.269     -1.269    604.776    606.126    606.919    604.776    604.776
 20.970    600.473    607.846     -7.373    604.268    605.648    606.466    604.268    604.268
 21.070    631.841    607.433     24.408    603.762    605.178    606.017    603.762    603.762
 21.170    616.000    607.016      8.984    603.258    604.702    605.573    603.258    603.258
 21.270    545.000    606.612    -61.612    602.757    604.236    605.133    602.757    602.757
 21.370    586.000    606.230    -20.230    602.257    603.789    604.698    602.257    602.257
 21.470    592.524    605.847    -13.322    601.759    603.338    604.268    601.759    601.759
 21.570    578.000    605.451    -27.451    601.264    602.873    603.842    601.264    601.264
 21.670    594.000    605.062    -11.062    600.770    602.411    603.421    600.770    600.770
 21.770    634.145    604.688     29.457    600.279    601.959    603.008    600.279    600.279
 21.870    635.543    604.318     31.225    599.789    601.509    602.598    599.789    599.789
 21.970    572.000    603.954    -31.954    599.302    601.062    602.194    599.302    599.302
 22.070    628.727    603.601     25.126    598.816    600.622    601.795    598.816    598.816
 22.170    654.847    603.253     51.594    598.333    600.184    601.403    598.333    598.333
 22.270    581.000    602.917    -21.917    597.852    599.753    601.017    597.852    597.852
 22.370    592.000    602.597    -10.597    597.373    599.331    600.639    597.373    597.373
 22.470    640.269    602.283     37.986    596.896    598.913    600.266    596.896    596.896
 22.570    597.654    601.982     -4.328    596.421    598.502    599.901    596.421    596.421
 22.670    542.000    601.695    -59.695    595.948    598.101    599.543    595.948    595.948
 22.770    608.000    601.423      6.577    595.478    597.708    599.193    595.478    595.478
 22.870    564.013    601.168    -37.155    595.009    597.326    598.851    595.009    595.009
 22.970    540.000    600.934    -60.934    594.543    596.959    598.519    594.543    594.543
 23.070    608.000    600.723      7.277    594.078    596.606    598.196    594.078    594.078
 23.170    581.000    600.536    -19.536    593.616    596.271    597.882    593.616    593.616
 23.270    641.732    600.379     41.354    593.156    595.956    597.580    593.156    593.156
 23.370    570.541    600.256    -29.714    592.698    595.667    597.288    592.698    592.698
 23.470    626.735    600.174     26.561    592.243    595.410    597.008    592.243    592.243
 23.570    602.906    600.143      2.763    591.789    595.192    596.741    591.789    591.789
 23.670    594.000    600.173     -6.173    591.338    595.025    596.487    591.338    591.338
 23.770    619.329    600.281     19.048    590.889    594.923    596.248    590.889    590.889
 23.870    628.477    600.489     27.988    590.442    594.908    596.025    590.442    590.442
 23.970    574.000    600.832    -26.832    589.997    595.013    595.817    589.997    589.997
 24.070    626.867    601.367     25.499    589.554    595.296    595.628    589.554    589.554
 24.170    636.000    602.216     33.784    589.113    595.874    595.458    589.113    589.113
 24.270    593.000    603.650    -10.650    588.675    597.020    595.309    588.675    588.675
 24.370    654.793    606.277     48.516    588.239    599.340    595.183    588.239    588.239
 24.470    708.000    611.241     96.759    587.805    603.975    595.082    587.805    587.805
 24.570    668.000    620.181     47.819    587.373    612.564    595.008    587.373    587.373
 24.670    668.000    634.510     33.490    586.944    626.518    594.963    586.944    586.944
 24.770    705.000    653.823     51.177    586.517    645.430    594.951    586.517    586.517
 24.870    637.371    673.592    -36.222    586.092    664.765    594.974    586.092    586.092
 24.970    715.397    684.148     31.248    585.669    674.843    595.037    585.669    585.669
 25.070    697.000    678.132     18.868    585.248    668.295    595.144    585.248    585.248
 25.170    714.000    660.339     53.661    584.830    649.914    595.300    584.830    584.830
 25.270    641.000    640.689      0.311    584.413    629.624    595.510    584.413    584.413
 25.370    581.498    625.176    -43.678    583.999    613.413    595.781    583.999    583.999
 25.470    638.000    615.191     22.809    583.588    602.669    596.122    583.588    583.588
 25.570    654.449    609.694     44.756    583.178    596.339    596.539    583.178    583.178
 25.670    624.000    607.040     16.960    582.771    592.770    597.045    582.771    582.771
 25.770    636.000    605.946     30.054    582.366    590.663    597.652    582.366    582.366
 25.870    570.856    605.686    -34.830    581.963    589.276    598.375    581.963    581.963
 25.970    609.922    605.927      3.995    581.563    588.261    599.231    581.563    581.563
 26.070    651.397    606.542     44.855    581.164    587.465    600.242    581.164    581.164
 26.170    607.000    607.489     -0.489    580.768    586.823    601.435    580.768    580.768
 26.270    659.000    608.766     50.234    580.375    586.300    602.841    580.375    580.375
 26.370    643.000    610.389     32.611    579.983    585.873    604.498    579.983    579.983
 26.470    574.070    612.389    -38.319    579.594    585.527    606.456    579.594    579.594
 26.570    643.000    614.829     28.171    579.207    585.259    608.777    579.207    579.207
 26.670    662.000    617.787     44.213    578.822    585.069    611.539    578.822    578.822
 26.770    741.000    621.368    119.632    578.440    584.961    614.845    578.440    578.440
 26.870    670.000    625.714     44.286    578.060    584.943    618.828    578.060    578.060
 26.970    679.000    631.017     47.983    577.682    585.031    623.666    577.682    577.682
 27.070    673.153    637.538     35.614    577.306    585.244    629.597    577.306    577.306
 27.170    637.507    645.640     -8.134    576.933    585.613    636.955    576.933    576.933
 27.270    629.000    655.840    -26.840    576.562    586.184    646.211    576.562    576.562
 27.370    619.329    668.880    -49.551    576.193    587.022    658.044    576.193    576.193
 27.470    720.000    685.949     34.051    575.826    588.229    673.537    575.826    575.826
 27.570    721.000    709.298     11.702    575.462    590.006    694.742    575.462    575.462
 27.670    797.000    744.563     52.437    575.100    592.844    726.800    575.100    575.100
 27.770    831.000    808.092     22.908    574.740    598.170    784.631    574.740    574.740
 27.870    972.000    943.292     28.708    574.383    609.763    907.849    574.383    574.383
 27.970   1147.000   1239.527    -92.527    574.028    635.396   1178.026    574.028    574.028
 28.070   1730.561   1818.830    -88.269    573.675    685.692   1706.561    573.675    573.675
 28.170   2605.000   2741.993   -136.993    573.324    765.962   2548.957    573.324    573.324
 28.270   3952.050   3845.162    106.888    572.976    862.030   3555.620    572.976    572.976
 28.370   4687.000   4648.154     38.846    572.630    932.314   4288.056    572.630    572.630
 28.470   4562.858   4647.997    -85.139    572.286    933.458   4286.638    572.286    572.286
 28.570   3944.307   3902.925     41.382    571.945    871.306   3603.567    571.945    571.945
 28.670   2878.000   2986.452   -108.452    571.606    797.078   2761.041    571.606    571.606
 28.770   2216.000   2403.063   -187.063    571.269    756.213   2218.151    571.269    571.269
 28.870   2182.000   2306.306   -124.306    570.934    762.529   2114.698    570.934    570.934
 28.970   2550.000   2545.203      4.797    570.602    800.213   2315.577    570.602    570.602
 29.070   2802.243   2788.889     13.354    570.272    833.451   2525.763    570.272    570.272
 29.170   2766.000   2727.568     38.432    569.944    827.759   2469.902    569.944    569.944
 29.270   2402.000   2324.603     77.397    569.619    780.063   2114.351    569.619    569.619
 29.370   1842.000   1792.306     49.694    569.296    716.435   1645.334    569.296    569.296
 29.470   1305.000   1333.518    -28.518    568.975    661.487   1241.121    568.975    568.975
 29.570   1063.000   1024.185     38.815    568.656    624.441    968.466    568.656    568.656
 29.670    877.655    848.141     29.514    568.340    603.393    813.121    568.340    568.340
 29.770    805.239    757.143     48.096    568.026    592.559    732.626    568.026    568.026
 29.870    776.000    709.743     66.257    567.714    586.969    690.497    567.714    567.714
 29.970    749.000    682.175     66.825    567.405    583.780    665.804    567.405    567.405
 30.070    697.000    663.814     33.186    567.097    581.737    649.177    567.097    567.097
 30.170    595.737    650.484    -54.747    566.793    580.369    636.909    566.793    566.793
 30.270    607.421    640.524    -33.103    566.490    579.534    627.480    566.490    566.490
 30.370    676.008    633.289     42.719    566.190    579.283    620.194    566.190    566.190
 30.470    678.000    628.824     49.176    565.891    579.918    614.793    565.891    565.891
 30.570    646.000    627.977     18.023    565.596    582.136    611.428    565.596    565.596
 30.670    677.581    632.461     45.120    565.302    587.103    610.646    565.302    565.302
 30.770    605.562    644.278    -38.716    565.011    596.122    613.143    565.011    565.011
 30.870    634.805    664.064    -29.259    564.722    609.650    619.097    564.722    564.722
 30.970    654.147    688.512    -34.365    564.435    625.754    627.142    564.435    564.435
 31.070    746.000    708.309     37.691    564.151    638.866    633.533    564.151    564.151
 31.170    705.250    711.181     -5.931    563.868    641.631    633.360    563.868    563.868
 31.270    706.000    693.292     12.708    563.588    631.761    625.073    563.588    563.588
 31.370    700.000    664.493     35.507    563.311    615.210    612.561    563.311    563.311
 31.470    668.592    636.703     31.889    563.035    599.177    600.541    563.035    563.035
 31.570    600.599    615.778    -15.178    562.762    587.202    591.325    562.762    562.762
 31.670    668.000    602.343     65.657    562.491    579.676    585.151    562.491    562.491
 31.770    631.000    594.514     36.486    562.223    575.473    581.258    562.223    562.223
 31.870    633.000    590.029     42.971    561.956    573.243    578.739    561.956    561.956
 31.970    614.000    587.285     26.715    561.692    572.026    576.948    561.692    561.692
 32.070    582.000    585.424     -3.424    561.430    571.315    575.537    561.430    561.430
 32.170    573.642    584.065    -10.423    561.170    570.885    574.348    561.170    561.170
 32.270    621.345    583.052     38.293    560.913    570.652    573.311    560.913    560.913
 32.370    587.065    582.320      4.746    560.658    570.583    572.393    560.658    560.658
 32.470    573.000    581.840     -8.840    560.405    570.668    571.575    560.405    560.405
 32.570    584.000    581.605      2.395    560.154    570.912    570.845    560.154    560.154
 32.670    614.000    581.622     32.378    559.905    571.330    570.196    559.905    559.905
 32.770    583.000    581.916      1.084    559.659    571.949    569.624    559.659    559.659
 32.870    578.000    582.525     -4.525    559.415    572.809    569.130    559.415    559.415
 32.970    607.802    583.514     24.288    559.173    573.969    568.717    559.173    559.173
 33.070    588.000    584.978      3.022    558.934    575.514    568.395    558.934    558.934
 33.170    597.000    587.062      9.938    558.696    577.577    568.179    558.696    558.696
 33.270    613.483    590.024     23.459    558.461    580.382    568.100    558.461    558.461
 33.370    636.944    594.376     42.568    558.228    584.377    568.224    558.228    558.228
 33.470    536.000    601.270    -65.270    557.997    590.566    568.697    557.997    557.997
 33.570    653.000    613.260     39.740    557.768    601.171    569.851    557.768    557.768
 33.670    622.532    635.345    -12.813    557.542    620.543    572.334    557.542    557.542
 33.770    649.000    675.455    -26.455    557.318    655.579    577.177    557.318    557.318
 33.870    798.000    742.654     55.346    557.096    714.166    585.558    557.096    557.096
 33.970    838.000    841.653     -3.653    556.876    800.402    598.089    556.876    556.876
 34.070   1003.000    964.062     38.938    556.658    906.992    613.677    556.658    556.658
 34.170   1120.000   1078.589     41.411    556.442   1006.721    628.252    556.442    556.442
 34.270   1193.361   1131.769     61.593    556.229   1053.090    634.860    556.229    556.229
 34.370   1149.000   1089.308     59.692    556.018   1016.263    629.038    556.018    556.018
 34.470    976.000    979.335     -3.335    555.809    920.696    614.442    555.809    555.809
 34.570    792.000    855.295    -63.295    555.602    812.877    598.025    555.602    555.602
 34.670    704.000    751.687    -47.687    555.397    722.818    584.273    555.397    555.397
 34.770    693.000    679.521     13.479    555.195    660.100    574.621    555.195    555.195
 34.870    649.000    635.385     13.615    554.994    621.758    568.624    554.994    554.994
 34.970    652.900    610.478     42.422    554.796    600.137    565.138    554.796    554.796
 35.070    670.000    596.587     73.413    554.600    588.094    563.093    554.600    554.600
 35.170    638.513    588.327     50.186    554.406    580.943    561.789    554.406    554.406
 35.270    580.000    582.860     -2.860    554.214    576.216    560.857    554.214    554.214
 35.370    568.000    578.883    -10.883    554.024    572.779    560.128    554.024    554.024
 35.470    594.000    575.813     18.187    553.836    570.124    559.525    553.836    553.836
 35.570    542.000    573.362    -31.362    553.651    568.001    559.012    553.651    553.651
 35.670    589.357    571.367     17.990    553.467    566.266    558.568    553.467    553.467
 35.770    538.879    569.718    -30.839    553.286    564.825    558.178    553.286    553.286
 35.870    539.426    568.341    -28.915    553.107    563.612    557.835    553.107    553.107
 35.970    585.000    567.182     17.818    552.930    562.579    557.532    552.930    552.930
 36.070    596.000    566.200     29.800    552.755    561.690    557.264    552.755    552.755
 36.170    527.748    565.367    -37.619    552.582    560.918    557.030    552.582    552.582
 36.270    571.000    564.661      6.339    552.411    560.243    556.828    552.411    552.411
 36.370    573.000    564.068      8.932    552.242    559.650    556.659    552.242    552.242
 36.470    538.961    563.578    -24.617    552.075    559.128    556.525    552.075    552.075
 36.570    552.000    563.186    -11.186    551.910    558.668    556.428    551.910    551.910
 36.670    584.000    562.891     21.109    551.748    558.265    556.374    551.748    551.748
 36.770    546.000    562.697    -16.697    551.587    557.914    556.369    551.587    551.587
 36.870    613.000    562.613     50.387    551.428    557.618    556.423    551.428    551.428
 36.970    524.000    562.661    -38.661    551.272    557.380    556.552    551.272    551.272
 37.070    560.841    562.876     -2.035    551.117    557.219    556.775    551.117    551.117
 37.170    551.000    563.334    -12.334    550.965    557.173    557.125    550.965    550.965
 37.270    578.000    564.177     13.823    550.814    557.326    557.665    550.814    550.814
 37.370    589.000    565.681     23.319    550.666    557.825    558.522    550.666    550.666
 37.470    608.000    568.321     39.679    550.519    558.875    559.965    550.519    550.519
 37.570    568.000    572.846     -4.846    550.375    560.680    562.541    550.375    550.375
 37.670    577.000    580.272     -3.272    550.232    563.314    567.190    550.232    550.232
 37.770    562.559    591.665    -29.105    550.092    566.531    575.226    550.092    550.092
 37.870    641.725    607.550     34.175    549.953    569.558    587.945    549.953    549.953
 37.970    581.713    627.093    -45.380    549.817    571.142    605.767    549.817    549.817
 38.070    613.000    647.784    -34.784    549.682    570.439    627.025    549.682    549.682
 38.170    618.403    665.044    -46.641    549.550    567.921    646.672    549.550    549.550
 38.270    651.000    671.830    -20.830    549.419    564.671    656.579    549.419    549.419
 38.370    587.000    663.388    -76.388    549.290    561.489    651.193    549.290    549.290
 38.470    609.000    643.320    -34.320    549.163    558.817    633.672    549.163    549.163
 38.570    624.000    619.775      4.225    549.039    556.817    612.002    549.039    549.039
 38.670    562.000    598.909    -36.909    548.916    555.435    592.394    548.916    548.916
 38.770    547.226    583.283    -36.057    548.795    554.518    577.563    548.795    548.795
 38.870    592.000    572.914     19.086    548.676    553.911    567.681    548.676    548.676
 38.970    566.000    566.587     -0.587    548.559    553.492    561.655    548.559    548.559
 39.070    566.790    562.866      3.923    548.443    553.186    558.124    548.443    548.443
 39.170    502.000    560.624    -58.624    548.330    552.946    556.009    548.330    548.330
 39.270    546.538    559.166    -12.628    548.219    552.748    554.637    548.219    548.219
 39.370    597.809    558.125     39.683    548.109    552.579    553.656    548.109    548.109
 39.470    530.000    557.328    -27.328    548.001    552.431    552.898    548.001    548.001
 39.570    574.000    556.688     17.312    547.895    552.302    552.282    547.895    547.895
 39.670    543.000    556.163    -13.163    547.791    552.187    551.767    547.791    547.791
 39.770    575.000    555.725     19.275    547.689    552.086    551.328    547.689    547.689
 39.870    570.000    555.356     14.644    547.589    551.998    550.947    547.589    547.589
 39.970    541.337    555.043    -13.707    547.490    551.922    550.612    547.490    547.490
 40.070    519.364    554.778    -35.414    547.394    551.858    550.315    547.394    547.394
 40.170    557.796    554.553      3.243    547.299    551.805    550.047    547.299    547.299
 40.270    555.000    554.363      0.637    547.206    551.764    549.806    547.206    547.206
 40.370    561.000    554.205      6.795    547.115    551.735    549.585    547.115    547.115
 40.470    545.000    554.076     -9.076    547.025    551.720    549.382    547.025    547.025
 40.570    522.000    553.975    -31.975    546.938    551.718    549.195    546.938    546.938
 40.670    532.000    553.900    -21.900    546.852    551.732    549.021    546.852    546.852
 40.770    569.000    553.853     15.147    546.768    551.762    548.859    546.768    546.768
 40.870    509.000    553.834    -44.834    546.686    551.812    548.708    546.686    546.686
 40.970    567.000    553.845     13.155    546.605    551.885    548.566    546.605    546.605
 41.070    583.000    553.889     29.111    546.527    551.982    548.434    546.527    546.527
 41.170    559.042    553.969      5.074    546.449    552.110    548.309    546.449    546.449
 41.270    513.113    554.091    -40.978    546.374    552.274    548.192    546.374    546.374
 41.370    547.627    554.263     -6.636    546.301    552.481    548.083    546.301    546.301
 41.470    571.000    554.494     16.506    546.229    552.743    547.981    546.229    546.229
 41.570    550.000    554.798     -4.798    546.159    553.071    547.887    546.159    546.159
 41.670    551.000    555.196     -4.196    546.090    553.487    547.801    546.090    546.090
 41.770    587.729    555.717     32.011    546.024    554.020    547.723    546.024    546.024
 41.870    560.000    556.417      3.583    545.959    554.722    547.656    545.959    545.959
 41.970    577.710    557.402     20.307    545.895    555.697    547.603    545.895    545.895
 42.070    561.391    558.892      2.499    545.834    557.157    547.572    545.834    545.834
 42.170    528.123    561.316    -33.193    545.774    559.515    547.579    545.774    545.774
 42.270    587.635    565.429     22.207    545.715    563.500    547.651    545.715    545.715
 42.370    506.000    572.348    -66.348    545.659    570.188    547.828    545.659    545.659
 42.470    625.992    583.371     42.621    545.603    580.832    548.157    545.603    545.603
 42.570    598.000    599.448     -1.448    545.550    596.345    548.674    545.550    545.550
 42.670    535.000    620.334    -85.334    545.498    616.494    549.369    545.498    545.498
 42.770    651.854    643.565      8.289    545.448    638.904    550.152    545.448    545.448
 42.870    617.000    663.535    -46.535    545.399    658.168    550.820    545.399    545.399
 42.970    676.000    672.378      3.622    545.352    666.707    551.084    545.352    545.352
 43.070    607.000    665.545    -58.545    545.307    660.132    550.779    545.307    545.307
 43.170    667.734    646.692     21.042    545.263    641.969    550.038    545.263    545.263
 43.270    667.670    623.570     44.100    545.221    619.687    549.145    545.221    545.221
 43.370    535.000    602.179    -67.179    545.180    599.072    548.316    545.180    545.180
 43.470    577.641    585.382     -7.741    545.141    582.885    547.658    545.141    545.141
 43.570    555.713    573.681    -17.968    545.103    571.610    547.188    545.103    545.103
 43.670    597.000    566.247     30.753    545.067    564.447    546.876    545.067    545.067
 43.770    541.298    561.798    -20.501    545.033    560.162    546.675    545.033    545.033
 43.870    535.000    559.178    -24.178    545.000    557.639    546.543    545.000    545.000
 43.970    565.000    557.582      7.418    544.968    556.103    546.450    544.968    544.968
 44.070    553.000    556.541     -3.541    544.938    555.101    546.380    544.938    544.938
 44.170    584.000    555.810     28.190    544.909    554.397    546.324    544.909    544.909
 44.270    566.000    555.270     10.730    544.882    553.876    546.277    544.882    544.882
 44.370    555.000    554.861      0.139    544.857    553.482    546.238    544.857    544.857
 44.470    598.000    554.551     43.449    544.832    553.181    546.204    544.832    544.832
 44.570    607.000    554.317     52.683    544.810    552.953    546.175    544.810    544.810
 44.670    563.000    554.145      8.855    544.789    552.784    546.151    544.789    544.789
 44.770    560.000    554.025      5.975    544.769    552.663    546.131    544.769    544.769
 44.870    577.821    553.949     23.872    544.750    552.584    546.115    544.750    544.750
 44.970    512.198    553.911    -41.713    544.733    552.541    546.103    544.733    544.733
 45.070    535.640    553.906    -18.266    544.718    552.529    546.095    544.718    544.718
 45.170    560.000    553.932      6.068    544.703    552.545    546.091    544.703    544.703
 45.270    560.000    553.987      6.013    544.691    552.587    546.090    544.691    544.691
 45.370    613.000    554.067     58.933    544.679    552.654    546.093    544.679    544.679
 45.470    535.155    554.174    -19.019    544.669    552.744    546.099    544.669    544.669
 45.570    549.000    554.306     -5.306    544.660    552.857    546.110    544.660    544.660
 45.670    550.000    554.463     -4.463    544.653    552.992    546.124    544.653    544.653
 45.770    559.266    554.646      4.620    544.647    553.151    546.142    544.647    544.647
 45.870    585.000    554.857     30.143    544.642    553.334    546.165    544.642    544.642
 45.970    551.000    555.095     -4.095    544.639    553.541    546.192    544.639    544.639
 46.070    605.283    555.364     49.919    544.637    553.776    546.224    544.637    544.637
 46.170    550.000    555.666     -5.666    544.636    554.040    546.261    544.636    544.636
 46.270    539.000    556.005    -17.005    544.637    554.337    546.304    544.637    544.637
 46.370    580.685    556.384     24.301    544.638    554.669    546.352    544.638    544.638
 46.470    565.000    556.810      8.190    544.641    555.043    546.408    544.641    544.641
 46.570    514.000    557.289    -43.289    544.646    555.463    546.471    544.646    544.646
 46.670    533.819    557.831    -24.013    544.651    555.939    546.542    544.651    544.651
 46.770    556.853    558.448     -1.596    544.658    556.482    546.623    544.658    544.658
 46.870    533.000    559.158    -26.158    544.666    557.107    546.715    544.666    544.666
 46.970    529.000    559.990    -30.990    544.675    557.841    546.822    544.675    544.675
 47.070    548.000    560.995    -12.995    544.686    558.731    546.947    544.686    544.686
 47.170    561.884    562.272     -0.388    544.697    559.866    547.101    544.697    544.697
 47.270    599.209    564.006     35.203    544.710    561.414    547.298    544.710    544.710
 47.370    519.315    566.518    -47.203    544.724    563.670    547.566    544.724    544.724
 47.470    555.000    570.308    -15.308    544.740    567.090    547.950    544.740    544.740
 47.570    552.000    576.033    -24.033    544.756    572.272    548.506    544.756    544.756
 47.670    557.029    584.366    -27.337    544.773    579.831    549.291    544.773    544.773
 47.770    578.000    595.711    -17.711    544.792    590.137    550.342    544.792    544.792
 47.870    661.019    609.808     51.211    544.812    602.948    551.637    544.812    544.812
 47.970    608.000    625.271    -17.271    544.833    617.001    553.059    544.833    544.833
 48.070    683.587    639.231     44.357    544.855    629.667    554.365    544.855    544.855
 48.170    679.000    647.716     31.284    544.878    637.319    555.219    544.878    544.878
 48.270    630.000    647.832    -17.832    544.902    637.305    555.375    544.902    544.902
 48.370    635.000    640.204     -5.204    544.927    630.195    554.889    544.927    544.927
 48.470    613.122    628.381    -15.260    544.954    619.229    554.069    544.954    544.954
 48.570    662.000    616.168     45.832    544.981    607.879    553.242    544.981    544.981
 48.670    600.000    606.058     -6.058    545.009    598.419    552.629    545.009    545.009
 48.770    635.649    599.158     36.491    545.039    591.854    552.329    545.039    545.039
 48.870    574.000    595.601    -21.601    545.069    588.295    552.365    545.069    545.069
 48.970    588.000    595.002     -7.002    545.101    587.379    552.716    545.101    545.101
 49.070    604.000    596.844      7.156    545.133    588.617    553.355    545.133    545.133
 49.170    554.464    600.768    -46.304    545.167    591.652    554.278    545.167    545.167
 49.270    633.087    606.773     26.314    545.202    596.438    555.531    545.202    545.202
 49.370    630.000    615.490     14.510    545.237    603.457    557.264    545.237    545.237
 49.470    626.000    628.797     -2.797    545.273    614.211    559.852    545.273    545.273
 49.570    607.000    651.076    -44.076    545.311    632.234    564.142    545.311    545.311
 49.670    652.000    691.261    -39.261    545.349    664.744    571.847    545.349    545.349
 49.770    775.000    765.035      9.965    545.388    724.417    585.972    545.388    545.388
 49.870    853.000    895.181    -42.181    545.429    829.670    610.878    545.429    545.429
 49.970   1101.000   1106.991     -5.991    545.470   1000.954    651.408    545.470    545.470
 50.070   1346.000   1416.629    -70.629    545.512   1251.342    710.657    545.512    545.512
 50.170   1733.000   1814.365    -81.365    545.555   1572.981    786.762    545.555    545.555
 50.270   2246.036   2249.250     -3.214    545.598   1924.694    869.969    545.598    545.598
 50.370   2575.000   2624.099    -49.099    545.643   2227.927    941.668    545.643    545.643
 50.470   2796.000   2817.444    -21.444    545.688   2384.488    978.589    545.688    545.688
 50.570   2661.000   2751.761    -90.761    545.735   2331.706    965.853    545.735    545.735
 50.670   2404.000   2456.947    -52.947    545.782   2093.802    909.083    545.782    545.782
 50.770   2037.000   2042.615     -5.615    545.830   1759.383    829.256    545.830    545.830
 50.870   1600.000   1622.693    -22.693    545.879   1420.611    748.148    545.879    545.879
 50.970   1204.000   1271.990    -67.990    545.928   1138.099    679.974    545.928    545.928
 51.070   1020.000   1019.767      0.233    545.979    935.554    630.306    545.979    545.979
 51.170    832.376    860.672    -28.297    546.030    808.598    598.185    546.030    546.030
 51.270    822.480    771.500     50.980    546.082    738.269    579.371    546.082    546.082
 51.370    766.000    725.705     40.295    546.135    702.724    569.162    546.135    546.135
 51.470    661.463    701.670    -40.207    546.188    683.964    563.933    546.188    546.188
 51.570    699.000    685.612     13.388    546.242    670.420    561.468    546.242    546.242
 51.670    656.000    671.345    -15.345    546.297    657.027    560.644    546.297    546.297
 51.770    658.000    657.813      0.187    546.353    643.243    560.945    546.353    546.353
 51.870    681.000    645.915     35.085    546.409    630.267    562.073    546.409    546.409
 51.970    600.492    636.472    -35.980    546.467    619.255    563.693    546.467    546.467
 52.070    587.852    629.581    -41.729    546.524    610.797    565.314    546.524    546.524
 52.170    643.000    624.660     18.340    546.583    604.949    566.295    546.583    546.583
 52.270    619.000    620.881     -1.881    546.642    601.442    566.082    546.642    546.642
 52.370    610.000    617.736     -7.736    546.702    599.877    564.561    546.702    546.702
 52.470    585.000    615.307    -30.307    546.762    599.922    562.147    546.762    546.762
 52.570    678.000    614.063     63.937    546.823    601.429    559.457    546.823    546.823
 52.670    631.000    614.640     16.360    546.885    604.541    556.985    546.885    546.885
 52.770    618.000    617.889      0.111    546.947    609.823    555.014    546.947    546.947
 52.870    638.000    625.116     12.884    547.010    618.484    553.643    547.010    547.010
 52.970    651.000    638.416     12.584    547.073    632.633    552.856    547.073    547.073
 53.070    664.000    660.940      3.060    547.137    655.481    552.596    547.137    547.137
 53.170    711.406    696.830     14.576    547.202    691.214    552.815    547.202    547.202
 53.270    772.662    750.510     22.153    547.267    744.276    553.498    547.267    547.267
 53.370    877.000    825.200     51.800    547.333    817.891    554.637    547.333    547.333
 53.470    884.488    920.795    -36.308    547.399    911.994    556.195    547.399    547.399
 53.570   1037.485   1031.482      6.003    547.466   1020.894    558.050    547.466    547.466
 53.670   1216.000   1143.428     72.572    547.533   1131.014    559.945    547.533    547.533
 53.770   1301.000   1233.738     67.262    547.601   1219.901    561.443    547.601    547.601
 53.870   1308.449   1275.727     32.722    547.669   1261.303    562.108    547.669    547.669
 53.970   1247.347   1254.195     -6.848    547.738   1240.255    561.703    547.738    547.738
 54.070   1175.542   1177.702     -2.160    547.807   1165.194    560.346    547.807    547.807
 54.170   1040.000   1071.062    -31.062    547.877   1060.503    558.468    547.877    547.877
 54.270    968.000    959.121      8.879    547.947    950.593    556.504    547.947    547.947
 54.370    769.000    858.616    -89.616    548.017    851.911    554.746    548.017    548.017
 54.470    769.000    777.758     -8.758    548.088    772.526    553.339    548.088    548.088
 54.570    716.000    718.254     -2.254    548.160    714.117    552.310    548.160    548.160
 54.670    674.000    677.695     -3.695    548.231    674.319    551.617    548.231    548.231
 54.770    644.000    651.796     -7.796    548.304    648.921    551.184    548.304    548.304
 54.870    660.371    636.120     24.252    548.376    633.566    550.934    548.376    548.376
 54.970    590.083    627.051    -36.968    548.449    624.703    550.800    548.449    548.449
 55.070    666.000    622.084     43.916    548.522    619.868    550.740    548.522    548.522
 55.170    625.000    619.686      5.314    548.596    617.558    550.725    548.596    548.596
 55.270    716.000    619.021     96.979    548.670    616.952    550.740    548.670    548.670
 55.370    665.000    619.683     45.317    548.744    617.650    550.777    548.744    548.744
 55.470    601.891    621.511    -19.620    548.819    619.498    550.832    548.819    548.819
 55.570    629.000    624.496      4.504    548.894    622.488    550.903    548.894    548.894
 55.670    576.000    628.751    -52.751    548.969    626.730    550.990    548.969    548.969
 55.770    586.948    634.538    -47.590    549.044    632.488    551.094    549.044    549.044
 55.870    599.000    642.385    -43.385    549.120    640.285    551.220    549.120    549.120
 55.970    678.992    653.328     25.665    549.196    651.148    551.374    549.196    549.196
 56.070    666.000    669.338     -3.338    549.273    667.035    551.571    549.273    549.273
 56.170    706.000    693.976     12.024    549.349    691.480    551.839    549.349    549.349
 56.270    767.548    733.172     34.376    549.426    730.365    552.221    549.426    549.426
 56.370    779.000    795.804    -16.804    549.503    792.502    552.785    549.503    549.503
 56.470    880.917    893.477    -12.560    549.580    889.407    553.618    549.580    549.580
 56.570   1089.453   1038.765     50.687    549.657   1033.561    554.815    549.657    549.657
 56.670   1177.000   1241.492    -64.492    549.735   1234.715    556.452    549.735    549.735
 56.770   1444.000   1503.337    -59.337    549.813   1494.541    558.541    549.813    549.813
 56.870   1745.000   1811.882    -66.882    549.890   1800.719    560.990    549.890    549.890
 56.970   2167.230   2135.422     31.807    549.969   2121.789    563.560    549.969    549.969
 57.070   2489.000   2420.735     68.265    550.047   2404.933    565.854    550.047    550.047
 57.170   2589.000   2600.676    -11.676    550.125   2583.509    567.366    550.125    550.125
 57.270   2695.000   2620.982     74.018    550.203   2603.642    567.690    550.203    550.203
 57.370   2424.000   2474.888    -50.888    550.282   2458.589    566.779    550.282    550.282
 57.470   2276.000   2208.628     67.372    550.361   2194.219    564.985    550.361    550.361
 57.570   1952.000   1890.053     61.947    550.439   1877.869    562.825    550.439    550.439
 57.670   1508.926   1576.985    -68.059    550.518   1566.927    560.748    550.518    550.518
 57.770   1379.983   1305.984     73.999    550.597   1297.659    559.056    550.597    550.597
 57.870   1089.000   1093.520     -4.520    550.676   1086.369    557.924    550.676    550.676
 57.970    872.000    940.941    -68.941    550.755    934.295    557.465    550.755    550.755
 58.070    802.000    840.528    -38.528    550.834    833.594    557.808    550.834    550.834
 58.170    833.408    781.318     52.090    550.913    773.078    559.174    550.913    550.913
 58.270    732.000    753.408    -21.408    550.992    742.475    561.930    550.992    550.992
 58.370    743.950    750.073     -6.123    551.071    734.584    566.553    551.071    551.071
 58.470    826.000    767.909     58.091    551.150    745.543    573.497    551.150    551.150
 58.570    793.000    805.590    -12.590    551.229    773.828    582.961    551.229    551.229
 58.670    860.000    862.024     -2.024    551.308    818.694    594.598    551.308    551.308
 58.770    899.000    934.494    -35.494    551.387    878.543    607.291    551.387    551.387
 58.870   1057.417   1017.220     40.197    551.466    949.559    619.080    551.466    551.466
 58.970   1067.016   1100.963    -33.947    551.545   1025.071    627.398    551.545    551.545
 59.070   1187.000   1174.951     12.049    551.624   1096.640    629.911    551.624    551.624
 59.170   1203.000   1231.042    -28.042    551.702   1156.906    625.833    551.702    551.702
 59.270   1290.536   1265.700     24.836    551.781   1200.968    616.526    551.781    551.781
 59.370   1324.594   1277.425     47.170    551.859   1224.760    604.555    551.859    551.859
 59.470   1297.000   1265.756     31.244    551.938   1225.358    592.376    551.938    551.938
 59.570   1268.000   1235.114     32.886    552.016   1205.466    581.703    552.016    552.016
 59.670   1156.930   1196.839    -39.909    552.094   1175.576    573.379    552.094    552.094
 59.770   1189.000   1164.744     24.256    552.172   1149.393    567.515    552.172    552.172
 59.870   1100.088   1149.576    -49.487    552.250   1138.050    563.729    552.250    552.250
 59.970   1196.000   1157.482     38.518    552.327   1148.278    561.441    552.327    552.327
 60.070   1198.000   1191.525      6.475    552.405   1183.691    560.100    552.405    552.405
 60.170   1272.000   1252.303     19.697    552.482   1245.288    559.312    552.482    552.482
 60.270   1292.000   1335.396    -43.396    552.559   1328.886    558.841    552.559    552.559
 60.370   1457.000   1428.169     28.831    552.636   1421.984    558.562    552.636    552.636
 60.470   1567.511   1509.256     58.255    552.713   1503.292    558.405    552.713    552.713
 60.570   1599.000   1552.709     46.291    552.789   1546.911    558.329    552.789    552.789
 60.670   1593.060   1538.366     54.694    552.865   1532.702    558.308    552.865    552.865
 60.770   1496.150   1463.501     32.649    552.941   1457.935    558.334    552.941    552.941
 60.870   1409.000   1344.233     64.767    553.017   1338.708    558.415    553.017    553.017
 60.970   1219.000   1205.127     13.873    553.092   1199.560    558.573    553.092    553.092
 61.070   1108.000   1068.397     39.603    553.167   1062.671    558.836    553.167    553.167
 61.170    943.000    949.327     -6.327    553.242    943.283    559.248    553.242    553.242
 61.270    851.000    856.006     -5.006    553.317    849.412    559.883    553.317    553.317
 61.370    882.000    790.820     91.180    553.391    783.320    560.866    553.391    553.391
 61.470    762.000    752.732      9.268    553.465    743.763    562.406    553.465    553.465
 61.570    787.000    739.717     47.283    553.538    728.394    564.826    553.538    553.538
 61.670    776.083    750.623     25.460    553.612    735.613    568.572    553.612    553.612
 61.770    776.000    785.940     -9.940    553.685    765.373    574.184    553.685    553.685
 61.870    828.528    847.314    -18.786    553.757    818.783    582.196    553.757    553.757
 61.970    943.000    935.953      7.047    553.829    896.693    592.970    553.829    553.829
 62.070   1034.850   1050.425    -15.575    553.901    997.700    606.476    553.901    553.901
 62.170   1200.000   1184.442     15.558    553.972   1116.157    622.080    553.972    553.972
 62.270   1342.000   1325.180     16.820    554.043   1240.651    638.376    554.043    554.043
 62.370   1419.000   1452.648    -33.648    554.114   1353.430    653.132    554.114    554.114
 62.470   1623.000   1541.628     81.372    554.184   1432.109    663.518    554.184    554.184
 62.570   1491.000   1569.177    -78.177    554.254   1456.320    666.956    554.254    554.254
 62.670   1494.000   1526.795    -32.795    554.323   1418.509    662.493    554.323    554.323
 62.770   1419.000   1426.335     -7.335    554.392   1329.176    651.471    554.392    554.392
 62.870   1231.937   1292.108    -60.171    554.460   1209.883    636.634    554.460    554.460
 62.970   1135.000   1148.730    -13.730    554.528   1082.465    620.762    554.528    554.528
 63.070   1011.000   1014.688     -3.688    554.595    963.322    605.944    554.595    554.595
 63.170    932.000    901.075     30.925    554.662    862.291    593.436    554.662    554.662
 63.270    867.646    812.364     55.283    554.729    783.338    583.747    554.729    554.729
 63.370    804.000    748.065     55.935    554.795    726.025    576.827    554.795    554.795
 63.470    700.954    704.592     -3.639    554.860    687.166    572.278    554.860    554.860
 63.570    690.000    677.233     12.767    554.925    662.571    569.577    554.925    554.925
 63.670    644.905    661.580    -16.675    554.989    648.319    568.239    554.989    554.989
 63.770    654.000    654.361     -0.361    555.053    641.481    567.920    555.053    555.053
 63.870    704.000    653.745     50.255    555.116    640.383    568.462    555.116    555.116
 63.970    718.000    659.316     58.684    555.179    644.559    569.915    555.179    555.179
 64.070    699.000    671.893     27.107    555.241    654.560    572.548    555.241    555.241
 64.170    704.000    693.241     10.759    555.302    671.656    576.852    555.302    555.302
 64.270    765.000    725.656     39.344    555.363    697.448    583.523    555.363    555.363
 64.370    816.274    771.376     44.898    555.423    733.343    593.392    555.423    555.423
 64.470    842.000    831.797     10.203    555.483    779.930    607.265    555.483    555.483
 64.570    942.888    906.544     36.344    555.542    836.290    625.687    555.542    555.542
 64.670   1046.000    992.514     53.486    555.600    899.345    648.637    555.600    555.600
 64.770   1138.000   1083.077     54.923    555.658    963.362    675.221    555.658    555.658
 64.870   1212.000   1167.884     44.116    555.715   1020.006    703.428    555.715    555.715
 64.970   1253.000   1234.221     18.779    555.772   1059.795    730.031    555.772    555.772
 65.070   1327.000   1270.488     56.512    555.828   1075.348    750.813    555.828    555.828
 65.170   1277.000   1270.313      6.687    555.883   1064.580    761.486    555.883    555.883
 65.270   1322.000   1234.835     87.165    555.937   1031.264    759.408    555.937    555.937
 65.370   1147.972   1172.176    -24.203    555.991    983.030    745.069    555.991    555.991
 65.470   1166.000   1094.325     71.675    556.044    928.512    721.819    556.044    556.044
 65.570   1002.000   1013.016    -11.016    556.096    874.964    694.135    556.096    556.096
 65.670    895.000    936.847    -41.847    556.148    826.976    666.024    556.148    556.148
 65.770    858.805    870.460    -11.655    556.199    786.336    640.340    556.199    556.199
 65.870    817.306    815.202      2.105    556.249    752.767    618.707    556.249    556.249
 65.970    726.000    770.505    -44.505    556.298    725.129    601.699    556.298    556.298
 66.070    679.309    735.145    -55.836    556.347    702.407    589.107    556.347    556.347
 66.170    764.248    707.805     56.443    556.394    683.962    580.256    556.394    556.394
 66.270    665.000    687.175    -22.175    556.442    669.345    574.285    556.442    556.442
 66.370    725.661    672.026     53.636    556.488    658.157    570.366    556.488    556.488
 66.470    715.511    661.321     54.189    556.533    650.045    567.816    556.533    556.533
 66.570    621.000    654.265    -33.265    556.578    644.711    566.135    556.578    556.578
 66.670    623.000    650.292    -27.292    556.622    641.922    564.992    556.622    556.622
 66.770    613.164    649.036    -35.873    556.665    641.520    564.182    556.665    556.665
 66.870    648.000    650.349     -2.349    556.707    643.470    563.586    556.707    556.707
 66.970    652.000    654.366     -2.366    556.749    647.970    563.143    556.749    556.749
 67.070    670.000    661.656      8.344    556.789    655.620    562.824    556.789    556.789
 67.170    660.000    673.437    -13.437    556.829    667.640    562.624    556.829    556.829
 67.270    656.000    691.849    -35.849    556.868    686.157    562.556    556.868    556.868
 67.370    693.000    720.234    -27.234    556.906    714.480    562.654    556.906    556.906
 67.470    741.000    763.315    -22.315    556.943    757.279    562.970    556.943    556.943
 67.570    846.000    827.109     18.891    556.979    820.501    563.573    556.979    556.979
 67.670    922.921    918.375      4.546    557.014    910.827    564.543    557.014    557.014
 67.770   1058.000   1043.457     14.543    557.049   1034.527    565.956    557.049    557.049
 67.870   1220.812   1206.529     14.283    557.082   1195.727    567.861    557.082    557.082
 67.970   1385.000   1407.464    -22.464    557.115   1394.308    570.254    557.115    557.115
 68.070   1647.383   1639.705      7.678    557.146   1623.799    573.051    557.146    557.146
 68.170   1912.000   1888.515     23.485    557.177   1869.651    576.067    557.177    557.177
 68.270   2217.732   2129.957     87.775    557.207   2108.230    579.002    557.207    557.207
 68.370   2369.000   2331.645     37.355    557.236   2307.554    581.450    557.236    557.236
 68.470   2442.000   2457.843    -15.843    557.264   2432.326    582.966    557.264    557.264
 68.570   2416.000   2481.123    -65.123    557.291   2455.451    583.206    557.291    557.291
 68.670   2459.000   2395.792     63.208    557.317   2371.292    582.099    557.317    557.317
 68.770   2123.623   2221.312    -97.689    557.342   2199.063    579.885    557.342    557.342
 68.870   1997.515   1991.873      5.642    557.366   1972.529    576.991    557.366    557.366
 68.970   1676.000   1742.459    -66.459    557.389   1726.248    573.853    557.389    557.389
 69.070   1496.000   1500.861     -4.861    557.411   1487.670    570.816    557.411    557.411
 69.170   1243.000   1285.583    -42.583    557.432   1275.077    568.110    557.432    557.432
 69.270   1156.237   1106.392     49.845    557.452   1098.118    565.858    557.452    557.452
 69.370   1016.099    965.824     50.275    557.470    959.307    564.086    557.470    557.470
 69.470    880.611    861.211     19.399    557.488    856.002    562.768    557.488    557.488
 69.570    792.691    786.835      5.856    557.505    782.558    561.830    557.505    557.505
 69.670    734.622    735.889     -1.267    557.521    732.256    561.187    557.521    557.521
 69.770    727.910    701.900     26.010    557.536    698.700    560.758    557.536    557.536
 69.870    656.336    679.511    -23.175    557.550    676.601    560.475    557.550    557.550
 69.970    696.672    664.733     31.939    557.562    662.017    560.290    557.562    557.562
 70.070    700.480    654.839     45.641    557.574    652.254    560.167    557.574    557.574
 70.170    620.921    648.093    -27.172    557.584    645.597    560.085    557.584    557.584
 70.270    648.000    643.456      4.544    557.594    641.021    560.032    557.594    557.594
 70.370    619.000    640.343    -21.343    557.602    637.946    560.001    557.602    557.602
 70.470    653.000    638.445     14.555    557.609    636.068    559.986    557.609    557.609
 70.570    623.559    637.634    -14.075    557.615    635.259    559.989    557.615    557.615
 70.670    609.000    637.912    -28.912    557.621    635.521    560.008    557.621    557.621
 70.770    611.594    639.417    -27.822    557.624    636.989    560.048    557.624    557.624
 70.870    668.429    642.463     25.965    557.627    639.971    560.113    557.627    557.627
 70.970    665.000    647.628     17.372    557.629    645.034    560.214    557.629    557.629
 71.070    617.000    655.872    -38.872    557.629    653.121    560.368    557.629    557.629
 71.170    702.000    668.689     33.311    557.629    665.700    560.601    557.629    557.629
 71.270    701.000    688.247     12.753    557.627    684.899    560.951    557.627    557.627
 71.370    773.000    717.465     55.535    557.624    713.586    561.468    557.624    557.624
 71.470    761.000    759.945      1.055    557.620    755.301    562.216    557.620    557.620
 71.570    765.532    819.667    -54.135    557.614    813.950    563.264    557.614    557.614
 71.670    950.000    900.387     49.613    557.608    893.228    564.677    557.608    557.608
 71.770   1033.000   1004.758     28.242    557.600    995.737    566.502    557.600    557.600
 71.870   1148.906   1133.242     15.664    557.591   1121.935    568.748    557.591    557.591
 71.970   1307.000   1283.021     23.979    557.581   1269.052    571.366    557.581    557.581
 72.070   1451.360   1447.041      4.319    557.570   1430.159    574.237    557.570    557.570
 72.170   1604.000   1613.350     -9.350    557.558   1593.515    577.153    557.558    557.558
 72.270   1706.863   1764.981    -58.118    557.544   1742.449    579.823    557.544    557.544
 72.370   1930.000   1881.291     48.709    557.529   1856.680    581.891    557.529    557.529
 72.470   1901.534   1942.261    -40.727    557.513   1916.535    583.010    557.513    557.513
 72.570   1972.329   1935.670     36.659    557.496   1910.000    582.971    557.496    557.496
 72.670   1904.000   1862.881     41.119    557.477   1838.407    581.798    557.477    557.477
 72.770   1679.889   1738.097    -58.208    557.457   1715.706    579.737    557.457    557.457
 72.870   1601.000   1581.866     19.134    557.436   1562.085    577.140    557.436    557.436
 72.970   1473.000   1414.315     58.685    557.414   1397.327    574.353    557.414    557.414
 73.070   1171.000   1251.501    -80.501    557.390   1237.217    571.645    557.390    557.390
 73.170   1061.000   1104.430    -43.430    557.365   1092.582    569.197    557.365    557.365
 73.270    950.635    979.298    -28.662    557.339    969.523    567.106    557.339    557.339
 73.370    879.761    878.233      1.528    557.312    870.139    565.402    557.312    557.312
 73.470    817.521    800.295     17.225    557.283    793.507    564.069    557.283    557.283
 73.570    781.704    742.587     39.117    557.253    736.769    563.069    557.253    557.253
 73.670    693.000    701.305     -8.305    557.222    696.172    562.352    557.222    557.222
 73.770    728.101    672.564     55.537    557.189    667.879    561.872    557.189    557.189
 73.870    668.000    652.941     15.059    557.156    648.501    561.593    557.156    557.156
 73.970    671.078    639.724     31.353    557.120    635.351    561.492    557.120    557.120
 74.070    637.000    630.947      6.053    557.084    626.473    561.558    557.084    557.084
 74.170    631.856    625.289      6.567    557.046    620.545    561.793    557.046    557.046
 74.270    643.000    621.913     21.087    557.007    616.725    562.201    557.007    557.007
 74.370    608.000    620.303    -12.303    556.967    614.492    562.787    556.967    556.967
 74.470    657.619    620.116     37.503    556.925    613.507    563.547    556.925    556.925
 74.570    680.000    621.077     58.923    556.882    613.514    564.463    556.882    556.882
 74.670    670.000    622.900     47.100    556.838    614.264    565.497    556.838    556.838
 74.770    628.000    625.236      2.764    556.792    615.473    566.584    556.792    556.792
 74.870    630.000    627.653      2.347    556.745    616.795    567.637    556.745    556.745
 74.970    618.670    629.641    -10.971    556.697    617.830    568.547    556.697    556.697
 75.070    707.000    630.682     76.318    556.647    618.171    569.200    556.647    556.647
 75.170    627.695    630.397     -2.702    556.596    617.518    569.518    556.596    556.596
 75.270    606.781    628.713    -21.932    556.543    615.805    569.493    556.543    556.543
 75.370    676.000    625.925     50.075    556.490    613.245    569.208    556.490    556.490
 75.470    685.000    622.600     62.400    556.434    610.256    568.813    556.434    556.434
 75.570    661.000    619.428     41.572    556.378    607.339    568.494    556.378    556.378
 75.670    634.917    617.117     17.800    556.320    605.006    568.451    556.320    556.320
 75.770    647.000    616.376     30.624    556.261    603.755    568.895    556.261    556.261
 75.870    598.440    617.912    -19.472    556.200    604.069    570.049    556.200    556.200
 75.970    604.000    622.431    -18.431    556.138    606.421    572.146    556.138    556.138
 76.070    618.384    630.607    -12.223    556.075    611.255    575.416    556.075    556.075
 76.170    645.000    643.023      1.977    556.010    618.947    580.067    556.010    556.010
 76.270    616.000    660.070    -44.070    555.944    629.742    586.243    555.944    555.944
 76.370    665.000    681.819    -16.819    555.876    643.676    593.981    555.876    555.876
 76.470    729.515    707.879     21.636    555.807    660.480    603.157    555.807    555.807
 76.570    753.000    737.287     15.713    555.736    679.514    613.450    555.736    555.736
 76.670    756.302    768.377    -12.076    555.665    699.678    624.294    555.665    555.665
 76.770    823.000    798.744     24.256    555.591    719.387    634.869    555.591    555.591
 76.870    850.000    825.285     24.715    555.517    736.604    644.113    555.517    555.517
 76.970    856.000    844.515     11.485    555.441    749.039    650.830    555.441    555.441
 77.070    914.000    853.332     60.668    555.363    754.657    653.954    555.363    555.363
 77.170    889.720    850.095     39.625    555.284    752.378    652.923    555.284    555.284
 77.270    820.602    835.329    -14.727    555.204    742.546    647.919    555.204    555.204
 77.370    786.606    811.475    -24.869    555.122    726.759    639.781    555.122    555.122
 77.470    760.000    781.901    -21.901    555.039    707.225    629.669    555.039    555.039
 77.570    732.000    749.932    -17.932    554.955    686.122    618.728    554.955    554.955
 77.670    707.000    718.316    -11.316    554.869    665.254    607.903    554.869    554.869
 77.770    682.303    689.050     -6.748    554.781    645.927    597.884    554.781    554.781
 77.870    644.000    663.389    -19.389    554.692    628.965    589.101    554.692    554.692
 77.970    586.000    641.929    -55.929    554.602    614.758    581.761    554.602    554.602
 78.070    597.477    624.728    -27.251    554.510    603.345    575.885    554.510    554.510
 78.170    578.061    611.460    -33.400    554.417    594.510    571.362    554.417    554.417
 78.270    651.701    601.568     50.132    554.323    587.887    567.999    554.323    554.323
 78.370    557.000    594.403    -37.403    554.227    583.051    565.574    554.227    554.227
 78.470    613.133    589.329     23.803    554.129    579.584    563.871    554.129    554.129
 78.570    588.000    585.793      2.207    554.030    577.123    562.698    554.030    554.030
 78.670    543.360    583.351    -39.991    553.930    575.374    561.904    553.930    553.930
 78.770    538.661    581.673    -43.012    553.828    574.122    561.376    553.828    553.828
 78.870    584.000    580.529      3.471    553.725    573.215    561.037    553.725    553.725
 78.970    541.000    579.771    -38.771    553.620    572.553    560.835    553.620    553.620
 79.070    599.000    579.308     19.692    553.514    572.079    560.741    553.514    553.514
 79.170    564.395    579.097    -14.701    553.406    571.759    560.741    553.406    553.406
 79.270    545.272    579.123    -33.851    553.297    571.585    560.833    553.297    553.297
 79.370    556.000    579.399    -23.399    553.187    571.559    561.024    553.187    553.187
 79.470    558.000    579.959    -21.959    553.075    571.697    561.334    553.075    553.075
 79.570    573.043    580.862     -7.819    552.961    572.025    561.795    552.961    552.961
 79.670    590.963    582.196      8.766    552.846    572.576    562.463    552.846    552.846
 79.770    569.000    584.092    -15.092    552.730    573.396    563.422    552.730    552.730
 79.870    552.000    586.733    -34.733    552.612    574.538    564.802    552.612    552.612
 79.970    561.000    590.381    -29.381    552.493    576.075    566.793    552.493    552.493
 80.070    593.309    595.397     -2.088    552.372    578.096    569.666    552.372    552.372
 80.170    578.000    602.262    -24.262    552.250    580.718    573.784    552.250    552.250
 80.270    613.000    611.586      1.414    552.126    584.090    579.611    552.126    552.126
 80.370    625.000    624.095      0.905    552.001    588.387    587.694    552.001    552.001
 80.470    608.000    640.586    -32.586    551.875    593.817    598.626    551.875    551.875
 80.570    670.000    661.856      8.144    551.747    600.605    612.976    551.747    551.747
 80.670    715.868    688.591     27.277    551.617    608.989    631.194    551.617    551.617
 80.770    747.000    721.237     25.763    551.486    619.208    653.487    551.486    551.486
 80.870    786.000    759.836     26.164    551.354    631.461    679.698    551.354    551.354
 80.970    839.000    803.836     35.164    551.220    645.842    709.182    551.220    551.220
 81.070    879.240    851.921     27.319    551.085    662.254    740.720    551.085    551.085
 81.170    931.878    901.906     29.972    550.948    680.343    772.483    550.948    550.948
 81.270    943.285    950.774     -7.489    550.810    699.464    802.097    550.810    550.810
 81.370   1053.000    994.934     58.066    550.670    718.713    826.877    550.670    550.670
 81.470   1049.000   1030.782     18.218    550.529    737.039    844.270    550.529    550.529
 81.570   1055.000   1055.430     -0.430    550.387    753.403    852.425    550.387    550.387
 81.670   1125.000   1067.265     57.735    550.243    766.928    850.605    550.243    550.243
 81.770   1141.000   1066.045     74.955    550.097    776.964    839.218    550.097    550.097
 81.870   1100.000   1052.720     47.280    549.950    783.120    819.603    549.950    549.950
 81.970   1014.960   1029.182    -14.222    549.802    785.273    793.774    549.802    549.802
 82.070   1020.000    997.911     22.089    549.652    783.505    764.129    549.652    549.652
 82.170    942.260    961.491    -19.231    549.501    777.976    733.092    549.501    549.501
 82.270    923.547    922.380      1.168    549.348    769.011    702.796    549.348    549.348
 82.370    907.942    882.593     25.349    549.194    757.031    674.834    549.194    549.194
 82.470    851.000    843.789      7.211    549.039    742.693    650.211    549.039    549.039
 82.570    804.000    807.259     -3.259    548.882    726.830    629.385    548.882    548.882
 82.670    753.000    773.826    -20.826    548.724    710.246    612.372    548.724    548.724
 82.770    712.000    743.817    -31.817    548.564    693.573    598.871    548.564    548.564
 82.870    730.000    717.197     12.803    548.402    677.263    588.394    548.402    548.402
 82.970    683.000    693.776    -10.776    548.240    661.674    580.393    548.240    548.240
 83.070    643.000    673.383    -30.383    548.076    647.159    574.344    548.076    548.076
 83.170    641.949    655.924    -13.975    547.910    634.067    569.804    547.910    547.910
 83.270    597.000    641.351    -44.351    547.743    622.705    566.418    547.743    547.743
 83.370    555.000    629.627    -74.627    547.575    613.299    563.925    547.575    547.575
 83.470    648.000    620.695     27.305    547.405    605.977    562.136    547.405    547.405
 83.570    645.805    614.462     31.343    547.234    600.777    560.925    547.234    547.234
 83.670    587.000    610.786    -23.786    547.062    597.644    560.202    547.062    547.062
 83.770    569.000    609.458    -40.458    546.888    596.438    559.897    546.888    546.888
 83.870    583.000    610.186    -27.186    546.712    596.933    559.947    546.712    546.712
 83.970    572.037    612.588    -40.551    546.536    598.819    560.279    546.536    546.536
 84.070    638.000    616.189     21.811    546.357    601.703    560.811    546.357    546.357
 84.170    649.000    620.424     28.576    546.178    605.121    561.442    546.178    546.178
 84.270    630.441    624.651      5.790    545.997    608.549    562.056    545.997    545.997
 84.370    622.000    628.190     -6.190    545.815    611.430    562.527    545.815    545.815
 84.470    604.000    630.385    -26.385    545.631    613.232    562.735    545.631    545.631
 84.570    641.000    630.732     10.268    545.446    613.545    562.585    545.446    545.446
 84.670    588.000    628.999    -40.999    545.260    612.177    562.035    545.260    545.260
 84.770    626.146    625.286      0.859    545.072    609.206    561.110    545.072    545.072
 84.870    606.488    619.973    -13.485    544.883    604.931    559.886    544.883    544.883
 84.970    577.000    613.587    -36.587    544.692    599.773    558.472    544.692    544.692
 85.070    588.000    606.681    -18.681    544.500    594.168    556.985    544.500    544.500
 85.170    554.986    599.752    -44.766    544.307    588.505    555.531    544.307    544.307
 85.270    578.000    593.211    -15.211    544.113    583.098    554.206    544.113    544.113
 85.370    550.538    587.366    -36.827    543.917    578.175    553.090    543.917    543.917
 85.470    573.000    582.429     -9.429    543.720    573.882    552.252    543.720    543.720
 85.570    600.240    578.522     21.717    543.521    570.286    551.746    543.521    543.521
 85.670    598.044    575.698     22.346    543.321    567.392    551.616    543.321    543.321
 85.770    564.310    573.950     -9.640    543.120    565.161    551.899    543.120    543.120
 85.870    566.000    573.240     -7.240    542.918    563.527    552.619    542.918    542.918
 85.970    565.000    573.504     -8.504    542.714    562.416    553.789    542.714    542.714
 86.070    543.924    574.669    -30.746    542.509    561.762    555.403    542.509    542.509
 86.170    624.390    576.658     47.732    542.302    561.516    557.429    542.302    542.302
 86.270    521.000    579.388    -58.388    542.095    561.656    559.809    542.095    542.095
 86.370    624.383    582.772     41.611    541.886    562.192    562.447    541.886    541.886
 86.470    608.000    586.719     21.281    541.675    563.165    565.206    541.675    541.675
 86.570    611.000    591.129     19.871    541.464    564.654    567.913    541.464    541.464
 86.670    614.633    595.899     18.734    541.251    566.763    570.357    541.251    541.251
 86.770    586.000    600.923    -14.923    541.037    569.621    572.304    541.037    541.037
 86.870    628.889    606.118     22.772    540.822    573.370    573.530    540.822    540.822
 86.970    603.000    611.451     -8.451    540.605    578.147    573.864    540.605    540.605
 87.070    613.000    616.972     -3.972    540.387    584.068    573.239    540.387    540.387
 87.170    644.000    622.808     21.192    540.168    591.202    571.713    540.168    540.168
 87.270    653.000    629.113     23.887    539.948    599.545    569.446    539.948    539.948
 87.370    673.287    635.996     37.291    539.726    608.993    566.649    539.726    539.726
 87.470    594.408    643.448    -49.040    539.504    619.322    563.539    539.504    539.504
 87.570    694.602    651.305     43.297    539.280    630.171    560.312    539.280    539.280
 87.670    660.132    659.220      0.912    539.055    641.032    557.131    539.055    539.055
 87.770    673.238    666.673      6.565    538.828    651.259    554.121    538.828    538.828
 87.870    676.000    672.996      3.004    538.601    660.097    551.372    538.601    538.601
 87.970    689.000    677.466     11.534    538.372    666.770    548.938    538.372    538.372
 88.070    763.000    679.452     83.548    538.142    670.627    546.837    538.142    538.142
 88.170    724.000    678.596     45.404    537.911    671.317    545.065    537.911    537.911
 88.270    670.067    674.929     -4.862    537.679    668.895    543.597    537.679    537.679
 88.370    713.000    668.861     44.139    537.446    663.805    542.397    537.446    537.446
 88.470    650.000    661.056    -11.056    537.211    656.750    541.426    537.211    537.211
 88.570    683.578    652.285     31.294    536.976    648.538    540.645    536.976    536.976
 88.670    653.000    643.316      9.684    536.739    639.972    540.021    536.739    536.739
 88.770    686.000    634.850     51.150    536.501    631.781    539.523    536.501    536.501
 88.870    631.000    627.482      3.518    536.262    624.582    539.128    536.262    536.262
 88.970    625.000    621.666      3.334    536.022    618.847    538.819    536.022    536.022
 89.070    620.213    617.694      2.519    535.781    614.884    538.580    535.781    535.781
 89.170    636.000    615.691     20.309    535.539    612.830    538.400    535.539    535.539
 89.270    562.442    615.606    -53.164    535.296    612.645    538.267    535.296    535.296
 89.370    636.000    617.229     18.771    535.052    614.131    538.169    535.052    535.052
 89.470    642.000    620.206     21.794    534.806    616.946    538.094    534.806    534.806
 89.570    601.000    624.061    -23.061    534.560    620.629    538.027    534.560    534.560
 89.670    607.769    628.220    -20.451    534.312    624.623    537.951    534.312    534.312
 89.770    580.000    632.048    -52.048    534.064    628.312    537.850    534.064    534.064
 89.870    645.671    634.907     10.764    533.814    631.072    537.705    533.814    533.814
 89.970    595.000    636.237    -41.237    533.564    632.360    537.500    533.564    533.564
 90.070    680.802    635.664     45.139    533.312    631.812    537.226    533.312    533.312
 90.170    622.000    633.074    -11.074    533.060    629.316    536.880    533.060    533.060
 90.270    683.000    628.628     54.372    532.806    625.026    536.469    532.806    532.806
 90.370    653.834    622.696     31.138    532.552    619.297    536.007    532.552    532.552
 90.470    622.000    615.747      6.253    532.296    612.585    535.510    532.296    532.296
 90.570    604.000    608.265     -4.265    532.040    605.357    534.994    532.040    532.040
 90.670    565.505    600.686    -35.181    531.783    598.035    534.475    531.783    531.783
 90.770    618.000    593.371     24.629    531.525    590.967    533.963    531.525    531.525
 90.870    555.000    586.597    -31.597    531.266    584.421    533.470    531.266    531.266
 90.970    594.562    580.552     14.010    531.006    578.581    532.999    531.006    531.006
 91.070    548.000    575.348    -27.348    530.745    573.553    532.557    530.745    530.745
 91.170    545.425    571.025    -25.600    530.483    569.379    532.143    530.483    530.483
 91.270    560.000    567.570     -7.570    530.220    566.043    531.757    530.220    530.220
 91.370    528.000    564.932    -36.932    529.957    563.496    531.398    529.957    529.957
 91.470    532.793    563.037    -30.244    529.692    561.670    531.064    529.692    529.692
 91.570    587.633    561.812     25.821    529.427    560.490    530.751    529.427    529.427
 91.670    550.000    561.190    -11.190    529.161    559.894    530.457    529.161    529.161
 91.770    576.000    561.128     14.872    528.894    559.839    530.181    528.894    528.894
 91.870    579.000    561.609     17.391    528.627    560.310    529.923    528.627    528.627
 91.970    545.000    562.653    -17.653    528.358    561.324    529.682    528.358    528.358
 92.070    548.532    564.314    -15.781    528.089    562.936    529.461    528.089    528.089
 92.170    580.000    566.682     13.318    527.819    565.231    529.262    527.819    527.819
 92.270    552.000    569.878    -17.878    527.549    568.328    529.087    527.549    527.549
 92.370    573.000    574.049     -1.049    527.277    572.370    528.943    527.277    527.277
 92.470    589.000    579.358      9.642    527.005    577.515    528.832    527.005    527.005
 92.570    544.000    585.972    -41.972    526.732    583.926    528.758    526.732    526.732
 92.670    587.000    594.046     -7.046    526.459    591.754    528.725    526.459    526.459
 92.770    581.577    603.707    -22.130    526.184    601.126    528.735    526.184    526.184
 92.870    606.109    615.037     -8.928    525.909    612.123    528.787    525.909    525.909
 92.970    597.000    628.058    -31.058    525.634    624.770    528.879    525.634    525.634
 93.070    685.000    642.715     42.285    525.358    639.017    529.006    525.358    525.358
 93.170    665.672    658.864      6.808    525.081    654.728    529.159    525.081    525.081
 93.270    685.000    676.264      8.736    524.803    671.672    529.331    524.803    524.803
 93.370    685.000    694.572     -9.572    524.525    689.517    529.509    524.525    524.525
 93.470    674.863    713.332    -38.469    524.247    707.819    529.682    524.247    524.247
 93.570    679.000    732.084    -53.084    523.968    726.126    529.842    523.968    523.968
 93.670    739.000    750.326    -11.326    523.688    743.942    529.984    523.688    523.688
 93.770    774.000    767.675      6.325    523.407    760.877    530.115    523.407    523.407
 93.870    777.000    783.964     -6.964    523.127    776.745    530.253    523.127    523.127
 93.970    786.018    799.282    -13.265    522.845    791.602    530.432    522.845    522.845
 94.070    836.000    813.924     22.076    522.563    805.694    530.700    522.563    522.563
 94.170    791.000    828.262    -37.262    522.281    819.341    531.109    522.281    522.281
 94.270    897.629    842.616     55.013    521.998    832.808    531.714    521.998    521.998
 94.370    813.000    857.162    -44.162    521.715    846.226    532.561    521.715    521.715
 94.470    920.867    871.924     48.942    521.431    859.585    533.681    521.431    521.431
 94.570    877.616    886.828     -9.212    521.147    872.797    535.090    521.147    521.147
 94.670    917.000    901.769     15.231    520.862    885.769    536.777    520.862    520.862
 94.770    872.782    916.641    -43.859    520.577    898.431    538.705    520.577    520.577
 94.870    936.930    931.276      5.655    520.292    910.680    540.809    520.292    520.292
 94.970    915.000    945.331    -30.331    520.006    922.269    542.994    520.006    520.006
 95.070    905.503    958.196    -52.693    519.720    932.707    545.139    519.720    519.720
 95.170    983.000    968.954     14.046    519.434    941.220    547.104    519.434    519.434
 95.270    983.000    976.442      6.558    519.147    946.800    548.733    519.147    519.147
 95.370    913.882    979.412    -65.530    518.860    948.349    549.876    518.860    518.860
 95.470   1016.000    976.776     39.224    518.573    944.904    550.405    518.573    518.573
 95.570    944.000    967.887    -23.887    518.285    935.900    550.244    518.285    518.285
 95.670    996.000    952.767     43.233    517.998    921.365    549.380    517.998    517.998
 95.770    975.000    932.150     42.850    517.710    901.979    547.870    517.710    517.710
 95.870    928.031    907.361     20.669    517.421    878.953    545.824    517.421    517.421
 95.970    929.000    880.100     48.900    517.133    853.841    543.391    517.133    517.133
 96.070    875.035    852.189     22.846    516.844    828.311    540.724    516.844    516.844
 96.170    811.872    825.438    -13.567    516.556    804.028    537.968    516.556    516.556
 96.270    820.000    801.550     18.450    516.267    782.563    535.255    516.267    516.267
 96.370    822.000    782.073     39.927    515.978    765.356    532.692    515.978    515.978
 96.470    748.215    768.374    -20.160    515.689    753.694    530.362    515.689    515.689
 96.570    764.000    761.633      2.367    515.399    748.697    528.322    515.399    515.399
 96.670    789.831    762.825     27.005    515.110    751.309    526.606    515.110    515.110
 96.770    736.998    772.723    -35.724    514.821    762.288    525.225    514.821    514.821
 96.870    862.000    791.873     70.127    514.531    782.188    524.176    514.531    514.531
 96.970    817.000    820.562     -3.562    514.242    811.312    523.441    514.242    514.242
 97.070    909.000    858.847     50.153    513.953    849.741    522.996    513.953    513.953
 97.170    886.519    906.511    -19.992    513.663    897.289    522.811    513.663    513.663
 97.270    937.954    962.881    -24.927    513.374    953.317    522.852    513.374    513.374
 97.370   1064.944   1026.895     38.049    513.085   1016.800    523.083    513.085    513.085
 97.470   1039.000   1097.022    -58.022    512.796   1086.250    523.462    512.796    512.796
 97.570   1210.000   1171.220     38.780    512.507   1159.668    523.946    512.507    512.507
 97.670   1209.000   1246.906    -37.906    512.218   1234.523    524.484    512.218    512.218
 97.770   1389.337   1320.971     68.366    511.929   1307.760    525.021    511.929    511.929
 97.870   1417.000   1389.861     27.139    511.640   1375.887    525.499    511.640    511.640
 97.970   1419.000   1449.713    -30.713    511.352   1435.103    525.855    511.352    511.352
 98.070   1503.000   1496.703      6.297    511.063   1481.642    526.029    511.063    511.063
 98.170   1481.000   1527.537    -46.537    510.775   1512.263    525.970    510.775    510.775
 98.270   1579.000   1540.025     38.975    510.488   1524.806    525.646    510.488    510.488
 98.370   1500.470   1533.523    -33.053    510.200   1518.635    525.047    510.200    510.200
 98.470   1522.699   1509.058     13.641    509.913   1494.757    524.193    509.913    509.913
 98.570   1514.000   1469.070     44.930    509.626   1455.572    523.120    509.626    509.626
 98.670   1392.000   1416.926    -24.926    509.339   1404.396    521.880    509.339    509.339
 98.770   1327.493   1356.411    -28.918    509.053   1344.957    520.529    509.053    509.053
 98.870   1358.447   1291.335     67.112    508.767   1281.009    519.122    508.767    508.767
 98.970   1260.867   1225.273     35.595    508.482   1216.080    517.707    508.482    508.482
 99.070   1102.061   1161.429    -59.368    508.197   1153.332    516.326    508.197    508.197
 99.170   1105.579   1102.570      3.009    507.912   1095.501    515.012    507.912    507.912
 99.270   1112.093   1051.016     61.077    507.628   1044.880    513.790    507.628    507.628
 99.370   1064.751   1008.656     56.095    507.344   1003.343    512.678    507.344    507.344
 99.470    947.000    976.986    -29.986    507.061    972.376    511.685    507.061    507.061
 99.570    999.000    957.140     41.860    506.778    953.109    510.814    506.778    506.778
 99.670    943.000    949.916     -6.916    506.496    946.344    510.065    506.496    506.496
 99.770   1003.057    955.801     47.256    506.214    952.575    509.430    506.214    506.214
 99.870   1020.000    974.982     45.018    505.933    971.998    508.900    505.933    505.933
 99.970    999.000   1007.355     -8.355    505.653   1004.522    508.464    505.653    505.653
100.070   1109.722   1052.525     57.197    505.373   1049.763    508.109    505.373    505.373
100.170   1099.000   1109.791    -10.791    505.094   1107.035    507.822    505.094    505.094
100.270   1147.000   1178.126    -31.126    504.816   1175.325    507.589    504.816    504.816
100.370   1277.000   1256.139     20.861    504.538   1253.254    507.398    504.538    504.538
100.470   1411.000   1342.042     68.958    504.261   1339.049    507.235    504.261    504.261
100.570   1482.000   1433.616     48.384    503.985   1430.503    507.089    503.985    503.985
100.670   1595.764   1528.206     67.558    503.709   1524.972    506.947    503.709    503.709
100.770   1668.000   1622.805     45.195    503.435   1619.461    506.798    503.435    503.435
100.870   1649.557   1714.206    -64.649    503.161   1710.771    506.633    503.161    503.161
100.970   1801.000   1799.208      1.792    502.888   1795.709    506.446    502.888    502.888
101.070   1922.000   1874.965     47.035    502.616   1871.431    506.231    502.616    502.616
101.170   1984.634   1939.211     45.424    502.345   1935.669    505.988    502.345    502.345
101.270   1981.000   1990.320     -9.320    502.075   1986.794    505.723    502.075    502.075
101.370   1949.677   2027.185    -77.507    501.806   2023.690    505.442    501.806    501.806
101.470   2074.632   2049.001     25.631    501.537   2045.543    505.154    501.537    501.537
101.570   2051.000   2055.126     -4.126    501.270   2051.701    504.868    501.270    501.270
101.670   1965.187   2045.143    -79.956    501.004   2041.736    504.594    501.004    501.004
101.770   2103.000   2019.115     83.885    500.739   2015.707    504.340    500.739    500.739
101.870   1930.000   1977.928    -47.928    500.474   1974.490    504.109    500.474    500.474
101.970   1940.000   1923.495     16.505    500.211   1919.998    503.907    500.211    500.211
102.070   1836.000   1858.709    -22.709    499.950   1855.121    503.733    499.950    499.950
102.170   1699.000   1787.110    -88.110    499.689   1783.403    503.586    499.689    499.689
102.270   1643.000   1712.416    -69.416    499.429   1708.566    503.460    499.429    499.429
102.370   1675.083   1638.082     37.001    499.171   1634.074    503.350    499.171    499.171
102.470   1570.425   1566.994      3.430    498.914   1562.821    503.245    498.914    498.914
102.570   1517.000   1501.303     15.697    498.658   1496.970    503.137    498.658    498.658
102.670   1355.000   1442.377    -87.377    498.404   1437.899    503.016    498.404    498.404
102.770   1409.000   1390.821     18.179    498.151   1386.221    502.873    498.151    498.151
102.870   1255.000   1346.522    -91.522    497.899   1341.832    502.702    497.899    497.899
102.970   1375.933   1308.729     67.204    497.648   1303.984    502.498    497.648    497.648
103.070   1207.578   1276.153    -68.575    497.399   1271.393    502.258    497.399    497.399
103.170   1110.000   1247.108   -137.108    497.152   1242.376    501.979    497.152    497.152
103.270   1276.548   1219.713     56.835    496.906   1215.053    501.658    496.906    496.906
103.370   1157.101   1192.135    -35.034    496.661   1187.593    501.293    496.661    496.661
103.470   1111.000   1162.850    -51.850    496.418   1158.471    500.886    496.418    496.418
103.570   1110.208   1130.871    -20.663    496.176   1126.697    500.440    496.176    496.176
103.670   1114.037   1095.806     18.231    495.936   1091.871    499.960    495.936    495.936
103.770   1051.572   1057.830     -6.258    495.698   1054.161    499.453    495.698    495.698
103.870   1006.000   1017.539    -11.539    495.461   1014.153    498.930    495.461    495.461
103.970    912.000    975.770    -63.770    495.226    972.676    498.399    495.226    495.226
104.070    949.000    933.453     15.547    494.993    930.650    497.870    494.993    494.993
104.170    913.000    891.500     21.500    494.761    888.981    497.349    494.761    494.761
104.270    816.237    850.746    -34.508    494.531    848.497    496.843    494.531    494.531
104.370    799.000    811.909    -12.909    494.303    809.913    496.356    494.303    494.303
104.470    756.000    775.575    -19.575    494.077    773.810    495.892    494.077    494.077
104.570    693.000    742.183    -49.183    493.852    740.627    495.453    493.852    493.852
104.670    678.246    712.023    -33.778    493.629    710.651    495.040    493.629    493.629
104.770    713.000    685.236     27.764    493.409    684.026    494.652    493.409    493.409
104.870    693.000    661.821     31.179    493.190    660.752    494.287    493.190    493.190
104.970    679.000    641.730     37.270    492.973    640.778    493.949    492.973    492.973
105.070    635.817    624.757     11.060    492.758    623.901    493.633    492.758    492.758
105.170    557.845    610.656    -52.811    492.546    609.878    493.338    492.546    492.546
105.270    571.220    599.146    -27.926    492.335    598.430    493.062    492.335    492.335
105.370    639.125    589.936     49.190    492.126    589.267    492.803    492.126    492.126
105.470    579.000    582.740     -3.740    491.920    582.107    492.559    491.920    491.920
105.570    616.000    577.298     38.702    491.716    576.689    492.328    491.716    491.716
105.670    627.000    573.380     53.620    491.513    572.785    492.109    491.513    491.513
105.770    609.000    570.798     38.202    491.314    570.208    491.903    491.314    491.314
105.870    612.000    569.406     42.594    491.116    568.812    491.707    491.116    491.116
105.970    558.000    569.098    -11.098    490.921    568.492    491.522    490.921    490.921
106.070    621.628    569.806     51.822    490.727    569.179    491.348    490.727    490.727
106.170    542.936    571.496    -28.561    490.537    570.839    491.184    490.537    490.537
106.270    593.000    574.159     18.841    490.348    573.463    491.033    490.348    490.348
106.370    550.193    577.805    -27.612    490.163    577.060    490.893    490.163    490.163
106.470    599.000    582.457     16.543    489.979    581.653    490.766    489.979    489.979
106.570    581.933    588.142     -6.209    489.798    587.268    490.653    489.798    489.798
106.670    625.000    594.881     30.119    489.620    593.926    490.552    489.620    489.620
106.770    635.723    602.682     33.042    489.444    601.633    490.466    489.444    489.444
106.870    566.000    611.525    -45.525    489.271    610.374    490.392    489.271    489.271
106.970    630.000    621.361      8.639    489.100    620.095    490.332    489.100    489.100
107.070    621.000    632.094    -11.094    488.932    630.706    490.283    488.932    488.932
107.170    668.000    643.584     24.416    488.767    642.067    490.243    488.767    488.767
107.270    662.000    655.642      6.358    488.604    653.991    490.211    488.604    488.604
107.370    680.000    668.026     11.974    488.444    666.240    490.183    488.444    488.444
107.470    645.265    680.450    -35.184    488.287    678.531    490.156    488.287    488.287
107.570    701.120    692.582      8.538    488.133    690.538    490.126    488.133    488.133
107.670    753.000    704.062     48.938    487.982    701.904    490.087    487.982    487.982
107.770    668.337    714.519    -46.182    487.833    712.262    490.036    487.833    487.833
107.870    688.749    723.597    -34.847    487.688    721.263    489.968    487.688    487.688
107.970    709.000    730.999    -21.999    487.545    728.614    489.878    487.545    487.545
108.070    771.000    736.532     34.468    487.406    734.124    489.765    487.406    487.406
108.170    746.048    740.145      5.903    487.269    737.743    489.625    487.269    487.269
108.270    777.013    741.942     35.072    487.136    739.574    489.461    487.136    487.136
108.370    712.383    742.176    -29.793    487.006    739.869    489.274    487.006    487.006
108.470    706.646    741.210    -34.563    486.879    738.986    489.069    486.879    486.879
108.570    713.000    739.462    -26.462    486.755    737.338    488.848    486.755    486.755
108.670    705.000    737.356    -32.356    486.634    735.346    488.619    486.634    486.634
108.770    733.000    735.280     -2.280    486.517    733.392    488.384    486.517    486.517
108.870    756.000    733.552     22.448    486.403    731.790    488.149    486.403    486.403
108.970    739.660    732.406      7.255    486.292    730.768    487.917    486.292    486.292
109.070    680.118    731.974    -51.856    486.185    730.458    487.692    486.185    486.185
109.170    784.527    732.288     52.239    486.081    730.888    487.476    486.081    486.081
109.270    711.000    733.275    -22.275    485.980    731.983    487.271    485.980    485.980
109.370    754.000    734.760     19.240    485.883    733.567    487.078    485.883    485.883
109.470    767.559    736.476     31.082    485.790    735.374    486.897    485.790    485.790
109.570    727.411    738.081    -10.671    485.700    737.059    486.730    485.700    485.700
109.670    751.412    739.179     12.233    485.614    738.229    486.574    485.614    485.614
109.770    795.565    739.361     56.204    485.531    738.475    486.430    485.531    485.531
109.870    749.000    738.251     10.749    485.453    737.423    486.296    485.453    485.453
109.970    686.000    735.549    -49.549    485.377    734.777    486.167    485.377    485.377
110.070    724.000    731.095     -7.095    485.306    730.373    486.048    485.306    485.306
110.170    695.000    724.870    -29.870    485.239    724.191    485.939    485.239    485.239
110.270    718.000    716.986      1.014    485.175    716.346    485.836    485.175    485.175
110.370    666.000    707.673    -41.673    485.115    707.069    485.740    485.115    485.115
110.470    691.000    697.233     -6.233    485.059    696.663    485.650    485.059    485.059
110.570    669.000    686.001    -17.001    485.007    685.463    485.567    485.007    485.007
110.670    706.000    674.318     31.682    484.960    673.808    485.489    484.960    484.960
110.770    661.000    662.496     -1.496    484.916    662.013    485.417    484.916    484.916
110.870    695.089    650.836     44.253    484.876    650.377    485.352    484.876    484.876
110.970    595.788    639.590    -43.802    484.841    639.153    485.292    484.841    484.841
111.070    612.903    628.965    -16.062    484.809    628.547    485.240    484.809    484.809
111.170    633.000    619.127     13.873    484.782    618.727    485.194    484.782    484.782
111.270    656.000    610.201     45.799    484.759    609.815    485.154    484.759    484.759
111.370    650.723    602.269     48.453    484.741    601.896    485.121    484.741    484.741
111.470    584.401    595.377    -10.976    484.727    595.014    485.095    484.727    484.727
111.570    616.336    589.533     26.803    484.717    589.178    485.075    484.717    484.717
111.670    565.000    584.717    -19.717    484.712    584.368    485.062    484.712    484.712
111.770    581.000    580.886      0.114    484.711    580.541    485.055    484.711    484.711
111.870    596.000    577.975     18.025    484.715    577.633    485.055    484.715    484.715
111.970    559.352    575.911    -16.559    484.723    575.569    485.060    484.723    484.723
112.070    617.000    574.609     42.391    484.736    574.268    485.072    484.736    484.736
112.170    597.000    573.985     23.015    484.753    573.642    485.090    484.753    484.753
112.270    554.590    573.955    -19.365    484.775    573.610    485.113    484.775    484.775
112.370    562.000    574.439    -12.439    484.802    574.091    485.141    484.802    484.802
112.470    607.000    575.364     31.636    484.834    575.014    485.175    484.834    484.834
112.570    554.000    576.669    -22.669    484.871    576.315    485.214    484.871    484.871
112.670    578.000    578.299     -0.299    484.912    577.942    485.259    484.912    484.912
112.770    567.000    580.217    -13.217    484.959    579.856    485.308    484.959    484.959
112.870    575.000    582.396     -7.396    485.010    582.032    485.362    485.010    485.010
112.970    612.422    584.823     27.598    485.067    584.456    485.422    485.067    485.067
113.070    606.000    587.501     18.499    485.128    587.130    485.487    485.128    485.128
113.170    565.000    590.447    -25.447    485.195    590.071    485.557    485.195    485.195
113.270    614.000    593.691     20.309    485.266    593.311    485.633    485.266    485.266
113.370    571.000    597.283    -26.283    485.343    596.897    485.716    485.343    485.343
113.470    574.000    601.287    -27.287    485.425    600.894    485.804    485.425    485.425
113.570    586.000    605.789    -19.789    485.513    605.387    485.900    485.513    485.513
113.670    644.000    610.902     33.098    485.606    610.489    486.003    485.606    485.606
113.770    653.072    616.769     36.303    485.704    616.342    486.114    485.704    485.704
113.870    621.703    623.575     -1.872    485.807    623.131    486.234    485.807    485.807
113.970    613.000    631.557    -18.557    485.916    631.092    486.362    485.916    485.916
114.070    607.996    641.013    -33.018    486.031    640.522    486.501    486.031    486.031
114.170    692.330    652.322     40.007    486.151    651.799    486.650    486.151    486.151
114.270    638.000    665.956    -27.956    486.277    665.393    486.811    486.277    486.277
114.370    728.216    682.499     45.717    486.409    681.890    486.984    486.409    486.409
114.470    680.000    702.666    -22.666    486.546    702.002    487.171    486.546    486.546
114.570    733.000    727.324      5.676    486.689    726.595    487.371    486.689    486.689
114.670    740.000    757.504    -17.504    486.838    756.699    487.586    486.838    486.838
114.770    776.000    794.418    -18.418    486.992    793.525    487.817    486.992    486.992
114.870    778.000    839.469    -61.469    487.153    838.475    488.064    487.153    487.153
114.970    898.000    894.248      3.752    487.319    893.140    488.328    487.319    487.319
115.070    972.494    960.530     11.965    487.492    959.293    488.610    487.492    487.492
115.170   1041.000   1040.251      0.749    487.671   1038.871    488.909    487.671    487.671
115.270   1150.000   1135.474     14.526    487.855   1133.934    489.226    487.855    487.855
115.370   1149.000   1248.332    -99.332    488.046   1246.618    489.560    488.046    488.046
115.470   1401.519   1380.967     20.553    488.243   1379.063    489.911    488.243    488.243
115.570   1520.000   1535.433    -15.433    488.447   1533.325    490.280    488.447    488.447
115.670   1856.000   1713.600    142.400    488.656   1711.276    490.663    488.656    488.656
115.770   2046.000   1917.032    128.968    488.872   1914.480    491.061    488.872    488.872
115.870   2172.000   2146.859     25.141    489.095   2144.071    491.472    489.095    489.095
115.970   2462.000   2403.648     58.352    489.324   2400.617    491.894    489.324    489.324
116.070   2645.201   2687.269    -42.068    489.559   2683.993    492.325    489.559    489.559
116.170   2985.592   2996.777    -11.184    489.801   2993.255    492.763    489.801    489.801
116.270   3385.000   3330.288     54.712    490.050   3326.527    493.204    490.050    490.050
116.370   3741.000   3684.940     56.060    490.305   3680.948    493.648    490.305    490.305
116.470   4042.000   4056.885    -14.885    490.567   4052.673    494.091    490.567    490.567
116.570   4441.000   4441.109     -0.109    490.836   4436.694    494.534    490.836    490.836
116.670   4780.000   4831.581    -51.581    491.112   4826.981    494.974    491.112    491.112
116.770   5165.000   5221.275    -56.275    491.394   5216.511    495.412    491.394    491.394
116.870   5584.903   5602.263    -17.360    491.684   5597.357    495.846    491.684    491.684
116.970   5883.000   5965.857    -82.857    491.980   5960.832    496.279    491.980    491.980
117.070   6244.000   6302.819    -58.819    492.284   6297.699    496.710    492.284    492.284
117.170   6490.920   6603.666   -112.746    492.595   6598.475    497.140    492.595    492.595
117.270   7052.000   6859.085    192.915    492.912   6853.847    497.568    492.912    492.912
117.370   7077.000   7060.475     16.525    493.237   7055.213    497.994    493.237    493.237
117.470   7291.000   7200.583     90.417    493.570   7195.320    498.417    493.570    493.570
117.570   7216.801   7274.153    -57.352    493.909   7268.909    498.837    493.909    493.909
117.670   7270.000   7278.471     -8.471    494.256   7273.263    499.251    494.256    494.256
117.770   7216.235   7213.661      2.574    494.611   7208.503    499.659    494.611    494.611
117.870   7000.000   7082.670    -82.670    494.972   7077.574    500.059    494.972    494.972
117.970   6871.000   6890.932    -19.932    495.342   6885.907    500.449    495.342    495.342
118.070   6601.660   6645.802    -44.142    495.719   6640.856    500.828    495.719    495.719
118.170   6418.040   6355.905     62.136    496.103   6351.046    501.194    496.103    496.103
118.270   5948.568   6030.500    -81.933    496.496   6025.737    501.546    496.496    496.496
118.370   5438.000   5678.956   -240.956    496.896   5674.298    501.881    496.896    496.896
118.470   5331.159   5310.340     20.819    497.304   5305.799    502.201    497.304    497.304
118.570   4869.000   4933.131    -64.131    497.720   4928.717    502.505    497.720    497.720
118.670   4513.000   4555.013    -42.013    498.143   4550.738    502.794    498.143    498.143
118.770   4231.000   4182.743     48.257    498.575   4178.617    503.071    498.575    498.575
118.870   3915.000   3822.064     92.936    499.015   3818.096    503.338    499.015    499.015
118.970   3466.000   3477.662    -11.662    499.463   3473.859    503.600    499.463    499.463
119.070   3175.000   3153.168     21.832    499.919   3149.535    503.860    499.919    499.919
119.170   2831.000   2851.195    -20.195    500.383   2847.733    504.122    500.383    500.383
119.270   2631.000   2573.403     57.597    500.856   2570.113    504.392    500.856    500.856
119.370   2433.000   2320.602    112.398    501.336   2317.480    504.672    501.336    501.336
119.470   2176.057   2092.862     83.195    501.826   2089.902    504.967    501.826    501.826
119.570   1924.000   1889.638     34.362    502.323   1886.831    505.280    502.323    502.323
119.670   1699.000   1709.893    -10.893    502.830   1707.229    505.615    502.830    502.830
119.770   1577.269   1552.220     25.048    503.344   1549.687    505.973    503.344    503.344
119.870   1428.000   1414.954     13.046    503.868   1412.537    506.358    503.868    503.868
119.970   1320.603   1296.267     24.335    504.400   1293.950    506.771    504.400    504.400
120.070   1250.328   1194.265     56.063    504.941   1192.029    507.213    504.941    504.941
120.170   1088.662   1107.055    -18.393    505.491   1104.881    507.687    505.491    505.491
120.270   1042.000   1032.811      9.189    506.049   1030.680    508.193    506.049    506.049
120.370    998.000    969.818     28.182    506.617    967.707    508.732    506.617    506.617
120.470    949.000    916.501     32.499    507.193    914.389    509.304    507.193    507.193
120.570    916.000    871.450     44.550    507.779    869.312    509.910    507.779    507.779
120.670    799.000    833.417    -34.417    508.373    831.231    510.551    508.373    508.373
120.770    814.000    801.323     12.677    508.977    799.065    511.226    508.977    508.977
120.870    785.000    774.248     10.752    509.590    771.892    511.937    509.590    509.590
120.970    765.708    751.412     14.296    510.212    748.933    512.683    510.212    510.212
121.070    745.837    732.168     13.669    510.844    729.540    513.464    510.844    510.844
121.170    694.000    715.980    -21.980    511.485    713.176    514.283    511.485    511.485
121.270    715.564    702.407     13.158    512.136    699.399    515.138    512.136    512.136
121.370    712.000    691.089     20.911    512.796    687.850    516.031    512.796    512.796
121.470    736.770    681.735     55.035    513.466    678.235    516.963    513.466    513.466
121.570    724.601    674.105     50.496    514.145    670.314    517.935    514.145    514.145
121.670    672.000    668.003      3.997    514.835    663.890    518.948    514.835    514.835
121.770    630.974    663.268    -32.295    515.534    658.802    520.002    515.534    515.534
121.870    639.621    659.767    -20.146    516.242    654.913    521.100    516.242    516.242
121.970    609.000    657.385    -48.385    516.961    652.109    522.242    516.961    516.961
122.070    638.000    656.022    -18.022    517.690    650.289    523.429    517.690    517.690
122.170    620.000    655.590    -35.590    518.429    649.364    524.663    518.429    518.429
122.270    618.231    656.008    -37.777    519.178    649.253    525.943    519.178    519.178
122.370    587.000    657.199    -70.199    519.937    649.876    527.271    519.937    519.937
122.470    632.000    659.085    -27.085    520.707    651.160    528.645    520.707    520.707
122.570    680.801    661.590     19.211    521.486    653.028    530.063    521.486    521.486
122.670    700.608    664.634     35.975    522.276    655.404    531.524    522.276    522.276
122.770    723.194    668.132     55.062    523.077    658.207    533.022    523.077    523.077
122.870    642.000    671.995    -29.995    523.888    661.353    534.552    523.888    523.888
122.970    675.802    676.129     -0.327    524.710    664.755    536.108    524.710    524.710
123.070    709.000    680.432     28.568    525.542    668.319    537.681    525.542    525.542
123.170    663.000    684.796    -21.796    526.385    671.948    539.263    526.385    526.385
123.270    684.942    689.110     -4.167    527.239    675.540    540.841    527.239    527.239
123.370    695.000    693.255      1.745    528.104    678.990    542.404    528.104    528.104
123.470    699.000    697.115      1.885    528.979    682.191    543.941    528.979    528.979
123.570    721.000    700.569     20.431    529.866    685.038    545.436    529.866    529.866
123.670    715.794    703.483     12.311    530.764    687.411    546.878    530.764    530.764
123.770    698.069    705.789     -7.720    531.672    689.250    548.255    531.672    531.672
123.870    678.000    707.413    -29.413    532.592    690.495    549.556    532.592    532.592
123.970    708.703    708.276      0.427    533.524    691.074    550.773    533.524    533.524
124.070    732.000    708.339     23.661    534.466    690.955    551.898    534.466    534.466
124.170    727.000    707.590     19.410    535.420    690.130    552.930    535.420    535.420
124.270    735.000    706.044     28.956    536.386    688.614    553.866    536.386    536.386
124.370    669.473    703.740    -34.267    537.362    686.443    554.709    537.362    537.362
124.470    665.196    700.735    -35.539    538.351    683.672    555.463    538.351    538.351
124.570    696.000    697.097     -1.097    539.351    680.364    556.133    539.351    539.351
124.670    705.695    692.908     12.787    540.363    676.592    556.726    540.363    540.363
124.770    645.323    688.252    -42.929    541.387    672.434    557.250    541.387    541.387
124.870    743.000    683.217     59.783    542.423    667.970    557.713    542.423    542.423
124.970    706.355    677.893     28.462    543.470    663.278    558.127    543.470    543.470
