neutron_powder_diffraction_0126
R_wp: 3.970
Temperature (K): 1017.025
Counts: 83496.00
Wavelength (Ã…): 2.52098
COMMENTS
Test file for demonstrating the .xyy file format in Reel1.0
END OF HEADER
   tth       Y_obs     Y_calc      Y_res    Background    Phase_1_Nuc    Phase_1_Mag    Phase_2_Nuc    Phase_2_Mag
  9.970    601.000    568.681     32.319    567.726    568.601    567.726    567.805    567.726
 10.070    541.251    568.879    -27.628    567.847    568.798    567.847    567.927    567.847
 10.170    603.000    569.081     33.919    567.962    569.000    567.962    568.043    567.962
 10.270    589.655    569.290     20.365    568.071    569.209    568.071    568.152    568.071
 10.370    568.000    569.509     -1.509    568.174    569.427    568.174    568.255    568.174
 10.470    604.000    569.742     34.258    568.270    569.659    568.270    568.352    568.270
 10.570    542.000    569.993    -27.993    568.361    569.910    568.361    568.443    568.361
 10.670    600.000    570.268     29.732    568.445    570.185    568.445    568.528    568.445
 10.770    616.000    570.577     45.423    568.524    570.493    568.524    568.606    568.524
 10.870    582.274    570.931     11.344    568.596    570.846    568.596    568.679    568.596
 10.970    567.000    571.344     -4.344    568.663    571.260    568.663    568.746    568.663
 11.070    613.000    571.841     41.159    568.724    571.756    568.724    568.807    568.724
 11.170    579.622    572.454      7.169    568.779    572.368    568.779    568.863    568.779
 11.270    616.000    573.233     42.767    568.828    573.147    568.828    568.913    568.828
 11.370    580.000    574.273      5.727    568.872    574.185    568.872    568.957    568.872
 11.470    540.445    575.776    -35.331    568.910    575.687    568.910    568.995    568.910
 11.570    586.000    578.256      7.744    568.943    578.165    568.943    569.028    568.943
 11.670    624.727    582.930     41.797    568.970    582.836    568.970    569.056    568.970
 11.770    573.000    592.158    -19.158    568.992    592.058    568.992    569.078    568.992
 11.870    566.626    609.169    -42.543    569.008    609.060    569.008    569.095    569.008
 11.970    657.000    635.997     21.003    569.019    635.871    569.019    569.106    569.019
 12.070    655.583    669.296    -13.713    569.025    669.151    569.025    569.112    569.025
 12.170    656.213    696.259    -40.046    569.025    696.098    569.025    569.113    569.025
 12.270    720.000    699.788     20.212    569.021    699.624    569.021    569.109    569.021
 12.370    664.000    676.887    -12.887    569.011    676.737    569.011    569.099    569.011
 12.470    645.000    643.314      1.686    568.996    643.183    568.996    569.085    568.996
 12.570    606.204    614.294     -8.090    568.976    614.179    568.976    569.066    568.976
 12.670    626.000    595.083     30.917    568.951    594.979    568.951    569.041    568.951
 12.770    615.000    584.400     30.600    568.922    584.301    568.922    569.012    568.922
 12.870    576.754    578.978     -2.224    568.887    578.882    568.887    568.978    568.887
 12.970    539.000    576.164    -37.164    568.848    576.069    568.848    568.939    568.848
 13.070    599.000    574.509     24.491    568.804    574.415    568.804    568.895    568.804
 13.170    594.395    573.390     21.005    568.755    573.296    568.755    568.847    568.755
 13.270    555.000    572.562    -17.562    568.701    572.468    568.701    568.794    568.701
 13.370    568.000    571.917     -3.917    568.643    571.822    568.643    568.736    568.643
 13.470    556.000    571.398    -15.398    568.581    571.303    568.581    568.674    568.581
 13.570    565.000    570.969     -5.969    568.514    570.874    568.514    568.607    568.514
 13.670    587.311    570.607     16.704    568.442    570.512    568.442    568.536    568.442
 13.770    555.686    570.294    -14.607    568.366    570.198    568.366    568.460    568.366
 13.870    585.000    570.017     14.983    568.286    569.921    568.286    568.381    568.286
 13.970    616.000    569.769     46.231    568.201    569.673    568.201    568.296    568.201
 14.070    528.000    569.542    -41.542    568.112    569.446    568.112    568.208    568.112
 14.170    527.000    569.332    -42.332    568.019    569.235    568.019    568.115    568.019
 14.270    555.000    569.135    -14.135    567.921    569.037    567.921    568.018    567.921
 14.370    560.000    568.947     -8.947    567.820    568.849    567.820    567.917    567.820
 14.470    568.000    568.767     -0.767    567.714    568.668    567.714    567.812    567.714
 14.570    575.000    568.592      6.408    567.605    568.493    567.605    567.703    567.605
 14.670    586.000    568.421     17.579    567.491    568.322    567.491    567.590    567.491
 14.770    552.371    568.253    -15.882    567.374    568.154    567.374    567.473    567.374
 14.870    563.000    568.088     -5.088    567.253    567.987    567.253    567.352    567.253
 14.970    602.854    567.923     34.931    567.127    567.823    567.127    567.228    567.127
 15.070    538.745    567.761    -29.016    566.998    567.660    566.998    567.099    566.998
 15.170    584.915    567.598     17.317    566.866    567.497    566.866    566.967    566.866
 15.270    592.110    567.434     24.676    566.729    567.332    566.729    566.831    566.729
 15.370    529.000    567.270    -38.270    566.589    567.167    566.589    566.692    566.589
 15.470    575.000    567.104      7.896    566.445    567.000    566.445    566.548    566.445
 15.570    584.800    566.936     17.864    566.298    566.832    566.298    566.402    566.298
 15.670    611.599    566.767     44.831    566.147    566.663    566.147    566.251    566.147
 15.770    567.000    566.597      0.403    565.993    566.492    565.993    566.098    565.993
 15.870    621.000    566.424     54.576    565.835    566.319    565.835    565.941    565.835
 15.970    593.000    566.250     26.750    565.674    566.144    565.674    565.780    565.674
 16.070    583.000    566.074     16.926    565.509    565.967    565.509    565.616    565.509
 16.170    566.000    565.895      0.105    565.342    565.788    565.342    565.449    565.342
 16.270    525.000    565.714    -40.714    565.171    565.606    565.171    565.278    565.171
 16.370    550.000    565.532    -15.532    564.996    565.423    564.996    565.105    564.996
 16.470    526.000    565.346    -39.346    564.819    565.237    564.819    564.928    564.819
 16.570    608.000    565.159     42.841    564.638    565.049    564.638    564.748    564.638
 16.670    587.666    564.969     22.697    564.454    564.859    564.454    564.565    564.454
 16.770    535.000    564.777    -29.777    564.268    564.666    564.268    564.379    564.268
 16.870    578.061    564.583     13.478    564.078    564.471    564.078    564.190    564.078
 16.970    558.000    564.386     -6.386    563.885    564.274    563.885    563.998    563.885
 17.070    548.000    564.189    -16.189    563.689    564.076    563.689    563.803    563.689
 17.170    550.000    563.988    -13.988    563.491    563.874    563.491    563.605    563.491
 17.270    569.050    563.784      5.266    563.290    563.669    563.290    563.404    563.290
 17.370    529.723    563.578    -33.855    563.085    563.463    563.085    563.201    563.085
 17.470    553.000    563.370    -10.370    562.878    563.253    562.878    562.994    562.878
 17.570    578.000    563.160     14.840    562.669    563.043    562.669    562.785    562.669
 17.670    573.938    562.954     10.984    562.456    562.837    562.456    562.574    562.456
 17.770    556.000    562.758     -6.758    562.241    562.640    562.241    562.360    562.241
 17.870    546.000    562.543    -16.543    562.023    562.423    562.023    562.143    562.023
 17.970    548.076    562.323    -14.247    561.803    562.203    561.803    561.923    561.803
 18.070    520.000    562.102    -42.102    561.580    561.981    561.580    561.701    561.580
 18.170    557.000    561.879     -4.879    561.355    561.757    561.355    561.477    561.355
 18.270    582.536    561.653     20.884    561.127    561.530    561.127    561.250    561.127
 18.370    540.000    561.425    -21.425    560.897    561.302    560.897    561.021    560.897
 18.470    568.033    561.195      6.837    560.665    561.071    560.665    560.789    560.665
 18.570    573.000    560.964     12.036    560.430    560.839    560.430    560.555    560.430
 18.670    552.000    560.730     -8.730    560.193    560.604    560.193    560.319    560.193
 18.770    600.743    560.495     40.248    559.953    560.368    559.953    560.081    559.953
 18.870    526.285    560.258    -33.974    559.712    560.130    559.712    559.840    559.712
 18.970    602.280    560.038     42.242    559.468    559.908    559.468    559.597    559.468
 19.070    515.549    559.890    -44.341    559.222    559.760    559.222    559.352    559.222
 19.170    546.000    559.657    -13.657    558.974    559.526    558.974    559.105    558.974
 19.270    537.190    559.413    -22.223    558.724    559.281    558.724    558.856    558.724
 19.370    561.000    559.167      1.833    558.472    559.034    558.472    558.605    558.472
 19.470    544.067    558.920    -14.853    558.217    558.785    558.217    558.352    558.217
 19.570    557.000    558.671     -1.671    557.961    558.536    557.961    558.096    557.961
 19.670    542.000    558.421    -16.421    557.703    558.284    557.703    557.839    557.703
 19.770    531.606    558.170    -26.564    557.443    558.032    557.443    557.581    557.443
 19.870    499.000    557.920    -58.920    557.181    557.781    557.181    557.320    557.181
 19.970    589.808    557.666     32.143    556.917    557.526    556.917    557.057    556.917
 20.070    537.000    557.410    -20.410    556.652    557.269    556.652    556.793    556.652
 20.170    587.704    557.154     30.550    556.385    557.011    556.385    556.527    556.385
 20.270    511.146    556.901    -45.755    556.116    556.758    556.116    556.259    556.116
 20.370    545.000    556.643    -11.643    555.845    556.499    555.845    555.990    555.845
 20.470    574.902    556.386     18.516    555.573    556.240    555.573    555.719    555.573
 20.570    556.530    556.158      0.372    555.299    556.010    555.299    555.446    555.299
 20.670    599.000    555.932     43.068    555.023    555.783    555.023    555.172    555.023
 20.770    548.000    555.674     -7.674    554.746    555.523    554.746    554.896    554.746
 20.870    578.000    555.411     22.589    554.467    555.259    554.467    554.619    554.467
 20.970    534.898    555.148    -20.250    554.187    554.994    554.187    554.341    554.187
 21.070    507.000    554.885    -47.885    553.905    554.730    553.905    554.061    553.905
 21.170    565.000    554.621     10.379    553.622    554.464    553.622    553.779    553.622
 21.270    505.000    554.357    -49.357    553.338    554.199    553.338    553.496    553.338
 21.370    531.574    554.093    -22.520    553.052    553.933    553.052    553.212    553.052
 21.470    531.000    553.831    -22.831    552.765    553.669    552.765    552.927    552.765
 21.570    588.226    553.581     34.644    552.477    553.418    552.477    552.640    552.477
 21.670    570.000    553.358     16.642    552.187    553.192    552.187    552.352    552.187
 21.770    514.168    553.100    -38.932    551.896    552.933    551.896    552.063    551.896
 21.870    591.514    552.840     38.673    551.604    552.671    551.604    551.773    551.604
 21.970    531.000    552.582    -21.582    551.311    552.411    551.311    551.482    551.311
 22.070    525.322    552.325    -27.003    551.016    552.152    551.016    551.190    551.016
 22.170    553.000    552.071      0.929    550.721    551.896    550.721    550.896    550.721
 22.270    581.331    551.820     29.511    550.424    551.642    550.424    550.602    550.424
 22.370    516.550    551.572    -35.022    550.126    551.392    550.126    550.306    550.126
 22.470    533.000    551.328    -18.328    549.827    551.146    549.827    550.010    549.827
 22.570    579.000    551.095     27.905    549.528    550.910    549.528    549.713    549.528
 22.670    527.186    550.868    -23.682    549.227    550.681    549.227    549.415    549.227
 22.770    512.001    550.644    -38.644    548.925    550.454    548.925    549.116    548.925
 22.870    542.155    550.429     -8.274    548.623    550.236    548.623    548.816    548.623
 22.970    542.000    550.225     -8.225    548.320    550.030    548.320    548.515    548.320
 23.070    528.000    550.036    -22.036    548.015    549.838    548.015    548.214    548.015
 23.170    579.000    549.863     29.137    547.710    549.662    547.710    547.912    547.710
 23.270    518.745    549.719    -30.974    547.404    549.515    547.404    547.609    547.404
 23.370    552.000    549.601      2.399    547.098    549.394    547.098    547.306    547.098
 23.470    561.000    549.527     11.473    546.790    549.316    546.790    547.002    546.790
 23.570    579.000    549.517     29.483    546.482    549.303    546.482    546.698    546.482
 23.670    547.000    549.568     -2.568    546.173    549.350    546.173    546.393    546.173
 23.770    530.000    549.698    -19.698    545.864    549.477    545.864    546.087    545.864
 23.870    551.000    549.938      1.062    545.554    549.713    545.554    545.781    545.554
 23.970    540.000    550.373    -10.373    545.243    550.144    545.243    545.475    545.243
 24.070    533.808    551.171    -17.363    544.932    550.938    544.932    545.168    544.932
 24.170    561.000    552.750      8.250    544.620    552.514    544.620    544.861    544.620
 24.270    597.060    556.050     41.010    544.308    555.812    544.308    544.554    544.308
 24.370    578.334    562.641     15.693    543.995    562.402    543.995    544.246    543.995
 24.470    590.387    574.601     15.787    543.682    574.365    543.682    543.938    543.682
 24.570    584.000    592.847     -8.847    543.369    592.618    543.369    543.630    543.369
 24.670    601.000    614.476    -13.476    543.054    614.257    543.054    543.322    543.054
 24.770    607.000    630.564    -23.564    542.740    630.350    542.740    543.014    542.740
 24.870    641.000    630.702     10.298    542.425    630.482    542.425    542.706    542.425
 24.970    635.000    614.535     20.465    542.110    614.296    542.110    542.398    542.110
 25.070    625.974    592.369     33.605    541.794    592.108    541.794    542.090    541.794
 25.170    594.000    573.399     20.601    541.479    573.117    541.479    541.782    541.479
 25.270    558.397    560.691     -2.294    541.163    560.391    541.163    541.475    541.163
 25.370    526.000    553.434    -27.434    540.846    553.120    540.846    541.168    540.846
 25.470    527.937    549.595    -21.657    540.530    549.268    540.530    540.861    540.530
 25.570    565.000    547.488     17.512    540.213    547.150    540.213    540.554    540.213
 25.670    576.000    546.177     29.823    539.896    545.827    539.896    540.248    539.896
 25.770    562.419    545.253     17.165    539.579    544.891    539.579    539.943    539.579
 25.870    509.000    544.536    -35.536    539.262    544.161    539.262    539.639    539.262
 25.970    567.937    543.957     23.980    538.945    543.568    538.945    539.335    538.945
 26.070    569.953    543.477     26.476    538.627    543.073    538.627    539.033    538.627
 26.170    572.000    543.076     28.924    538.310    542.656    538.310    538.731    538.310
 26.270    537.590    542.744     -5.155    537.993    542.307    537.993    538.431    537.993
 26.370    541.000    542.475     -1.475    537.675    542.019    537.675    538.132    537.675
 26.470    562.000    542.262     19.738    537.358    541.785    537.358    537.835    537.358
 26.570    555.000    542.105     12.895    537.041    541.606    537.041    537.539    537.041
 26.670    545.000    542.008      2.992    536.723    541.486    536.723    537.246    536.723
 26.770    513.484    541.980    -28.496    536.406    541.430    536.406    536.955    536.406
 26.870    532.000    542.030    -10.030    536.089    541.451    536.089    536.667    536.089
 26.970    561.000    542.175     18.825    535.772    541.564    535.772    536.382    535.772
 27.070    557.000    542.441     14.559    535.455    541.794    535.455    536.101    535.455
 27.170    554.174    542.862     11.313    535.138    542.176    535.138    535.823    535.138
 27.270    570.000    543.487     26.513    534.822    542.757    534.822    535.551    534.822
 27.370    543.000    544.398     -1.398    534.506    543.619    534.506    535.284    534.506
 27.470    524.704    545.745    -21.041    534.190    544.911    534.190    535.023    534.190
 27.570    534.520    547.917    -13.398    533.874    547.020    533.874    534.769    533.874
 27.670    557.000    552.265      4.735    533.558    551.295    533.558    534.524    533.558
 27.770    611.000    563.207     47.793    533.243    562.152    533.243    534.290    533.243
 27.870    613.000    591.562     21.438    532.928    590.405    532.928    534.068    532.928
 27.970    644.894    653.828     -8.934    532.614    652.542    532.614    533.862    532.614
 28.070    741.802    757.658    -15.857    532.299    756.214    532.299    533.674    532.299
 28.170    841.000    876.350    -35.350    531.985    874.729    531.985    533.510    531.985
 28.270    920.000    942.725    -22.725    531.672    940.925    531.672    533.376    531.672
 28.370    867.000    906.936    -39.936    531.359    904.952    531.359    533.280    531.359
 28.470    808.878    807.468      1.409    531.046    805.256    531.046    533.231    531.046
 28.570    741.000    721.554     19.446    530.734    719.034    530.734    533.243    530.734
 28.670    643.041    695.971    -52.930    530.422    693.051    530.422    533.330    530.422
 28.770    751.000    731.451     19.549    530.111    728.034    530.111    533.509    530.111
 28.870    838.519    793.502     45.017    529.800    789.481    529.800    533.798    529.800
 28.970    885.000    827.971     57.029    529.490    823.229    529.490    534.216    529.490
 29.070    810.000    798.688     11.312    529.180    793.093    529.180    534.776    529.180
 29.170    764.208    726.176     38.031    528.871    719.578    528.871    535.481    528.871
 29.270    681.000    652.376     28.624    528.563    644.644    528.563    536.307    528.563
 29.370    580.000    600.761    -20.761    528.255    591.834    528.255    537.190    528.255
 29.470    535.000    572.872    -37.872    527.947    562.821    527.947    538.003    527.947
 29.570    575.000    560.193     14.807    527.640    549.275    527.640    538.560    527.640
 29.670    585.000    554.495     30.505    527.334    543.160    527.334    538.670    527.334
 29.770    607.000    551.230     55.770    527.029    540.031    527.029    538.228    527.029
 29.870    512.675    548.650    -35.975    526.724    538.104    526.724    537.269    526.724
 29.970    496.426    546.325    -49.899    526.420    536.788    526.420    535.956    526.420
 30.070    545.545    544.263      1.282    526.116    535.896    526.116    534.482    526.116
 30.170    555.000    542.588     12.412    525.814    535.392    525.814    533.008    525.814
 30.270    545.000    541.514      3.486    525.512    535.396    525.512    531.627    525.512
 30.370    578.170    541.527     36.643    525.211    536.350    525.211    530.384    525.211
 30.470    578.000    543.688     34.312    524.910    539.307    524.910    529.285    524.910
 30.570    558.000    549.802      8.198    524.611    546.078    524.611    528.323    524.611
 30.670    567.000    561.697      5.303    524.312    558.507    524.312    527.481    524.312
 30.770    601.000    579.227     21.773    524.014    576.466    524.014    526.741    524.014
 30.870    616.000    597.735     18.265    523.717    595.321    523.717    526.085    523.717
 30.970    570.000    607.549    -37.549    523.420    605.422    523.420    525.497    523.420
 31.070    565.000    601.308    -36.308    523.125    599.425    523.125    524.964    523.125
 31.170    600.565    583.363     17.201    522.830    581.690    522.830    524.473    522.830
 31.270    560.000    563.563     -3.563    522.536    562.064    522.536    524.017    522.536
 31.370    567.201    548.259     18.943    522.244    546.904    522.244    523.588    522.244
 31.470    575.000    538.830     36.170    521.952    537.595    521.952    523.181    521.952
 31.570    525.610    533.848     -8.238    521.661    532.714    521.661    522.792    521.661
 31.670    484.000    531.370    -47.370    521.371    530.322    521.371    522.417    521.371
 31.770    502.604    530.063    -27.460    521.082    529.089    521.082    522.054    521.082
 31.870    574.000    529.275     44.725    520.794    528.366    520.794    521.701    520.794
 31.970    586.000    528.749     57.251    520.507    527.897    520.507    521.358    520.507
 32.070    548.000    528.395     19.605    520.220    527.593    520.220    521.021    520.220
 32.170    578.000    528.180     49.820    519.935    527.422    519.935    520.692    519.935
 32.270    549.000    528.091     20.909    519.651    527.373    519.651    520.368    519.651
 32.370    534.934    528.130      6.804    519.368    527.447    519.368    520.050    519.368
 32.470    561.000    528.306     32.694    519.086    527.654    519.086    519.737    519.086
 32.570    541.873    528.636     13.237    518.805    528.013    518.805    519.427    518.805
 32.670    532.000    529.150      2.850    518.526    528.553    518.526    519.122    518.526
 32.770    564.000    529.892     34.108    518.247    529.318    518.247    518.820    518.247
 32.870    549.000    530.924     18.076    517.969    530.370    517.969    518.521    517.969
 32.970    561.000    532.339     28.661    517.693    531.804    517.693    518.226    517.693
 33.070    555.000    534.285     20.715    517.417    533.767    517.417    517.933    517.417
 33.170    490.442    537.037    -46.595    517.143    536.535    517.143    517.643    517.143
 33.270    563.000    541.226     21.774    516.870    540.737    516.870    517.356    516.870
 33.370    583.638    548.442     35.196    516.598    547.965    516.598    517.071    516.598
 33.470    609.107    562.445     46.662    516.327    561.978    516.327    516.788    516.327
 33.570    583.422    590.587     -7.166    516.057    590.126    516.057    516.508    516.057
 33.670    686.623    643.543     43.080    515.789    643.082    515.789    516.229    515.789
 33.770    700.930    730.368    -29.437    515.522    729.903    515.522    515.953    515.522
 33.870    873.833    847.975     25.858    515.256    847.505    515.256    515.678    515.256
 33.970   1004.000    968.754     35.246    514.991    968.283    514.991    515.406    514.991
 34.070    987.065   1038.397    -51.333    514.727   1037.942    514.727    515.135    514.727
 34.170   1006.000   1013.283     -7.283    514.465   1012.856    514.465    514.866    514.465
 34.270    912.000    911.156      0.844    514.204    910.756    514.204    514.599    514.204
 34.370    849.000    786.965     62.035    513.944    786.580    513.944    514.334    513.944
 34.470    655.000    682.526    -27.526    513.686    682.148    513.686    514.071    513.686
 34.570    691.000    612.241     78.759    513.428    611.865    513.428    513.809    513.428
 34.670    576.000    571.932      4.068    513.172    571.558    513.172    513.549    513.172
 34.770    546.000    550.978     -4.978    512.918    550.606    512.918    513.290    512.918
 34.870    581.000    540.174     40.826    512.664    539.804    512.664    513.034    512.664
 34.970    534.000    534.050     -0.050    512.412    533.684    512.412    512.778    512.412
 35.070    552.000    530.050     21.950    512.162    529.686    512.162    512.525    512.162
 35.170    471.000    527.127    -56.127    511.912    526.766    511.912    512.273    511.912
 35.270    514.000    524.854    -10.854    511.664    524.495    511.664    512.023    511.664
 35.370    532.000    523.024      8.976    511.417    522.667    511.417    511.774    511.417
 35.470    477.000    521.518    -44.518    511.172    521.163    511.172    511.527    511.172
 35.570    537.000    520.255     16.745    510.928    519.902    510.928    511.281    510.928
 35.670    504.000    519.180    -15.180    510.686    518.828    510.686    511.038    510.686
 35.770    459.000    518.253    -59.253    510.444    517.902    510.444    510.795    510.444
 35.870    504.849    517.442    -12.593    510.205    517.092    510.205    510.554    510.205
 35.970    495.000    516.727    -21.727    509.966    516.378    509.966    510.315    509.966
 36.070    476.992    516.091    -39.099    509.729    515.743    509.729    510.078    509.729
 36.170    490.000    515.522    -25.522    509.494    515.174    509.494    509.842    509.494
 36.270    504.000    515.009    -11.009    509.259    514.662    509.259    509.607    509.259
 36.370    493.000    514.548    -21.548    509.027    514.200    509.027    509.374    509.027
 36.470    486.000    514.133    -28.133    508.795    513.785    508.795    509.143    508.795
 36.570    531.000    513.762     17.238    508.566    513.414    508.566    508.914    508.566
 36.670    476.022    513.437    -37.415    508.337    513.089    508.337    508.685    508.337
 36.770    477.086    513.163    -36.077    508.110    512.814    508.110    508.459    508.110
 36.870    492.000    512.960    -20.960    507.885    512.611    507.885    508.234    507.885
 36.970    491.000    512.883    -21.883    507.661    512.533    507.661    508.011    507.661
 37.070    528.133    513.037     15.096    507.438    512.687    507.438    507.789    507.438
 37.170    450.000    513.615    -63.615    507.217    513.263    507.217    507.569    507.217
 37.270    484.000    514.879    -30.879    506.998    514.527    506.998    507.351    506.998
 37.370    532.623    517.060     15.563    506.780    516.707    506.780    507.134    506.780
 37.470    497.000    520.134    -23.134    506.563    519.781    506.563    506.918    506.563
 37.570    536.000    523.559     12.441    506.348    523.205    506.348    506.705    506.348
 37.670    537.952    526.136     11.815    506.134    525.782    506.134    506.493    506.134
 37.770    535.000    526.557      8.443    505.922    526.203    505.922    506.282    505.922
 37.870    537.000    524.611     12.389    505.712    524.258    505.712    506.074    505.712
 37.970    568.000    521.369     46.631    505.503    521.016    505.503    505.866    505.503
 38.070    539.000    517.957     21.043    505.295    517.602    505.295    505.661    505.295
 38.170    551.000    514.941     36.059    505.089    514.584    505.089    505.457    505.089
 38.270    477.000    512.561    -35.561    504.885    512.199    504.885    505.255    504.885
 38.370    515.000    510.844      4.156    504.682    510.477    504.682    505.054    504.682
 38.470    502.000    509.670     -7.670    504.481    509.299    504.481    504.855    504.481
 38.570    502.346    508.877     -6.531    504.281    508.503    504.281    504.658    504.281
 38.670    511.000    508.327      2.673    504.083    507.949    504.083    504.463    504.083
 38.770    498.000    507.920     -9.920    503.887    507.539    503.887    504.269    503.887
 38.870    548.938    507.594     41.344    503.691    507.210    503.691    504.077    503.691
 38.970    474.000    507.314    -33.314    503.498    506.927    503.498    503.886    503.498
 39.070    473.000    507.064    -34.064    503.306    506.673    503.306    503.697    503.306
 39.170    483.000    506.834    -23.834    503.116    506.440    503.116    503.510    503.116
 39.270    503.000    506.620     -3.620    502.927    506.223    502.927    503.325    502.927
 39.370    478.602    506.419    -27.817    502.740    506.019    502.740    503.141    502.740
 39.470    508.000    506.231      1.769    502.554    505.827    502.554    502.959    502.554
 39.570    522.798    506.053     16.745    502.370    505.645    502.370    502.778    502.370
 39.670    495.000    505.885    -10.885    502.188    505.474    502.188    502.600    502.188
 39.770    497.958    505.727     -7.769    502.007    505.312    502.007    502.423    502.007
 39.870    546.000    505.579     40.421    501.828    505.159    501.828    502.248    501.828
 39.970    483.000    505.440    -22.440    501.651    505.016    501.651    502.074    501.651
 40.070    517.000    505.310     11.690    501.475    504.883    501.475    501.903    501.475
 40.170    549.293    505.191     44.101    501.300    504.759    501.300    501.733    501.300
 40.270    499.000    505.083     -6.083    501.128    504.647    501.128    501.565    501.128
 40.370    500.000    504.987     -4.987    500.956    504.546    500.956    501.398    500.956
 40.470    504.246    504.904     -0.658    500.787    504.458    500.787    501.234    500.787
 40.570    536.283    504.835     31.448    500.619    504.384    500.619    501.071    500.619
 40.670    536.747    504.783     31.963    500.453    504.327    500.453    500.910    500.453
 40.770    526.230    504.751     21.479    500.288    504.289    500.288    500.750    500.288
 40.870    509.746    504.740      5.006    500.125    504.273    500.125    500.593    500.125
 40.970    482.038    504.756    -22.718    499.964    504.283    499.964    500.437    499.964
 41.070    499.000    504.804     -5.804    499.804    504.325    499.804    500.283    499.804
 41.170    485.781    504.890    -19.109    499.646    504.406    499.646    500.131    499.646
 41.270    464.854    505.026    -40.172    499.489    504.535    499.489    499.981    499.489
 41.370    458.000    505.222    -47.222    499.334    504.725    499.334    499.833    499.334
 41.470    478.527    505.498    -26.971    499.181    504.995    499.181    499.686    499.181
 41.570    549.390    505.884     43.507    499.029    505.373    499.029    499.541    499.029
 41.670    521.000    506.431     14.569    498.879    505.914    498.879    499.399    498.879
 41.770    507.000    507.252     -0.252    498.731    506.728    498.731    499.258    498.731
 41.870    516.000    508.597      7.403    498.584    508.066    498.584    499.119    498.584
 41.970    468.000    510.992    -42.992    498.439    510.454    498.439    498.981    498.439
 42.070    507.000    515.408     -8.408    498.296    514.864    498.296    498.846    498.296
 42.170    511.908    523.308    -11.400    498.154    522.759    498.154    498.713    498.154
 42.270    538.000    536.327      1.673    498.014    535.775    498.014    498.581    498.014
 42.370    550.988    555.388     -4.400    497.875    554.837    497.875    498.452    497.875
 42.470    554.000    579.358    -25.358    497.738    578.810    497.738    498.324    497.738
 42.570    603.000    603.698     -0.698    497.603    603.153    497.603    498.199    497.603
 42.670    585.000    620.312    -35.312    497.469    619.769    497.469    498.076    497.469
 42.770    564.000    621.403    -57.403    497.337    620.852    497.337    497.954    497.337
 42.870    603.000    606.296     -3.296    497.207    605.729    497.207    497.835    497.207
 42.970    573.485    582.234     -8.749    497.078    581.644    497.078    497.717    497.078
 43.070    575.872    557.678     18.194    496.951    557.062    496.951    497.602    496.951
 43.170    583.000    537.682     45.318    496.826    537.041    496.826    497.489    496.826
 43.270    549.824    523.745     26.079    496.702    523.083    496.702    497.378    496.702
 43.370    547.180    515.122     32.057    496.580    514.442    496.580    497.269    496.580
 43.470    520.000    510.202      9.798    496.459    509.505    496.459    497.162    496.459
 43.570    506.698    507.464     -0.766    496.340    506.751    496.340    497.058    496.340
 43.670    515.000    505.871      9.129    496.223    505.142    496.223    496.956    496.223
 43.770    486.000    504.850    -18.850    496.107    504.104    496.107    496.856    496.107
 43.870    528.000    504.125     23.875    495.993    503.362    495.993    496.758    495.993
 43.970    537.271    503.574     33.697    495.881    502.794    495.881    496.663    495.881
 44.070    507.000    503.139      3.861    495.770    502.340    495.770    496.570    495.770
 44.170    506.904    502.789      4.116    495.661    501.971    495.661    496.480    495.661
 44.270    483.000    502.505    -19.505    495.553    501.668    495.553    496.392    495.553
 44.370    481.000    502.275    -21.275    495.447    501.416    495.447    496.307    495.447
 44.470    512.000    502.088      9.912    495.343    501.208    495.343    496.225    495.343
 44.570    499.000    501.939     -2.939    495.240    501.035    495.240    496.145    495.240
 44.670    471.077    501.820    -30.744    495.139    500.892    495.139    496.068    495.139
 44.770    475.568    501.730    -26.161    495.040    500.776    495.040    495.994    495.040
 44.870    524.000    501.664     22.336    494.942    500.683    494.942    495.923    494.942
 44.970    475.000    501.621    -26.621    494.846    500.612    494.846    495.856    494.846
 45.070    486.000    501.600    -15.600    494.751    500.561    494.751    495.791    494.751
 45.170    503.168    501.599      1.569    494.658    500.528    494.658    495.730    494.658
 45.270    526.000    501.619     24.381    494.567    500.513    494.567    495.672    494.567
 45.370    471.029    501.658    -30.629    494.477    500.517    494.477    495.619    494.477
 45.470    507.000    501.718      5.282    494.389    500.538    494.389    495.569    494.389
 45.570    488.846    501.799    -12.954    494.302    500.578    494.302    495.523    494.302
 45.670    499.128    501.903     -2.775    494.217    500.638    494.217    495.481    494.217
 45.770    518.000    502.029     15.971    494.133    500.718    494.133    495.445    494.133
 45.870    543.438    502.182     41.256    494.051    500.820    494.051    495.413    494.051
 45.970    471.000    502.362    -31.362    493.971    500.947    493.971    495.386    493.971
 46.070    548.209    502.574     45.635    493.892    501.101    493.892    495.365    493.892
 46.170    511.000    502.821      8.179    493.815    501.286    493.815    495.350    493.815
 46.270    531.000    503.109     27.891    493.739    501.506    493.739    495.342    493.739
 46.370    483.000    503.444    -20.444    493.665    501.768    493.665    495.341    493.665
 46.470    528.000    503.835     24.165    493.593    502.080    493.593    495.347    493.593
 46.570    546.984    504.294     42.690    493.522    502.452    493.522    495.363    493.522
 46.670    492.000    504.839    -12.839    493.453    502.903    493.453    495.387    493.453
 46.770    549.657    505.501     44.156    493.385    503.462    493.385    495.422    493.385
 46.870    516.000    506.343      9.657    493.318    504.190    493.318    495.469    493.318
 46.970    501.000    507.491     -6.491    493.254    505.214    493.254    495.529    493.254
 47.070    480.316    509.203    -28.887    493.190    506.786    493.190    495.603    493.190
 47.170    495.000    511.934    -16.934    493.129    509.363    493.129    495.694    493.129
 47.270    513.000    516.387     -3.387    493.069    513.642    493.069    495.805    493.069
 47.370    515.000    523.412     -8.412    493.010    520.472    493.010    495.937    493.010
 47.470    522.000    533.710    -11.710    492.953    530.547    492.953    496.095    492.953
 47.570    521.010    547.306    -26.296    492.897    543.888    492.897    496.284    492.897
 47.670    579.000    562.943     16.057    492.843    559.235    492.843    496.509    492.843
 47.770    567.313    577.617    -10.304    492.791    573.578    492.791    496.779    492.791
 47.870    584.000    586.908     -2.908    492.740    582.488    492.740    497.104    492.740
 47.970    582.000    587.304     -5.304    492.690    582.444    492.690    497.497    492.690
 48.070    601.000    579.220     21.780    492.642    573.840    492.642    497.977    492.642
 48.170    582.000    566.565     15.435    492.595    560.559    492.595    498.567    492.595
 48.270    555.635    553.674      1.961    492.550    546.905    492.550    499.295    492.550
 48.370    552.000    543.353      8.647    492.507    535.646    492.507    500.197    492.507
 48.470    536.000    536.721     -0.721    492.464    527.859    492.464    501.316    492.464
 48.570    506.000    533.721    -27.721    492.424    523.438    492.424    502.700    492.424
 48.670    467.000    533.723    -66.723    492.384    521.704    492.384    504.400    492.384
 48.770    538.000    536.020      1.980    492.347    521.898    492.347    506.465    492.347
 48.870    567.000    540.101     26.899    492.310    523.471    492.310    508.938    492.310
 48.970    525.000    545.733    -20.733    492.275    526.166    492.275    511.840    492.275
 49.070    561.754    552.966      8.789    492.242    530.049    492.242    515.156    492.242
 49.170    587.000    562.259     24.741    492.210    535.666    492.210    518.800    492.210
 49.270    527.000    574.994    -47.994    492.179    544.587    492.179    522.583    492.179
 49.370    612.000    594.759     17.241    492.150    560.731    492.150    526.168    492.150
 49.470    597.369    629.709    -32.340    492.123    592.729    492.123    529.082    492.123
 49.570    690.000    695.449     -5.449    492.096    656.700    492.096    530.805    492.096
 49.670    817.000    815.951      1.049    492.071    776.986    492.071    530.965    492.071
 49.770   1038.000   1018.114     19.886    492.048    980.529    492.048    529.522    492.048
 49.870   1288.449   1316.792    -28.343    492.026   1281.884    492.026    526.789    492.026
 49.970   1757.000   1693.668     63.332    492.005   1662.244    492.005    523.274    492.005
 50.070   2080.000   2081.539     -1.539    491.985   2053.930    491.985    519.476    491.985
 50.170   2468.000   2369.554     98.446    491.968   2345.730    491.968    515.761    491.968
 50.270   2448.375   2446.085      2.289    491.951   2425.771    491.951    512.347    491.951
 50.370   2250.584   2275.014    -24.431    491.936   2257.779    491.936    509.337    491.936
 50.470   1849.000   1929.812    -80.812    491.922   1915.172    491.922    506.757    491.922
 50.570   1582.544   1532.426     50.118    491.909   1519.923    491.909    504.592    491.909
 50.670   1125.000   1181.430    -56.430    491.898   1170.665    491.898    502.802    491.898
 50.770    834.000    925.203    -91.203    491.888    915.850    491.888    501.339    491.888
 50.870    809.948    766.572     43.376    491.879    758.368    491.879    500.151    491.879
 50.970    689.000    681.975      7.025    491.872    674.708    491.872    499.189    491.872
 51.070    617.000    641.235    -24.235    491.866    634.733    491.866    498.410    491.866
 51.170    650.000    619.852     30.148    491.862    613.974    491.862    497.777    491.862
 51.270    660.000    603.634     56.366    491.858    598.266    491.858    497.259    491.858
 51.370    601.000    587.845     13.155    491.856    582.896    491.856    496.833    491.856
 51.470    617.000    572.750     44.250    491.856    568.148    491.856    496.479    491.856
 51.570    598.000    559.695     38.305    491.856    555.384    491.856    496.183    491.856
 51.670    543.000    549.549     -6.549    491.858    545.485    491.858    495.934    491.858
 51.770    517.823    542.456    -24.632    491.861    538.601    491.861    495.723    491.861
 51.870    592.000    538.032     53.968    491.865    534.358    491.865    495.545    491.865
 51.970    536.000    535.684      0.316    491.871    532.165    491.871    495.395    491.871
 52.070    604.000    534.867     69.133    491.878    531.481    491.878    495.268    491.878
 52.170    561.561    535.232     26.329    491.886    531.960    491.886    495.162    491.886
 52.270    559.301    536.673     22.627    491.895    533.497    491.895    495.074    491.895
 52.370    562.954    539.369     23.586    491.905    536.275    491.905    495.002    491.905
 52.470    538.000    543.912     -5.912    491.917    540.887    491.917    494.944    491.917
 52.570    534.504    551.590    -17.087    491.930    548.622    491.930    494.900    491.930
 52.670    585.000    564.793     20.207    491.944    561.871    491.944    494.868    491.944
 52.770    606.189    587.403     18.786    491.959    584.516    491.959    494.847    491.959
 52.870    631.000    624.773      6.227    491.976    621.912    491.976    494.836    491.976
 52.970    629.825    682.786    -52.961    491.994    679.942    491.994    494.835    491.994
 53.070    790.000    765.660     24.340    492.012    762.828    492.012    494.844    492.012
 53.170    873.000    872.720      0.280    492.032    869.894    492.032    494.861    492.032
 53.270   1003.708    994.955      8.753    492.053    992.130    492.053    494.886    492.053
 53.370   1181.215   1112.491     68.724    492.076   1109.665    492.076    494.920    492.076
 53.470   1147.895   1195.675    -47.780    492.099   1192.845    492.099    494.961    492.099
 53.570   1199.000   1215.710    -16.710    492.124   1212.869    492.124    495.010    492.124
 53.670   1128.000   1164.305    -36.305    492.149   1161.439    492.149    495.067    492.149
 53.770   1022.092   1061.367    -39.275    492.176   1058.461    492.176    495.132    492.176
 53.870    893.000    938.748    -45.748    492.204    935.790    492.204    495.204    492.204
 53.970    805.000    822.357    -17.357    492.233    819.338    492.233    495.285    492.233
 54.070    709.446    726.781    -17.335    492.263    723.695    492.263    495.373    492.263
 54.170    660.695    656.684      4.011    492.294    653.524    492.294    495.470    492.294
 54.270    625.305    609.965     15.340    492.326    606.726    492.326    495.575    492.326
 54.370    562.356    581.226    -18.870    492.359    577.903    492.359    495.689    492.359
 54.470    591.119    564.602     26.516    492.393    561.188    492.393    495.813    492.393
 54.570    541.388    555.365    -13.978    492.428    551.852    492.428    495.946    492.428
 54.670    553.807    550.365      3.442    492.465    546.744    492.465    496.089    492.465
 54.770    550.000    547.787      2.213    492.502    544.049    492.502    496.243    492.502
 54.870    600.000    546.699     53.301    492.540    542.833    492.540    496.409    492.540
 54.970    566.270    546.667     19.603    492.580    542.662    492.580    496.587    492.580
 55.070    542.000    547.512     -5.512    492.620    543.356    492.620    496.778    492.620
 55.170    589.000    549.182     39.818    492.661    544.862    492.661    496.984    492.661
 55.270    564.000    551.699     12.301    492.703    547.199    492.703    497.206    492.703
 55.370    586.000    555.154     30.846    492.747    550.458    492.747    497.444    492.747
 55.470    546.955    559.728    -12.774    492.791    554.820    492.791    497.701    492.791
 55.570    520.000    565.783    -45.783    492.836    560.642    492.836    497.979    492.836
 55.670    612.787    574.048     38.739    492.882    568.654    492.882    498.279    492.882
 55.770    578.000    586.035     -8.035    492.929    580.362    492.929    498.604    492.929
 55.870    637.000    604.752     32.248    492.977    598.773    492.977    498.956    492.977
 55.970    616.021    635.762    -19.742    493.026    629.446    493.026    499.339    493.026
 56.070    705.000    688.299     16.701    493.076    681.608    493.076    499.757    493.076
 56.170    774.000    775.696     -1.696    493.126    768.591    493.126    500.213    493.126
 56.270    870.000    913.961    -43.961    493.178    906.397    493.178    500.713    493.178
 56.370   1105.000   1117.406    -12.406    493.230   1109.336    493.230    501.263    493.230
 56.470   1421.442   1391.329     30.114    493.283   1382.703    493.283    501.871    493.283
 56.570   1715.000   1723.439     -8.439    493.338   1714.208    493.338    502.544    493.338
 56.670   2004.000   2076.825    -72.825    493.393   2066.933    493.393    503.296    493.393
 56.770   2339.346   2388.025    -48.679    493.448   2377.408    493.448    504.140    493.448
 56.870   2570.073   2578.059     -7.987    493.505   2566.628    493.505    505.094    493.505
 56.970   2559.000   2586.246    -27.246    493.562   2573.863    493.562    506.183    493.562
 57.070   2373.000   2410.232    -37.232    493.621   2396.700    493.621    507.439    493.621
 57.170   2124.738   2107.986     16.753    493.680   2093.053    493.680    508.904    493.680
 57.270   1823.411   1758.860     64.550    493.739   1742.230    493.739    510.630    493.739
 57.370   1469.000   1428.079     40.921    493.800   1409.403    493.800    512.685    493.800
 57.470   1215.261   1154.479     60.782    493.861   1133.341    493.861    515.154    493.861
 57.570    938.000    952.012    -14.012    493.923    927.902    493.923    518.139    493.923
 57.670    850.000    816.640     33.360    493.986    788.935    493.986    521.759    493.986
 57.770    777.000    735.036     41.964    494.050    702.980    494.050    526.147    494.050
 57.870    666.081    692.245    -26.164    494.114    654.937    494.114    531.445    494.114
 57.970    658.759    676.477    -17.719    494.179    632.871    494.179    537.796    494.179
 58.070    718.000    680.821     37.179    494.245    629.735    494.245    545.330    494.245
 58.170    650.000    702.726    -52.726    494.312    642.882    494.312    554.146    494.312
 58.270    713.250    742.319    -29.069    494.379    672.394    494.379    564.284    494.379
 58.370    825.481    800.310     25.171    494.446    719.044    494.446    575.684    494.446
 58.470    873.000    876.009     -3.009    494.515    782.366    494.515    588.124    494.515
 58.570    926.000    965.739    -39.739    494.584    859.151    494.584    601.135    494.584
 58.670   1056.000   1062.033     -6.033    494.654    942.739    494.654    613.916    494.654
 58.770   1104.000   1154.604    -50.604    494.724   1024.013    494.724    625.294    494.724
 58.870   1273.000   1233.489     39.511    494.795   1094.428    494.795    633.850    494.795
 58.970   1306.684   1291.140     15.544    494.867   1147.765    494.867    638.253    494.867
 59.070   1359.000   1321.164     37.836    494.939   1178.400    494.939    637.731    494.939
 59.170   1362.000   1318.923     43.077    495.012   1181.577    495.012    632.398    495.012
 59.270   1352.000   1286.658     65.342    495.086   1158.582    495.086    623.203    495.086
 59.370   1314.000   1235.858     78.142    495.160   1119.510    495.160    611.535    495.160
 59.470   1170.922   1182.037    -11.115    495.234   1078.499    495.234    598.774    495.234
 59.570   1141.000   1139.229      1.771    495.309   1048.500    495.309    586.005    495.309
 59.670   1198.000   1119.569     78.431    495.385   1040.935    495.385    573.944    495.385
 59.770   1157.822   1133.557     24.265    495.461   1065.904    495.461    562.994    495.461
 59.870   1166.211   1186.397    -20.186    495.538   1128.434    495.538    553.332    495.538
 59.970   1322.000   1273.131     48.869    495.615   1223.541    495.615    544.991    495.615
 60.070   1402.374   1376.511     25.863    495.693   1334.041    495.693    537.915    495.693
 60.170   1500.000   1468.481     31.519    495.771   1431.996    495.771    531.998    495.771
 60.270   1575.451   1516.541     58.910    495.850   1485.044    495.850    527.104    495.850
 60.370   1446.082   1497.073    -50.991    495.929   1469.709    495.929    523.093    495.929
 60.470   1437.000   1408.707     28.293    496.009   1384.744    496.009    519.824    496.009
 60.570   1262.000   1272.069    -10.069    496.089   1250.891    496.089    517.169    496.089
 60.670   1181.696   1116.572     65.124    496.170   1097.669    496.170    515.015    496.170
 60.770    992.000    967.987     24.013    496.251    950.943    496.251    513.265    496.251
 60.870    819.000    843.102    -24.102    496.332    827.579    496.332    511.840    496.332
 60.970    720.631    749.317    -28.686    496.414    735.044    496.414    510.678    496.414
 61.070    714.000    686.842     27.158    496.496    673.601    496.496    509.728    496.496
 61.170    643.169    652.132     -8.963    496.579    639.746    496.579    508.953    496.579
 61.270    613.406    641.285    -27.879    496.662    629.607    496.662    508.319    496.662
 61.370    664.122    652.338     11.785    496.745    641.249    496.745    507.803    496.745
 61.470    671.137    685.976    -14.839    496.829    675.379    496.829    507.379    496.829
 61.570    738.414    744.637     -6.223    496.913    734.459    496.913    507.025    496.913
 61.670    773.000    830.339    -57.339    496.998    820.530    496.998    506.715    496.998
 61.770    934.000    941.836     -7.836    497.082    932.375    497.082    506.425    497.082
 61.870   1034.367   1071.925    -37.558    497.167   1062.819    497.167    506.133    497.167
 61.970   1232.793   1205.765     27.028    497.253   1197.041    497.253    505.823    497.253
 62.070   1264.236   1321.089    -56.853    497.338   1312.787    497.338    505.490    497.338
 62.170   1388.000   1392.127     -4.127    497.424   1384.284    497.424    505.138    497.424
 62.270   1344.000   1399.157    -55.157    497.510   1391.793    497.510    504.778    497.510
 62.370   1353.346   1339.613     13.733    497.597   1332.728    497.597    504.424    497.597
 62.470   1169.233   1229.888    -60.655    497.683   1223.458    497.683    504.087    497.683
 62.570   1083.000   1095.470    -12.470    497.770   1089.461    497.770    503.775    497.770
 62.670    899.000    959.992    -60.992    497.858    954.364    497.858    503.493    497.858
 62.770    865.371    839.995     25.376    497.945    834.710    497.945    503.242    497.945
 62.870    703.000    744.014    -41.014    498.032    739.035    498.032    503.022    498.032
 62.970    727.662    673.740     53.922    498.120    669.036    498.120    502.832    498.120
 63.070    631.781    626.243      5.538    498.208    621.785    498.208    502.670    498.208
 63.170    610.000    596.451     13.549    498.296    592.214    498.296    502.534    498.296
 63.270    580.287    579.172      1.114    498.385    575.135    498.385    502.420    498.385
 63.370    587.000    570.300     16.700    498.473    566.442    498.473    502.327    498.473
 63.470    574.000    567.271      6.729    498.562    563.573    498.562    502.252    498.562
 63.570    568.530    569.045     -0.515    498.650    565.492    498.650    502.194    498.650
 63.670    586.000    575.892     10.108    498.739    572.469    498.739    502.149    498.739
 63.770    601.000    589.101     11.899    498.828    585.793    498.828    502.117    498.828
 63.870    570.425    610.610    -40.185    498.917    607.403    498.917    502.095    498.917
 63.970    672.347    642.478     29.869    499.006    639.361    499.006    502.083    499.006
 64.070    738.767    686.162     52.605    499.096    683.123    499.096    502.079    499.096
 64.170    718.000    741.634    -23.634    499.185    738.663    499.185    502.083    499.185
 64.270    809.000    806.497      2.503    499.274    803.588    499.274    502.094    499.274
 64.370    890.000    875.296     14.704    499.363    872.446    499.363    502.110    499.363
 64.470    966.000    939.394     26.606    499.453    936.603    499.453    502.133    499.453
 64.570   1019.666    988.250     31.415    499.542    985.523    499.542    502.160    499.542
 64.670   1006.000   1012.762     -6.762    499.632   1010.104    499.632    502.192    499.632
 64.770    984.000   1009.079    -25.079    499.721   1006.494    499.721    502.228    499.721
 64.870    982.572    979.780      2.792    499.811    977.268    499.811    502.269    499.811
 64.970    909.005    932.125    -23.121    499.900    929.683    499.900    502.313    499.900
 65.070    829.331    875.304    -45.972    499.989    872.924    499.989    502.361    499.989
 65.170    787.000    817.648    -30.648    500.079    815.325    500.079    502.412    500.079
 65.270    747.811    764.698    -16.887    500.168    762.422    500.168    502.467    500.168
 65.370    679.000    718.872    -39.872    500.257    716.634    500.257    502.524    500.257
 65.470    665.600    680.477    -14.877    500.347    678.270    500.347    502.584    500.347
 65.570    665.159    649.013     16.146    500.436    646.830    500.436    502.648    500.436
 65.670    607.000    623.843    -16.843    500.525    621.679    500.525    502.713    500.525
 65.770    640.500    604.272     36.227    500.613    602.123    500.613    502.782    500.613
 65.870    573.000    589.535    -16.535    500.702    587.398    500.702    502.852    500.702
 65.970    540.150    578.870    -38.720    500.791    576.744    500.791    502.925    500.791
 66.070    556.285    571.589    -15.305    500.879    569.473    500.879    503.001    500.879
 66.170    518.000    567.105    -49.105    500.968    564.997    500.968    503.079    500.968
 66.270    544.000    564.932    -20.932    501.056    562.832    501.056    503.159    501.056
 66.370    553.000    564.700    -11.700    501.144    562.606    501.144    503.241    501.144
 66.470    573.019    566.189      6.830    501.232    564.098    501.232    503.325    501.232
 66.570    591.000    569.398     21.602    501.319    567.309    501.319    503.411    501.319
 66.670    508.000    574.658    -66.658    501.407    572.568    501.407    503.500    501.407
 66.770    601.000    582.816     18.184    501.494    580.722    501.494    503.591    501.494
 66.870    564.541    595.523    -30.982    501.581    593.423    501.581    503.684    501.581
 66.970    638.917    615.613     23.304    501.668    613.503    501.668    503.779    501.668
 67.070    612.000    647.493    -35.493    501.754    645.370    501.754    503.877    501.754
 67.170    695.000    697.373     -2.373    501.841    695.234    501.841    503.976    501.841
 67.270    771.264    773.031     -1.766    501.927    770.873    501.927    504.079    501.927
 67.370    838.842    882.811    -43.969    502.013    880.634    502.013    504.183    502.013
 67.470   1055.387   1033.681     21.706    502.098   1031.487    502.098    504.291    502.098
 67.570   1237.000   1228.482      8.518    502.183   1226.278    502.183    504.400    502.183
 67.670   1475.000   1462.900     12.100    502.268   1460.694    502.268    504.513    502.268
 67.770   1684.000   1722.918    -38.918    502.353   1720.723    502.353    504.629    502.353
 67.870   2037.000   1983.450     53.550    502.437   1981.279    502.437    504.747    502.437
 67.970   2226.000   2209.049     16.951    502.521   2206.913    502.521    504.869    502.521
 68.070   2411.000   2358.943     52.057    502.604   2356.842    502.604    504.995    502.604
 68.170   2478.563   2399.410     79.153    502.688   2397.329    502.688    505.124    502.688
 68.270   2342.969   2320.123     22.846    502.770   2318.030    502.770    505.257    502.770
 68.370   2135.000   2140.505     -5.505    502.853   2138.359    502.853    505.394    502.853
 68.470   1856.000   1898.684    -42.684    502.935   1896.450    502.935    505.536    502.935
 68.570   1657.519   1634.882     22.637    503.017   1632.534    503.017    505.683    503.017
 68.670   1348.403   1381.422    -33.019    503.098   1378.944    503.098    505.836    503.098
 68.770   1167.553   1159.610      7.943    503.179   1156.996    503.179    505.994    503.179
 68.870    967.000    979.956    -12.956    503.259    977.206    503.259    506.158    503.259
 68.970    823.000    844.018    -21.018    503.339    841.133    503.339    506.330    503.339
 69.070    760.000    747.193     12.807    503.418    744.176    503.418    506.509    503.418
 69.170    665.000    681.737    -16.737    503.498    678.588    503.498    506.696    503.498
 69.270    623.068    639.291    -16.223    503.576    636.008    503.576    506.893    503.576
 69.370    632.000    612.507     19.493    503.654    609.085    503.654    507.099    503.654
 69.470    604.000    595.761      8.239    503.732    592.193    503.732    507.317    503.732
 69.570    580.000    585.181     -5.181    503.809    581.455    503.809    507.548    503.809
 69.670    545.000    578.329    -33.329    503.886    574.432    503.886    507.792    503.886
 69.770    620.667    573.775     46.891    503.962    569.693    503.962    508.053    503.962
 69.870    585.721    570.735     14.986    504.037    566.448    504.037    508.330    504.037
 69.970    528.000    568.795    -40.795    504.112    564.285    504.112    508.628    504.112
 70.070    583.000    567.753     15.247    504.187    562.996    504.187    508.948    504.187
 70.170    572.000    567.531      4.469    504.261    562.501    504.261    509.294    504.261
 70.270    512.000    568.137    -56.137    504.334    562.804    504.334    509.669    504.334
 70.370    595.460    569.680     25.780    504.407    564.009    504.407    510.080    504.407
 70.470    562.000    572.408    -10.408    504.479    566.357    504.479    510.531    504.479
 70.570    542.616    576.803    -34.187    504.551    570.321    504.551    511.031    504.551
 70.670    547.000    583.717    -36.717    504.622    576.743    504.622    511.592    504.622
 70.770    577.656    594.566    -16.910    504.692    587.025    504.692    512.227    504.692
 70.870    571.000    611.544    -40.544    504.762    603.339    504.762    512.956    504.762
 70.970    648.067    637.790     10.276    504.831    628.799    504.831    513.804    504.831
 71.070    683.348    677.410      5.938    504.899    667.474    504.899    514.807    504.899
 71.170    743.369    735.193      8.175    504.967    724.112    504.967    516.008    504.967
 71.270    833.000    815.925     17.075    505.034    803.439    505.034    517.462    505.034
 71.370    880.000    923.239    -43.239    505.101    909.020    505.101    519.240    505.101
 71.470    993.292   1058.156    -64.864    505.167   1041.796    505.167    521.423    505.167
 71.570   1214.385   1217.574     -3.189    505.232   1198.573    505.232    524.105    505.232
 71.670   1392.000   1393.054     -1.054    505.296   1370.812    505.296    527.389    505.296
 71.770   1545.000   1570.167    -25.167    505.360   1543.985    505.360    531.379    505.360
 71.870   1767.000   1728.752     38.248    505.423   1697.839    505.423    536.171    505.423
 71.970   1900.977   1845.122     55.855    505.485   1808.610    505.485    541.845    505.485
 72.070   1825.000   1897.945    -72.945    505.547   1854.923    505.547    548.445    505.547
 72.170   1790.200   1877.053    -86.853    505.608   1826.612    505.608    555.962    505.608
 72.270   1776.646   1788.744    -12.098    505.668   1730.050    505.668    564.316    505.668
 72.370   1718.000   1652.206     65.794    505.727   1584.603    505.727    573.318    505.727
 72.470   1602.000   1490.861    111.139    505.785   1414.018    505.785    582.641    505.785
 72.570   1257.140   1325.571    -68.431    505.843   1239.667    505.843    591.774    505.843
 72.670   1204.000   1171.641     32.359    505.900   1077.559    505.900    600.016    505.900
 72.770   1043.000   1038.215      4.785    505.956    937.686    505.956    606.520    505.956
 72.870    920.000    928.888     -8.888    506.011    824.485    506.011    610.446    506.011
 72.970    820.000    843.044    -23.044    506.066    737.927    506.066    611.209    506.066
 73.070    769.000    777.547     -8.547    506.119    674.997    506.119    608.691    506.119
 73.170    716.000    728.289    -12.289    506.172    631.184    506.172    603.294    506.172
 73.270    680.000    691.256    -11.256    506.224    601.711    506.224    595.782    506.224
 73.370    651.000    663.088    -12.088    506.275    582.347    506.275    587.027    506.275
 73.470    677.782    641.258     36.524    506.326    569.785    506.326    577.807    506.326
 73.570    612.000    624.018    -12.018    506.375    561.685    506.375    568.717    506.375
 73.670    619.219    610.257      8.962    506.424    556.532    506.424    560.157    506.424
 73.770    624.000    599.310     24.690    506.471    553.422    506.471    552.369    506.471
 73.870    609.000    590.787     18.213    506.518    551.842    506.518    545.476    506.518
 73.970    556.000    584.427    -28.427    506.564    551.493    506.564    539.514    506.564
 74.070    607.000    579.992     27.008    506.609    552.164    506.609    534.457    506.609
 74.170    609.000    577.197     31.803    506.653    553.636    506.653    530.239    506.653
 74.270    541.925    575.672    -33.747    506.696    555.630    506.696    526.770    506.696
 74.370    651.000    574.952     76.048    506.738    557.781    506.738    523.946    506.738
 74.470    568.746    574.483     -5.736    506.779    559.640    506.779    521.664    506.779
 74.570    588.479    573.680     14.799    506.820    560.719    506.820    519.826    506.820
 74.670    598.808    572.059     26.749    506.859    560.621    506.859    518.344    506.859
 74.770    585.000    569.397     15.603    506.897    559.197    506.897    517.143    506.897
 74.870    605.000    565.821     39.179    506.934    556.636    506.934    516.162    506.934
 74.970    632.000    561.727     70.273    506.971    553.383    506.971    515.352    506.971
 75.070    588.433    557.621     30.812    507.006    549.984    507.006    514.674    507.006
 75.170    539.000    554.020    -15.020    507.041    546.985    507.041    514.100    507.041
 75.270    590.000    551.420     38.580    507.074    544.905    507.074    513.607    507.074
 75.370    518.531    550.302    -31.772    507.106    544.241    507.106    513.179    507.106
 75.470    548.684    551.147     -2.463    507.138    545.486    507.138    512.804    507.138
 75.570    569.920    554.436     15.483    507.168    549.131    507.168    512.473    507.168
 75.670    608.899    560.634     48.265    507.197    555.646    507.197    512.178    507.197
 75.770    558.000    570.124    -12.124    507.226    565.421    507.226    511.914    507.226
 75.870    591.750    583.117      8.633    507.253    578.672    507.253    511.677    507.253
 75.970    641.331    599.526     41.805    507.279    595.313    507.279    511.463    507.279
 76.070    668.142    618.837     49.305    507.304    614.835    507.304    511.269    507.304
 76.170    656.000    640.009     15.991    507.328    636.200    507.328    511.093    507.328
 76.270    664.000    661.421      2.579    507.351    657.789    507.351    510.933    507.351
 76.370    699.504    680.897     18.608    507.373    677.427    507.373    510.787    507.373
 76.470    685.000    695.892    -10.892    507.394    692.575    507.394    510.652    507.394
 76.570    688.000    703.981    -15.981    507.413    700.809    507.413    510.529    507.413
 76.670    754.000    703.624     50.376    507.432    700.587    507.432    510.416    507.432
 76.770    708.000    694.811     13.189    507.449    691.903    507.449    510.311    507.449
 76.870    679.000    679.071     -0.071    507.466    676.284    507.466    510.214    507.466
 76.970    651.000    658.813     -7.813    507.481    656.138    507.481    510.124    507.481
 77.070    660.000    636.561     23.439    507.495    633.991    507.495    510.041    507.495
 77.170    633.000    614.463     18.537    507.508    611.990    507.508    509.963    507.508
 77.270    578.000    594.101    -16.101    507.519    591.718    507.519    509.890    507.519
 77.370    555.000    576.456    -21.456    507.530    574.156    507.530    509.821    507.530
 77.470    575.000    561.967     13.033    507.540    559.744    507.540    509.757    507.540
 77.570    542.000    550.628     -8.628    507.548    548.476    507.548    509.696    507.548
 77.670    570.458    542.129     28.329    507.555    540.043    507.555    509.638    507.555
 77.770    524.513    535.992    -11.478    507.561    533.967    507.561    509.584    507.561
 77.870    552.000    531.692     20.308    507.566    529.724    507.566    509.532    507.566
 77.970    493.000    528.741    -35.741    507.569    526.827    507.569    509.482    507.569
 78.070    511.000    526.735    -15.735    507.572    524.871    507.572    509.435    507.572
 78.170    563.034    525.368     37.666    507.573    523.551    507.573    509.389    507.573
 78.270    537.799    524.423     13.376    507.573    522.650    507.573    509.346    507.573
 78.370    486.000    523.760    -37.760    507.572    522.027    507.572    509.304    507.572
 78.470    537.817    523.291     14.526    507.569    521.597    507.569    509.263    507.569
 78.570    507.705    522.970    -15.265    507.566    521.311    507.566    509.224    507.566
 78.670    503.000    522.774    -19.774    507.561    521.148    507.561    509.186    507.561
 78.770    541.000    522.701     18.299    507.554    521.105    507.554    509.150    507.554
 78.870    466.000    522.748    -56.748    507.547    521.180    507.547    509.115    507.547
 78.970    495.000    522.924    -27.924    507.539    521.381    507.539    509.081    507.539
 79.070    485.000    523.310    -38.310    507.529    521.790    507.529    509.048    507.529
 79.170    509.000    523.908    -14.908    507.518    522.407    507.518    509.017    507.518
 79.270    548.011    524.746     23.265    507.505    523.262    507.505    508.988    507.505
 79.370    494.000    525.859    -31.859    507.492    524.389    507.492    508.960    507.492
 79.470    508.000    527.283    -19.283    507.477    525.824    507.477    508.933    507.477
 79.570    491.794    529.061    -37.267    507.460    527.610    507.460    508.908    507.460
 79.670    499.000    531.252    -32.252    507.443    529.806    507.443    508.885    507.443
 79.770    526.000    533.941     -7.941    507.424    532.499    507.424    508.863    507.424
 79.870    562.519    537.257     25.262    507.404    535.815    507.404    508.842    507.404
 79.970    524.000    541.385    -17.385    507.383    539.941    507.383    508.823    507.383
 80.070    527.588    546.590    -19.002    507.360    545.142    507.360    508.804    507.360
 80.170    580.849    553.229     27.620    507.336    551.777    507.336    508.785    507.336
 80.270    560.000    561.730     -1.730    507.311    560.274    507.311    508.766    507.311
 80.370    543.000    572.521    -29.521    507.285    571.062    507.285    508.745    507.285
 80.470    583.000    585.920     -2.920    507.257    584.460    507.257    508.722    507.257
 80.570    614.485    602.028     12.457    507.228    600.571    507.228    508.693    507.228
 80.670    624.238    620.639      3.599    507.197    619.190    507.197    508.660    507.197
 80.770    608.000    641.185    -33.185    507.165    639.751    507.165    508.619    507.165
 80.870    663.000    662.744      0.256    507.132    661.330    507.132    508.571    507.132
 80.970    699.000    684.106     14.894    507.098    682.718    507.098    508.517    507.098
 81.070    717.011    703.935     13.076    507.062    702.578    507.062    508.456    507.062
 81.170    726.000    720.957      5.043    507.025    719.635    507.025    508.391    507.025
 81.270    748.312    734.093     14.219    506.986    732.808    506.986    508.323    506.986
 81.370    772.010    742.545     29.465    506.946    741.296    506.946    508.252    506.946
 81.470    779.000    745.865     33.135    506.905    744.653    506.905    508.180    506.905
 81.570    726.000    743.992    -17.992    506.862    742.814    506.862    508.108    506.862
 81.670    776.581    737.199     39.381    506.819    736.053    506.819    508.037    506.819
 81.770    812.000    726.055     85.945    506.773    724.937    506.773    507.965    506.773
 81.870    720.000    711.445      8.555    506.727    710.350    506.727    507.895    506.727
 81.970    711.000    694.528     16.472    506.679    693.453    506.679    507.825    506.679
 82.070    704.625    676.528     28.098    506.629    675.470    506.629    507.756    506.629
 82.170    668.456    658.470      9.987    506.579    657.426    506.579    507.688    506.579
 82.270    618.000    641.034    -23.034    506.526    640.001    506.526    507.620    506.526
 82.370    600.836    624.587    -23.751    506.473    623.563    506.473    507.552    506.473
 82.470    616.000    609.324      6.676    506.418    608.306    506.418    507.485    506.418
 82.570    606.934    595.401     11.533    506.362    594.388    506.362    507.418    506.362
 82.670    559.000    583.001    -24.001    506.304    581.991    506.304    507.351    506.304
 82.770    561.000    572.315    -11.315    506.245    571.306    506.245    507.284    506.245
 82.870    577.000    563.508     13.492    506.185    562.499    506.185    507.217    506.185
 82.970    558.000    556.700      1.300    506.123    555.690    506.123    507.149    506.123
 83.070    586.000    551.953     34.047    506.060    550.941    506.060    507.081    506.060
 83.170    548.000    549.264     -1.264    505.995    548.248    505.995    507.012    505.995
 83.270    544.000    548.547     -4.547    505.929    547.528    505.929    506.942    505.929
 83.370    579.925    549.626     30.299    505.862    548.602    505.862    506.871    505.862
 83.470    588.000    552.217     35.783    505.793    551.188    505.793    506.800    505.793
 83.570    521.000    555.928    -34.928    505.723    554.895    505.723    506.728    505.723
 83.670    586.000    560.269     25.731    505.651    559.231    505.651    506.654    505.651
 83.770    577.000    564.666     12.334    505.578    563.623    505.578    506.580    505.578
 83.870    547.000    568.495    -21.495    505.504    567.449    505.504    506.505    505.504
 83.970    522.879    571.149    -48.270    505.428    570.101    505.428    506.429    505.428
 84.070    529.000    572.136    -43.136    505.351    571.088    505.351    506.352    505.351
 84.170    614.000    571.202     42.798    505.272    570.156    505.272    506.274    505.272
 84.270    508.000    568.399    -60.399    505.192    567.355    505.192    506.195    505.192
 84.370    562.520    564.045     -1.526    505.111    563.005    505.111    506.114    505.111
 84.470    568.000    558.620      9.380    505.028    557.583    505.028    506.033    505.028
 84.570    486.000    552.639    -66.639    504.944    551.605    504.944    505.951    504.944
 84.670    542.000    546.573     -4.573    504.858    545.542    504.858    505.868    504.858
 84.770    545.000    540.805      4.195    504.771    539.776    504.771    505.783    504.771
 84.870    547.000    535.611     11.389    504.683    534.583    504.683    505.698    504.683
 84.970    551.000    531.158     19.842    504.593    530.129    504.593    505.611    504.593
 85.070    539.000    527.514     11.486    504.502    526.483    504.502    505.524    504.502
 85.170    564.000    524.667     39.333    504.409    523.634    504.409    505.435    504.409
 85.270    543.000    522.553     20.447    504.315    521.517    504.315    505.345    504.315
 85.370    581.000    521.078     59.922    504.219    520.038    504.219    505.255    504.219
 85.470    523.000    520.148      2.852    504.122    519.103    504.122    505.163    504.122
 85.570    515.139    519.678     -4.539    504.024    518.627    504.024    505.070    504.024
 85.670    487.796    519.612    -31.816    503.924    518.554    503.924    504.976    503.924
 85.770    513.329    519.927     -6.598    503.823    518.863    503.823    504.881    503.823
 85.870    563.000    520.643     42.357    503.721    519.570    503.721    504.786    503.721
 85.970    493.811    521.818    -28.006    503.617    520.736    503.617    504.689    503.617
 86.070    538.000    523.551     14.449    503.511    522.460    503.511    504.591    503.511
 86.170    489.000    525.976    -36.976    503.405    524.874    503.405    504.492    503.405
 86.270    514.000    529.252    -15.252    503.296    528.137    503.296    504.392    503.296
 86.370    527.587    533.547     -5.959    503.187    532.418    503.187    504.292    503.187
 86.470    588.000    539.015     48.985    503.076    537.871    503.076    504.190    503.076
 86.570    584.000    545.772     38.228    502.963    544.609    502.963    504.088    502.963
 86.670    576.590    553.855     22.735    502.850    552.673    502.850    503.984    502.850
 86.770    542.846    563.195    -20.348    502.735    561.992    502.735    503.880    502.735
 86.870    589.000    573.579     15.421    502.618    572.354    502.618    503.775    502.618
 86.970    639.000    584.635     54.365    502.500    583.386    502.500    503.669    502.500
 87.070    623.000    595.817     27.183    502.381    594.544    502.381    503.562    502.381
 87.170    637.000    606.413     30.587    502.260    605.118    502.260    503.455    502.260
 87.270    614.611    615.589     -0.978    502.138    614.274    502.138    503.347    502.138
 87.370    630.007    622.479      7.529    502.015    621.145    502.015    503.238    502.015
 87.470    595.314    626.348    -31.034    501.890    624.999    501.890    503.128    501.890
 87.570    613.000    626.791    -13.791    501.764    625.431    501.764    503.018    501.764
 87.670    570.683    623.856    -53.172    501.636    622.487    501.636    502.907    501.636
 87.770    586.930    618.020    -31.090    501.507    616.645    501.507    502.795    501.507
 87.870    564.496    610.053    -45.558    501.377    608.672    501.377    502.684    501.377
 87.970    593.000    600.854     -7.854    501.245    599.467    501.245    502.571    501.245
 88.070    589.000    591.327     -2.327    501.112    589.932    501.112    502.459    501.112
 88.170    613.000    582.299     30.701    500.978    580.895    500.978    502.345    500.978
 88.270    606.913    574.468     32.445    500.842    573.052    500.842    502.232    500.842
 88.370    569.000    568.361      0.639    500.705    566.932    500.705    502.119    500.705
 88.470    575.000    564.321     10.679    500.566    562.876    500.566    502.005    500.566
 88.570    572.732    562.496     10.236    500.427    561.035    500.427    501.891    500.427
 88.670    571.000    562.851      8.149    500.285    561.370    500.285    501.778    500.285
 88.770    591.000    565.175     25.825    500.143    563.673    500.143    501.664    500.143
 88.870    569.000    569.106     -0.106    499.999    567.580    499.999    501.551    499.999
 88.970    570.000    574.150     -4.150    499.854    572.600    499.854    501.438    499.854
 89.070    603.000    579.711     23.289    499.708    578.134    499.708    501.326    499.708
 89.170    571.000    585.118    -14.118    499.560    583.511    499.560    501.214    499.560
 89.270    636.078    589.673     46.406    499.411    588.034    499.411    501.104    499.411
 89.370    563.000    592.716    -29.716    499.261    591.041    499.261    500.994    499.261
 89.470    564.943    593.739    -28.796    499.109    592.025    499.109    500.885    499.109
 89.570    626.000    592.526     33.474    498.956    590.767    498.956    500.778    498.956
 89.670    558.000    589.126    -31.126    498.802    587.317    498.802    500.673    498.802
 89.770    559.659    583.874    -24.215    498.646    582.009    498.646    500.570    498.646
 89.870    578.000    577.270      0.730    498.489    575.345    498.489    500.470    498.489
 89.970    566.346    569.868     -3.523    498.331    567.877    498.331    500.373    498.331
 90.070    608.030    562.191     45.840    498.172    560.127    498.172    500.279    498.172
 90.170    552.000    554.683     -2.683    498.011    552.542    498.011    500.190    498.011
 90.270    572.897    547.694     25.204    497.849    545.469    497.849    500.106    497.849
 90.370    502.059    541.466    -39.407    497.686    539.150    497.686    500.028    497.686
 90.470    573.284    536.141     37.143    497.522    533.726    497.522    499.958    497.522
 90.570    509.000    531.772    -22.772    497.356    529.248    497.356    499.896    497.356
 90.670    558.000    528.341     29.659    497.190    525.696    497.190    499.846    497.190
 90.770    494.430    525.779    -31.349    497.022    523.000    497.022    499.809    497.022
 90.870    540.252    523.993     16.259    496.852    521.064    496.852    499.787    496.852
 90.970    532.000    522.884      9.116    496.682    519.785    496.682    499.784    496.682
 91.070    483.000    522.362    -39.362    496.510    519.072    496.510    499.802    496.510
 91.170    483.421    522.366    -38.944    496.337    518.857    496.337    499.847    496.337
 91.270    518.000    522.862     -4.862    496.163    519.104    496.163    499.921    496.163
 91.370    531.967    523.861      8.106    495.988    519.818    495.988    500.029    495.988
 91.470    566.287    525.409     40.878    495.811    521.041    495.811    500.176    495.811
 91.570    517.158    527.598    -10.440    495.634    522.860    495.634    500.368    495.634
 91.670    558.359    530.558     27.800    495.455    525.399    495.455    500.608    495.455
 91.770    520.000    534.453    -14.453    495.275    528.817    495.275    500.903    495.275
 91.870    540.226    539.473      0.753    495.094    533.300    495.094    501.256    495.094
 91.970    584.963    545.822     39.140    494.912    539.049    494.912    501.672    494.912
 92.070    558.000    553.701      4.299    494.728    546.259    494.728    502.153    494.728
 92.170    585.043    563.284     21.759    494.544    555.105    494.544    502.701    494.544
 92.270    560.251    574.701    -14.451    494.358    565.716    494.358    503.316    494.358
 92.370    553.840    588.011    -34.171    494.172    578.152    494.172    503.997    494.172
 92.470    605.000    603.177      1.823    493.984    592.382    493.984    504.740    493.984
 92.570    586.000    620.061    -34.061    493.795    608.275    493.795    505.535    493.795
 92.670    660.000    638.387     21.613    493.605    625.567    493.605    506.372    493.605
 92.770    619.709    657.745    -38.036    493.414    643.866    493.414    507.234    493.414
 92.870    714.752    677.596     37.155    493.222    662.656    493.222    508.098    493.222
 92.970    716.000    697.298     18.702    493.029    681.324    493.029    508.934    493.029
 93.070    680.000    716.175    -36.175    492.835    699.232    492.835    509.706    492.835
 93.170    717.288    733.630    -16.343    492.640    715.825    492.640    510.372    492.640
 93.270    749.000    749.245     -0.245    492.444    730.727    492.444    510.888    492.444
 93.370    716.000    762.917    -46.917    492.247    743.878    492.247    511.213    492.247
 93.470    786.812    774.790     12.022    492.048    755.455    492.048    511.312    492.048
 93.570    808.932    785.081     23.851    491.849    765.695    491.849    511.166    491.849
 93.670    808.000    794.071     13.929    491.649    774.880    491.649    510.773    491.649
 93.770    844.364    802.040     42.323    491.448    783.275    491.448    510.149    491.448
 93.870    744.000    809.295    -65.295    491.246    791.153    491.246    509.327    491.246
 93.970    796.417    816.215    -19.798    491.043    798.853    491.043    508.346    491.043
 94.070    793.000    823.254    -30.254    490.839    806.786    490.839    507.252    490.839
 94.170    872.000    830.851     41.149    490.634    815.347    490.634    506.086    490.634
 94.270    810.343    839.281    -28.938    490.429    824.775    490.429    504.887    490.429
 94.370    825.000    848.474    -23.474    490.222    834.967    490.222    503.685    490.222
 94.470    863.384    857.956      5.428    490.014    845.426    490.014    502.504    490.014
 94.570    905.669    866.849     38.819    489.806    855.257    489.806    501.363    489.806
 94.670    852.000    873.955    -21.955    489.597    863.248    489.597    500.275    489.597
 94.770    899.303    877.904     21.399    489.387    868.021    489.387    499.249    489.387
 94.870    916.000    877.394     38.606    489.176    868.268    489.176    498.289    489.176
 94.970    937.000    871.473     65.527    488.964    863.034    488.964    497.398    488.964
 95.070    937.000    859.802     77.198    488.751    851.980    488.751    496.577    488.751
 95.170    880.000    842.772     37.228    488.538    835.495    488.538    495.823    488.538
 95.270    848.000    821.428     26.572    488.324    814.630    488.324    495.135    488.324
 95.370    815.000    797.269     17.731    488.109    790.886    488.109    494.508    488.109
 95.470    856.000    772.025     83.975    487.893    765.996    487.893    493.940    487.893
 95.570    792.000    747.477     44.523    487.676    741.747    487.676    493.424    487.676
 95.670    781.000    725.353     55.647    487.459    719.871    487.459    492.956    487.459
 95.770    703.000    707.254     -4.254    487.241    701.975    487.241    492.532    487.241
 95.870    714.000    694.621     19.379    487.023    689.504    487.023    492.147    487.023
 95.970    716.876    688.705     28.172    486.803    683.713    486.803    491.796    486.803
 96.070    647.107    690.560    -43.453    486.583    685.662    486.583    491.476    486.583
 96.170    672.000    701.036    -29.036    486.362    696.204    486.362    491.183    486.362
 96.270    676.000    720.765    -44.765    486.141    715.972    486.141    490.913    486.141
 96.370    800.699    750.133     50.566    485.919    745.358    485.919    490.666    485.919
 96.470    778.000    789.238    -11.238    485.697    784.460    485.697    490.437    485.697
 96.570    843.000    837.817      5.183    485.473    833.018    485.473    490.227    485.473
 96.670    864.000    895.176    -31.176    485.249    890.341    485.249    490.032    485.249
 96.770    945.000    960.112    -15.112    485.025    955.226    485.025    489.852    485.025
 96.870   1080.937   1030.853     50.085    484.800   1025.902    484.800    489.687    484.800
 96.970   1084.894   1105.023    -20.129    484.575   1099.995    484.575    489.537    484.575
 97.070   1219.000   1179.636     39.364    484.349   1174.519    484.349    489.400    484.349
 97.170   1205.000   1251.180    -46.180    484.122   1245.962    484.122    489.279    484.122
 97.270   1363.000   1315.719     47.281    483.895   1310.388    483.895    489.172    483.895
 97.370   1389.565   1369.146     20.420    483.668   1363.689    483.668    489.082    483.668
 97.470   1376.000   1407.666    -31.666    483.440   1402.070    483.440    489.010    483.440
 97.570   1410.000   1428.392    -18.392    483.211   1422.639    483.211    488.957    483.211
 97.670   1462.463   1429.911     32.552    482.982   1423.980    482.982    488.926    482.982
 97.770   1432.351   1412.571     19.779    482.753   1406.437    482.753    488.919    482.753
 97.870   1336.000   1378.339    -42.339    482.523   1371.970    482.523    488.941    482.523
 97.970   1360.134   1330.327     29.806    482.293   1323.689    482.293    488.996    482.293
 98.070   1253.000   1272.251    -19.251    482.063   1265.300    482.063    489.088    482.063
 98.170   1244.000   1207.976     36.024    481.832   1200.664    481.832    489.224    481.832
 98.270   1085.428   1141.233    -55.805    481.601   1133.504    481.601    489.413    481.601
 98.370   1108.000   1075.446     32.554    481.369   1067.236    481.369    489.661    481.369
 98.470    980.000   1013.645    -33.645    481.138   1004.880    481.138    489.979    481.138
 98.570    950.000    958.425     -8.425    480.906    949.022    480.906    490.379    480.906
 98.670    885.859    911.943    -26.084    480.673    901.804    480.673    490.873    480.673
 98.770    847.766    875.931    -28.164    480.441    864.948    480.441    491.475    480.441
 98.870    873.643    851.729     21.914    480.208    839.779    480.208    492.201    480.208
 98.970    812.000    840.321    -28.321    479.975    827.263    479.975    493.066    479.975
 99.070    817.619    842.397    -24.779    479.742    828.076    479.742    494.088    479.742
 99.170    867.000    858.364      8.636    479.509    842.608    479.509    495.283    479.509
 99.270    906.000    888.378     17.622    479.275    870.997    479.275    496.668    479.275
 99.370    934.371    932.334      2.037    479.042    913.125    479.042    498.259    479.042
 99.470   1004.000    989.831     14.169    478.808    968.576    478.808    500.070    478.808
 99.570   1086.000   1060.121     25.879    478.575   1036.592    478.575    502.113    478.575
 99.670   1128.000   1142.038    -14.038    478.341   1115.997    478.341    504.395    478.341
 99.770   1189.000   1233.931    -44.931    478.107   1205.138    478.107    506.922    478.107
 99.870   1399.229   1333.602     65.627    477.873   1301.820    477.873    509.690    477.873
 99.970   1416.000   1438.276    -22.276    477.639   1403.274    477.639    512.692    477.639
100.070   1493.000   1544.613    -51.613    477.405   1506.179    477.405    515.911    477.405
100.170   1706.945   1648.826     58.120    477.171   1606.771    477.171    519.321    477.171
100.270   1703.290   1746.898    -43.608    476.938   1701.075    476.938    522.883    476.938
100.370   1798.801   1834.912    -36.111    476.704   1785.222    476.704    526.545    476.704
100.470   1984.000   1909.385     74.615    476.470   1855.798    476.470    530.238    476.470
100.570   1966.000   1967.494     -1.494    476.237   1910.064    476.237    533.875    476.237
100.670   2007.000   2007.123     -0.123    476.003   1946.010    476.003    537.351    476.003
100.770   1983.000   2026.815    -43.815    475.770   1962.300    475.770    540.541    475.770
100.870   2165.000   2025.761    139.239    475.537   1958.262    475.537    543.310    475.537
100.970   2040.000   2003.967     36.033    475.304   1934.039    475.304    545.519    475.304
101.070   1934.000   1962.550    -28.550    475.072   1890.874    475.072    547.040    475.072
101.170   1823.062   1903.933    -80.871    474.839   1831.294    474.839    547.772    474.839
101.270   1826.628   1831.723     -5.095    474.607   1758.961    474.607    547.656    474.607
101.370   1782.565   1750.357     32.208    474.376   1678.322    474.376    546.687    474.376
101.470   1679.000   1664.537     14.463    474.144   1594.033    474.144    544.910    474.144
101.570   1608.000   1578.695     29.305    473.913   1510.435    473.913    542.417    473.913
101.670   1462.000   1496.612    -34.612    473.682   1431.187    473.682    539.331    473.682
101.770   1408.000   1421.197    -13.197    473.452   1359.063    473.452    535.790    473.452
101.870   1356.000   1354.406      1.594    473.222   1295.882    473.222    531.931    473.222
101.970   1262.000   1297.236    -35.236    472.993   1242.514    472.993    527.882    472.993
102.070   1247.000   1249.773     -2.773    472.764   1198.935    472.764    523.753    472.764
102.170   1208.000   1211.284     -3.284    472.535   1164.322    472.535    519.637    472.535
102.270   1140.449   1180.339    -39.891    472.307   1137.170    472.307    515.606    472.307
102.370   1129.473   1154.974    -25.501    472.080   1115.460    472.080    511.716    472.080
102.470   1186.881   1132.899     53.982    471.853   1096.860    471.853    508.009    471.853
102.570   1163.069   1111.765     51.304    471.626   1078.993    471.626    504.514    471.626
102.670   1132.615   1089.460     43.155    471.401   1059.724    471.401    501.250    471.401
102.770   1057.000   1064.382     -7.382    471.176   1037.443    471.176    498.228    471.176
102.870    981.000   1035.624    -54.624    470.951   1011.237    470.951    495.450    470.951
102.970    977.512   1002.998    -25.486    470.727    980.921    470.727    492.914    470.727
103.070    896.000    966.920    -70.920    470.504    946.918    470.504    490.613    470.504
103.170    953.907    928.219     25.688    470.282    910.067    470.282    488.536    470.282
103.270    882.739    887.937     -5.198    470.061    871.425    470.061    486.669    470.061
103.370    883.000    847.174     35.826    469.840    832.106    469.840    484.997    469.840
103.470    826.841    806.979     19.862    469.620    793.177    469.620    483.504    469.620
103.570    717.057    768.287    -51.230    469.401    755.590    469.401    482.172    469.401
103.670    753.000    731.874     21.126    469.183    720.139    469.183    480.984    469.183
103.770    746.000    698.336     47.664    468.965    687.435    468.965    479.925    468.965
103.870    658.000    668.078    -10.078    468.749    657.899    468.749    478.978    468.749
103.970    650.000    641.317      8.683    468.534    631.763    468.534    478.130    468.534
104.070    611.000    618.102     -7.102    468.319    609.090    468.319    477.367    468.319
104.170    568.716    598.337    -29.621    468.106    589.795    468.106    476.677    468.106
104.270    623.927    581.815     42.113    467.894    573.681    467.894    476.051    467.894
104.370    559.555    568.249     -8.694    467.682    560.471    467.682    475.480    467.682
104.470    586.000    557.313     28.687    467.472    549.845    467.472    474.955    467.472
104.570    583.000    548.662     34.338    467.263    541.468    467.263    474.470    467.263
104.670    555.000    541.966     13.034    467.055    535.011    467.055    474.019    467.055
104.770    527.000    536.921     -9.921    466.848    530.178    466.848    473.599    466.848
104.870    587.000    533.265     53.735    466.643    526.708    466.643    473.204    466.643
104.970    507.863    530.782    -22.918    466.439    524.391    466.439    472.832    466.439
105.070    561.000    529.308     31.692    466.236    523.063    466.236    472.481    466.236
105.170    570.000    528.726     41.274    466.034    522.611    466.034    472.147    466.034
105.270    546.845    528.966     17.878    465.833    522.967    465.833    471.830    465.833
105.370    495.374    530.001    -34.627    465.634    524.104    465.634    471.527    465.634
105.470    516.000    531.837    -15.837    465.437    526.029    465.437    471.238    465.437
105.570    594.000    534.512     59.488    465.241    528.782    465.241    470.962    465.241
105.670    543.000    538.085      4.915    465.046    532.424    465.046    470.697    465.046
105.770    527.000    542.630    -15.630    464.853    537.027    464.853    470.444    464.853
105.870    554.000    548.219      5.781    464.661    542.664    464.661    470.201    464.661
105.970    524.000    554.909    -30.909    464.471    549.394    464.471    469.968    464.471
106.070    608.000    562.732     45.268    464.282    557.249    464.282    469.744    464.282
106.170    545.000    571.688    -26.688    464.095    566.230    464.095    469.530    464.095
106.270    595.000    581.722     13.278    463.910    576.280    463.910    469.325    463.910
106.370    640.572    592.722     47.850    463.726    587.290    463.726    469.129    463.726
106.470    636.642    604.523     32.120    463.544    599.093    463.544    468.941    463.544
106.570    612.000    616.895     -4.895    463.364    611.462    463.364    468.762    463.364
106.670    611.000    629.553    -18.553    463.186    624.110    463.186    468.591    463.186
106.770    596.070    642.167    -46.097    463.009    636.709    463.009    468.429    463.009
106.870    633.000    654.371    -21.371    462.835    648.892    462.835    468.274    462.835
106.970    644.417    665.768    -21.352    462.662    660.262    462.662    468.128    462.662
107.070    722.521    675.972     46.550    462.491    670.433    462.491    467.990    462.491
107.170    695.000    684.638     10.362    462.322    679.063    462.322    467.860    462.322
107.270    739.522    691.517     48.005    462.155    685.899    462.155    467.738    462.155
107.370    730.326    696.491     33.835    461.990    690.824    461.990    467.624    461.990
107.470    671.000    699.606    -28.606    461.827    693.885    461.827    467.519    461.827
107.570    749.313    701.070     48.244    461.666    695.289    461.666    467.422    461.666
107.670    649.000    701.216    -52.216    461.507    695.369    461.507    467.334    461.507
107.770    734.859    700.455     34.404    461.350    694.535    461.350    467.255    461.350
107.870    699.000    699.208     -0.208    461.196    693.209    461.196    467.184    461.196
107.970    654.034    697.865    -43.830    461.044    691.779    461.044    467.123    461.044
108.070    699.460    696.737      2.722    460.894    690.558    460.894    467.071    460.894
108.170    639.000    696.040    -57.040    460.746    689.759    460.746    467.029    460.746
108.270    683.000    695.873    -12.873    460.601    689.483    460.601    466.997    460.601
108.370    687.000    696.221     -9.221    460.458    689.713    460.458    466.976    460.458
108.470    688.000    696.947     -8.947    460.318    690.314    460.318    466.965    460.318
108.570    650.498    697.810    -47.311    460.180    691.042    460.180    466.965    460.180
108.670    693.000    698.475     -5.475    460.044    691.564    460.044    466.977    460.044
108.770    726.000    698.551     27.449    459.911    691.485    459.911    467.001    459.911
108.870    658.000    697.628    -39.628    459.780    690.398    459.780    467.038    459.780
108.970    671.000    695.337    -24.337    459.652    687.932    459.652    467.088    459.652
109.070    632.000    691.407    -59.407    459.527    683.815    459.527    467.152    459.527
109.170    708.000    685.705     22.295    459.405    677.912    459.405    467.231    459.405
109.270    741.000    678.255     62.745    459.285    670.248    459.285    467.326    459.285
109.370    654.000    669.225    -15.225    459.167    660.989    459.167    467.438    459.167
109.470    677.000    658.892     18.108    459.053    650.411    459.053    467.568    459.053
109.570    702.000    647.598     54.402    458.942    638.853    458.942    467.718    458.942
109.670    647.000    635.705     11.295    458.833    626.680    458.833    467.889    458.833
109.770    674.000    623.574     50.426    458.727    614.247    458.727    468.083    458.727
109.870    656.000    611.537     44.463    458.624    601.886    458.624    468.302    458.624
109.970    625.000    599.890     25.110    458.524    589.889    458.524    468.549    458.524
110.070    559.000    588.882    -29.882    458.428    578.504    458.428    468.827    458.428
110.170    599.000    578.714     20.286    458.334    567.928    458.334    469.138    458.334
110.270    569.000    569.538     -0.538    458.243    558.308    458.243    469.488    458.243
110.370    572.000    561.452     10.548    458.156    549.740    458.156    469.881    458.156
110.470    560.000    554.513      5.487    458.071    542.273    458.071    470.321    458.071
110.570    586.000    548.731     37.269    457.990    535.914    457.990    470.815    457.990
110.670    539.000    544.085     -5.085    457.913    530.633    457.913    471.371    457.913
110.770    568.000    540.524     27.476    457.838    526.371    457.838    471.995    457.838
110.870    545.000    537.978      7.022    457.767    523.051    457.767    472.696    457.767
110.970    523.287    536.366    -13.079    457.699    520.580    457.699    473.486    457.699
111.070    558.000    535.600     22.400    457.635    518.859    457.635    474.375    457.635
111.170    579.277    535.592     43.686    457.574    517.788    457.574    475.376    457.574
111.270    580.000    536.259     43.741    457.517    517.271    457.517    476.502    457.517
111.370    582.000    537.527     44.473    457.463    517.217    457.463    477.769    457.463
111.470    511.000    539.330    -28.330    457.413    517.546    457.413    479.192    457.413
111.570    543.000    541.615      1.385    457.366    518.185    457.366    480.790    457.366
111.670    596.000    544.340     51.660    457.324    519.076    457.324    482.581    457.324
111.770    551.144    547.474      3.670    457.285    520.168    457.285    484.583    457.285
111.870    591.489    551.000     40.489    457.249    521.425    457.249    486.817    457.249
111.970    559.000    554.910      4.090    457.218    522.818    457.218    489.302    457.218
112.070    538.000    559.198    -21.198    457.191    524.322    457.191    492.058    457.191
112.170    551.000    563.862    -12.862    457.167    525.917    457.167    495.104    457.167
112.270    554.000    568.999    -14.999    457.147    527.679    457.147    498.459    457.147
112.370    533.590    574.607    -41.018    457.132    529.592    457.132    502.138    457.132
112.470    576.000    580.725     -4.725    457.120    531.680    457.120    506.156    457.120
112.570    580.000    587.401     -7.401    457.113    533.981    457.113    510.523    457.113
112.670    560.000    594.693    -34.693    457.109    536.544    457.109    515.248    457.109
112.770    597.000    602.667     -5.667    457.110    539.434    457.110    520.333    457.110
112.870    597.077    611.402    -14.325    457.115    542.731    457.115    525.776    457.115
112.970    592.000    620.997    -28.997    457.125    546.541    457.125    531.568    457.125
113.070    626.000    631.571     -5.571    457.139    551.002    457.139    537.695    457.139
113.170    604.000    643.279    -39.279    457.157    556.289    457.157    544.132    457.157
113.270    661.377    656.320      5.056    457.179    562.636    457.179    550.847    457.179
113.370    680.000    670.950      9.050    457.207    570.341    457.207    557.797    457.207
113.470    657.597    687.498    -29.900    457.238    579.789    457.238    564.925    457.238
113.570    654.000    706.386    -52.386    457.274    591.471    457.274    572.163    457.274
113.670    673.119    728.148    -55.030    457.315    606.007    457.315    579.426    457.315
113.770    733.000    753.455    -20.455    457.361    624.165    457.361    586.614    457.361
113.870    748.000    783.133    -35.133    457.411    646.892    457.411    593.608    457.411
113.970    802.125    818.190    -16.065    457.466    675.326    457.466    600.276    457.466
114.070    853.306    859.833     -6.527    457.525    710.823    457.525    606.471    457.525
114.170    923.000    909.486     13.514    457.590    754.962    457.590    612.036    457.590
114.270    985.948    968.795     17.152    457.660    809.548    457.660    616.813    457.660
114.370    996.000   1039.628    -43.628    457.734    876.596    457.734    620.653    457.734
114.470   1054.000   1124.055    -70.055    457.814    958.308    457.814    623.426    457.814
114.570   1245.000   1224.310     20.690    457.898   1057.017    457.898    625.031    457.898
114.670   1378.244   1342.729     35.515    457.988   1175.118    457.988    625.411    457.988
114.770   1521.512   1481.660     39.852    458.083   1314.970    458.083    624.554    458.083
114.870   1636.618   1643.345     -6.727    458.183   1478.779    458.183    622.496    458.183
114.970   1905.000   1829.778     75.222    458.289   1668.458    458.289    619.320    458.289
115.070   2160.000   2042.539    117.461    458.400   1885.472    458.400    615.142    458.400
115.170   2384.000   2282.619    101.381    458.516   2130.670    458.516    610.104    458.516
115.270   2452.756   2550.247    -97.491    458.637   2404.127    458.637    604.362    458.637
115.370   2930.111   2844.720     85.392    458.764   2704.982    458.764    598.074    458.764
115.470   3224.000   3164.264     59.736    458.897   3031.313    458.897    591.392    458.897
115.570   3578.031   3505.931     72.099    459.035   3380.032    459.035    584.458    459.035
115.670   3849.000   3865.532    -16.532    459.179   3746.825    459.179    577.395    459.179
115.770   4249.000   4237.622     11.378    459.329   4126.143    459.329    570.314    459.329
115.870   4445.000   4615.543   -170.543    459.484   4511.236    459.484    563.305    459.484
115.970   4908.000   4991.516    -83.516    459.645   4894.250    459.645    556.446    459.645
116.070   5322.000   5356.791    -34.791    459.812   5266.373    459.812    549.798    459.812
116.170   5659.000   5701.866    -42.866    459.985   5618.057    459.985    543.410    459.985
116.270   6154.000   6016.787    137.213    460.164   5939.309    460.164    537.321    460.164
116.370   6348.000   6291.545     56.455    460.349   6220.092    460.349    531.557    460.349
116.470   6621.000   6516.594    104.406    460.540   6450.838    460.540    526.138    460.540
116.570   6695.000   6683.483     11.517    460.737   6623.082    460.737    521.076    460.737
116.670   6785.000   6785.549     -0.549    460.940   6730.154    460.940    516.376    460.940
116.770   6910.000   6818.575     91.425    461.149   6767.831    461.149    512.037    461.149
116.870   6847.000   6781.241     65.759    461.365   6734.795    461.365    508.054    461.365
116.970   6807.551   6675.281    132.270    461.587   6632.785    461.587    504.418    461.587
117.070   6504.000   6505.264     -1.264    461.816   6466.379    461.816    501.115    461.816
117.170   6258.906   6278.092    -19.186    462.051   6242.492    462.051    498.131    462.051
117.270   5766.000   6002.327   -236.327    462.293   5969.702    462.293    495.448    462.293
117.370   5683.000   5687.500     -4.500    462.541   5657.557    462.541    493.048    462.541
117.470   5438.819   5343.497     95.322    462.796   5315.965    462.796    490.912    462.796
117.570   5066.326   4980.068     86.258    463.057   4954.693    463.057    489.020    463.057
117.670   4554.000   4606.446    -52.446    463.326   4583.000    463.326    487.351    463.326
117.770   4203.000   4231.078    -28.078    463.601   4209.351    463.601    485.887    463.601
117.870   3969.000   3861.423    107.577    463.883   3841.225    463.883    484.610    463.883
117.970   3497.352   3503.822     -6.470    464.172   3484.986    464.172    483.500    464.172
118.070   3173.522   3163.432     10.090    464.468   3145.808    464.468    482.543    464.468
118.170   2918.000   2844.211     73.789    464.771   2827.665    464.771    481.721    464.771
118.270   2484.000   2548.956    -64.956    465.081   2533.374    465.081    481.021    465.081
118.370   2299.838   2279.389     20.449    465.398   2264.668    465.398    480.431    465.398
118.470   2020.000   2036.264    -16.264    465.723   2022.316    465.723    479.937    465.723
118.570   1873.000   1819.499     53.501    466.055   1806.248    466.055    479.530    466.055
118.670   1697.867   1628.323     69.544    466.394   1615.703    466.394    479.200    466.394
118.770   1451.000   1461.422    -10.422    466.741   1449.375    466.741    478.940    466.741
118.870   1274.000   1317.082    -43.082    467.095   1305.556    467.095    478.741    467.095
118.970   1153.111   1193.325    -40.214    467.457   1182.278    467.457    478.598    467.457
119.070   1112.237   1088.037     24.200    467.826   1077.432    467.826    478.505    467.826
119.170    945.191    999.073    -53.882    468.203    988.874    468.203    478.458    468.203
119.270    939.554    924.336     15.218    468.588    914.513    468.588    478.453    468.588
119.370    901.238    861.826     39.412    468.980    852.352    468.980    478.485    468.980
119.470    842.000    809.785     32.215    469.380    800.635    469.380    478.553    469.380
119.570    754.000    766.572    -12.572    469.789    757.723    469.789    478.654    469.789
119.670    725.591    730.754     -5.163    470.205    722.186    470.205    478.785    470.205
119.770    717.000    701.103     15.897    470.629    692.796    470.629    478.945    470.629
119.870    709.000    676.574     32.426    471.062    668.509    471.062    479.133    471.062
119.970    634.000    656.295    -22.295    471.502    648.456    471.502    479.348    471.502
120.070    631.000    639.546     -8.546    471.951    631.915    471.951    479.588    471.951
120.170    582.565    625.736    -43.171    472.408    618.298    472.408    479.852    472.408
120.270    586.207    614.388    -28.181    472.874    607.127    472.874    480.140    472.874
120.370    610.802    605.116      5.686    473.348    598.018    473.348    480.452    473.348
120.470    566.000    597.614    -31.614    473.830    590.664    473.830    480.786    473.830
120.570    615.173    591.635     23.538    474.321    584.821    474.321    481.142    474.321
120.670    623.000    586.985     36.015    474.821    580.293    474.821    481.521    474.821
120.770    543.000    583.508    -40.508    475.329    576.925    475.329    481.921    475.329
120.870    559.000    581.080    -22.080    475.847    574.592    475.847    482.343    475.847
120.970    577.545    579.598     -2.054    476.373    573.196    476.373    482.785    476.373
121.070    546.000    578.981    -32.981    476.908    572.651    476.908    483.248    476.908
121.170    586.000    579.157      6.843    477.451    572.888    477.451    483.732    477.451
121.270    627.051    580.062     46.989    478.004    573.844    478.004    484.235    478.004
121.370    567.000    581.638    -14.638    478.566    575.461    478.566    484.758    478.566
121.470    605.000    583.827     21.173    479.137    577.680    479.137    485.301    479.137
121.570    572.673    586.568    -13.895    479.718    580.443    479.718    485.862    479.718
121.670    588.000    589.800     -1.800    480.308    583.686    480.308    486.442    480.308
121.770    592.000    593.452     -1.452    480.907    587.343    480.907    487.039    480.907
121.870    574.000    597.451    -23.451    481.515    591.338    481.515    487.653    481.515
121.970    643.945    601.713     42.232    482.134    595.592    482.134    488.283    482.134
122.070    569.962    606.151    -36.189    482.761    600.015    482.761    488.928    482.761
122.170    620.000    610.668      9.332    483.399    604.512    483.399    489.588    483.399
122.270    580.894    615.161    -34.267    484.046    608.982    484.046    490.260    484.046
122.370    653.000    619.522     33.478    484.703    613.319    484.703    490.944    484.703
122.470    598.960    623.642    -24.683    485.369    617.415    485.369    491.639    485.369
122.570    596.000    627.411    -31.411    486.046    621.160    486.046    492.341    486.046
122.670    599.682    630.724    -31.042    486.733    624.452    486.733    493.051    486.733
122.770    626.000    633.483     -7.483    487.430    627.197    487.430    493.765    487.430
122.870    663.000    635.609     27.391    488.137    629.314    488.137    494.482    488.137
122.970    639.910    637.040      2.870    488.854    630.745    488.854    495.200    488.854
123.070    662.000    637.738     24.262    489.582    631.454    489.582    495.917    489.582
123.170    627.000    637.691    -10.691    490.319    631.431    490.319    496.632    490.319
123.270    672.000    636.913     35.087    491.068    630.691    491.068    497.343    491.068
123.370    591.135    635.440    -44.306    491.827    629.269    491.827    498.050    491.827
123.470    656.515    633.326     23.189    492.596    627.219    492.596    498.754    492.596
123.570    655.000    630.635     24.365    493.377    624.609    493.377    499.452    493.377
123.670    607.000    627.446    -20.446    494.167    621.514    494.167    500.147    494.167
123.770    656.000    623.838     32.162    494.969    618.013    494.969    500.839    494.969
123.870    588.000    619.894    -31.894    495.782    614.189    495.782    501.529    495.782
123.970    625.901    615.695     10.206    496.606    610.121    496.606    502.219    496.606
124.070    610.000    611.321     -1.321    497.440    605.887    497.440    502.911    497.440
124.170    571.028    606.845    -35.817    498.286    601.557    498.286    503.607    498.286
124.270    653.000    602.334     50.666    499.143    597.199    499.143    504.308    499.143
124.370    579.000    597.848    -18.848    500.012    592.869    500.012    505.017    500.012
124.470    620.569    593.437     27.132    500.891    588.618    500.891    505.735    500.891
124.570    596.205    589.145      7.060    501.782    584.486    501.782    506.463    501.782
124.670    622.000    585.007     36.993    502.685    580.508    502.685    507.203    502.685
124.770    554.000    581.049    -27.049    503.599    576.709    503.599    507.956    503.599
124.870    554.000    577.292    -23.292    504.525    573.109    504.525    508.723    504.525
124.970    616.000    573.751     42.249    505.463    569.721    505.463    509.505    505.463
