neutron_powder_diffraction_0078
R_wp: 4.477
Temperature (K): 783.479
Counts: 83630.00
Wavelength (Ã…): 2.52098
COMMENTS
Test file for demonstrating the .xyy file format in Reel1.0
END OF HEADER
   tth       Y_obs     Y_calc      Y_res    Background    Phase_1_Nuc    Phase_1_Mag    Phase_2_Nuc    Phase_2_Mag
  9.970    612.000    592.115     19.885    590.999    592.114    590.999    590.999    590.999
 10.070    631.000    592.965     38.035    591.758    592.965    591.758    591.758    591.758
 10.170    624.992    593.813     31.180    592.503    593.812    592.503    592.503    592.503
 10.270    614.929    594.660     20.269    593.233    594.659    593.233    593.233    593.233
 10.370    626.000    595.512     30.488    593.950    595.511    593.950    593.950    593.950
 10.470    613.518    596.372     17.147    594.653    596.371    594.653    594.653    594.653
 10.570    580.000    597.263    -17.263    595.342    597.262    595.342    595.342    595.342
 10.670    621.000    598.303     22.697    596.017    598.302    596.017    596.017    596.017
 10.770    669.000    599.241     69.759    596.678    599.240    596.678    596.678    596.678
 10.870    709.000    600.206    108.794    597.327    600.204    597.327    597.327    597.327
 10.970    611.496    601.229     10.267    597.961    601.227    597.961    597.961    597.961
 11.070    599.031    602.332     -3.301    598.583    602.330    598.583    598.583    598.583
 11.170    590.093    603.550    -13.457    599.191    603.548    599.191    599.191    599.191
 11.270    655.000    604.932     50.068    599.786    604.930    599.786    599.786    599.786
 11.370    614.663    606.561      8.102    600.368    606.558    600.368    600.368    600.368
 11.470    632.000    608.600     23.400    600.937    608.596    600.937    600.937    600.937
 11.570    676.000    611.433     64.567    601.494    611.428    601.494    601.494    601.494
 11.670    562.053    615.981    -53.928    602.037    615.973    602.037    602.037    602.037
 11.770    577.112    624.157    -47.045    602.569    624.146    602.569    602.569    602.569
 11.870    695.000    639.005     55.995    603.087    638.986    603.087    603.087    603.087
 11.970    618.326    663.526    -45.200    603.594    663.493    603.594    603.594    603.594
 12.070    684.073    697.562    -13.489    604.087    697.510    604.087    604.087    604.087
 12.170    740.000    733.057      6.943    604.569    732.986    604.569    604.569    604.569
 12.270    758.000    751.617      6.383    605.039    751.537    605.039    605.039    605.039
 12.370    755.478    739.352     16.126    605.496    739.278    605.496    605.496    605.496
 12.470    682.906    706.721    -23.815    605.942    706.665    605.942    605.942    605.942
 12.570    659.000    672.569    -13.569    606.376    672.533    606.376    606.376    606.376
 12.670    673.561    646.944     26.617    606.798    646.922    606.798    606.798    606.798
 12.770    582.000    631.257    -49.257    607.209    631.244    607.209    607.209    607.209
 12.870    676.052    622.901     53.151    607.608    622.893    607.608    607.608    607.608
 12.970    526.000    618.697    -92.697    607.996    618.691    607.996    607.996    607.996
 13.070    615.000    616.520     -1.520    608.372    616.516    608.372    608.372    608.372
 13.170    585.000    615.285    -30.285    608.737    615.282    608.737    608.737    608.737
 13.270    623.000    614.524      8.476    609.091    614.521    609.091    609.091    609.091
 13.370    604.885    614.038     -9.152    609.434    614.035    609.434    609.434    609.434
 13.470    596.000    613.733    -17.733    609.765    613.731    609.765    609.765    609.765
 13.570    624.000    613.557     10.443    610.086    613.555    610.086    610.086    610.086
 13.670    666.036    613.468     52.568    610.397    613.466    610.397    610.397    610.397
 13.770    652.000    613.443     38.557    610.696    613.441    610.696    610.696    610.696
 13.870    609.000    613.465     -4.465    610.985    613.464    610.985    610.985    610.985
 13.970    596.000    613.521    -17.521    611.263    613.521    611.263    611.263    611.263
 14.070    588.000    613.604    -25.604    611.531    613.603    611.531    611.531    611.531
 14.170    598.000    613.704    -15.704    611.789    613.703    611.789    611.789    611.789
 14.270    570.000    613.818    -43.818    612.036    613.817    612.036    612.036    612.036
 14.370    643.000    613.940     29.060    612.274    613.939    612.274    612.274    612.274
 14.470    589.582    614.073    -24.491    612.501    614.072    612.501    612.501    612.501
 14.570    567.000    614.254    -47.254    612.718    614.254    612.718    612.718    612.718
 14.670    585.000    614.420    -29.420    612.925    614.420    612.925    612.925    612.925
 14.770    659.167    614.555     44.611    613.123    614.555    613.123    613.123    613.123
 14.870    629.000    614.686     14.314    613.311    614.685    613.311    613.311    613.311
 14.970    574.000    614.813    -40.813    613.489    614.813    613.489    613.489    613.489
 15.070    559.646    614.937    -55.290    613.657    614.937    613.657    613.657    613.657
 15.170    548.000    615.058    -67.058    613.817    615.058    613.817    613.817    613.817
 15.270    560.000    615.173    -55.173    613.966    615.173    613.966    613.966    613.966
 15.370    599.000    615.286    -16.286    614.107    615.286    614.107    614.107    614.107
 15.470    557.000    615.394    -58.394    614.238    615.394    614.238    614.238    614.238
 15.570    638.288    615.495     22.794    614.361    615.494    614.361    614.361    614.361
 15.670    615.000    615.602     -0.602    614.474    615.602    614.474    614.474    614.474
 15.770    615.000    615.736     -0.736    614.578    615.736    614.578    614.578    614.578
 15.870    629.000    615.836     13.164    614.674    615.836    614.674    614.674    614.674
 15.970    583.000    615.909    -32.909    614.760    615.909    614.760    614.760    614.760
 16.070    596.000    615.974    -19.974    614.838    615.973    614.838    614.838    614.838
 16.170    618.000    616.031      1.969    614.907    616.031    614.907    614.907    614.907
 16.270    602.000    616.081    -14.081    614.968    616.081    614.968    614.968    614.968
 16.370    568.000    616.127    -48.127    615.021    616.126    615.021    615.021    615.021
 16.470    595.000    616.181    -21.181    615.064    616.181    615.064    615.064    615.064
 16.570    630.000    616.222     13.778    615.100    616.222    615.100    615.100    615.100
 16.670    576.000    616.248    -40.248    615.128    616.248    615.128    615.128    615.128
 16.770    623.172    616.274      6.898    615.147    616.273    615.147    615.147    615.147
 16.870    588.000    616.282    -28.282    615.158    616.282    615.158    615.158    615.158
 16.970    578.000    616.283    -38.283    615.162    616.283    615.162    615.162    615.162
 17.070    669.288    616.276     53.012    615.157    616.276    615.157    615.157    615.157
 17.170    613.000    616.263     -3.263    615.145    616.263    615.145    615.145    615.145
 17.270    595.896    616.244    -20.348    615.125    616.243    615.125    615.125    615.125
 17.370    625.000    616.230      8.770    615.097    616.230    615.097    615.097    615.097
 17.470    617.333    616.217      1.115    615.061    616.217    615.061    615.061    615.061
 17.570    604.000    616.206    -12.206    615.019    616.206    615.019    615.019    615.019
 17.670    585.000    616.172    -31.172    614.968    616.172    614.968    614.968    614.968
 17.770    599.000    616.118    -17.118    614.911    616.118    614.911    614.911    614.911
 17.870    625.772    616.059      9.713    614.846    616.059    614.846    614.846    614.846
 17.970    624.127    616.020      8.107    614.774    616.020    614.774    614.774    614.774
 18.070    609.000    616.006     -7.006    614.694    616.006    614.694    614.694    614.694
 18.170    577.000    615.949    -38.949    614.608    615.948    614.608    614.608    614.608
 18.270    600.345    615.871    -15.526    614.515    615.871    614.515    614.515    614.515
 18.370    549.000    615.781    -66.781    614.415    615.780    614.415    614.415    614.415
 18.470    617.000    615.698      1.302    614.308    615.698    614.308    614.308    614.308
 18.570    615.157    615.614     -0.457    614.194    615.614    614.194    614.194    614.194
 18.670    601.312    615.539    -14.227    614.074    615.539    614.074    614.074    614.074
 18.770    624.000    615.426      8.574    613.947    615.426    613.947    613.947    613.947
 18.870    561.000    615.303    -54.303    613.813    615.303    613.813    613.813    613.813
 18.970    619.353    615.174      4.179    613.673    615.174    613.673    613.673    613.673
 19.070    655.000    615.039     39.961    613.527    615.039    613.527    613.527    613.527
 19.170    644.144    614.898     29.247    613.374    614.898    613.374    613.374    613.374
 19.270    633.967    614.756     19.211    613.215    614.756    613.215    613.215    613.215
 19.370    567.000    614.612    -47.612    613.050    614.612    613.050    613.050    613.050
 19.470    597.000    614.459    -17.459    612.879    614.459    612.879    612.879    612.879
 19.570    561.000    614.297    -53.297    612.702    614.297    612.702    612.702    612.702
 19.670    606.000    614.135     -8.135    612.518    614.135    612.518    612.518    612.518
 19.770    553.000    613.962    -60.962    612.329    613.962    612.329    612.329    612.329
 19.870    596.000    613.783    -17.783    612.134    613.783    612.134    612.134    612.134
 19.970    573.000    613.599    -40.599    611.933    613.599    611.933    611.933    611.933
 20.070    590.000    613.412    -23.412    611.727    613.412    611.727    611.727    611.727
 20.170    574.000    613.218    -39.218    611.515    613.218    611.515    611.515    611.515
 20.270    598.000    613.020    -15.020    611.297    613.020    611.297    611.297    611.297
 20.370    649.274    612.818     36.456    611.074    612.818    611.074    611.074    611.074
 20.470    589.000    612.611    -23.611    610.846    612.611    610.846    610.846    610.846
 20.570    639.183    612.400     26.783    610.612    612.400    610.612    610.612    610.612
 20.670    621.000    612.184      8.816    610.373    612.184    610.373    610.373    610.373
 20.770    578.000    611.965    -33.965    610.128    611.965    610.128    610.128    610.128
 20.870    588.000    611.742    -23.742    609.879    611.742    609.879    609.879    609.879
 20.970    639.696    611.514     28.182    609.624    611.514    609.624    609.624    609.624
 21.070    578.000    611.282    -33.282    609.364    611.282    609.364    609.364    609.364
 21.170    564.000    611.047    -47.047    609.100    611.048    609.100    609.100    609.100
 21.270    585.000    610.809    -25.809    608.830    610.809    608.830    608.830    608.830
 21.370    606.000    610.568     -4.568    608.556    610.568    608.556    608.556    608.556
 21.470    593.000    610.324    -17.324    608.277    610.324    608.277    608.277    608.277
 21.570    574.000    610.077    -36.077    607.993    610.078    607.993    607.993    607.993
 21.670    589.000    609.829    -20.829    607.704    609.829    607.704    607.704    607.704
 21.770    619.000    609.578      9.422    607.411    609.578    607.411    607.411    607.411
 21.870    561.313    609.327    -48.014    607.114    609.327    607.114    607.114    607.114
 21.970    570.000    609.074    -39.074    606.811    609.074    606.811    606.811    606.811
 22.070    640.334    608.820     31.514    606.505    608.820    606.505    606.505    606.505
 22.170    595.000    608.566    -13.566    606.194    608.566    606.194    606.194    606.194
 22.270    624.939    608.312     16.628    605.879    608.312    605.879    605.879    605.879
 22.370    598.570    608.059     -9.489    605.560    608.060    605.560    605.560    605.560
 22.470    555.618    607.809    -52.190    605.236    607.809    605.236    605.236    605.236
 22.570    657.690    607.560     50.130    604.909    607.561    604.909    604.909    604.909
 22.670    622.000    607.318     14.682    604.577    607.318    604.577    604.577    604.577
 22.770    608.000    607.079      0.921    604.241    607.080    604.241    604.241    604.241
 22.870    607.000    606.848      0.152    603.902    606.848    603.902    603.902    603.902
 22.970    641.000    606.626     34.374    603.558    606.626    603.558    603.558    603.558
 23.070    578.000    606.416    -28.416    603.211    606.416    603.211    603.211    603.211
 23.170    593.425    606.221    -12.796    602.860    606.222    602.860    602.860    602.860
 23.270    600.000    606.046     -6.046    602.506    606.047    602.506    602.506    602.506
 23.370    596.000    605.897     -9.897    602.147    605.898    602.147    602.147    602.147
 23.470    638.528    605.782     32.745    601.785    605.783    601.785    601.785    601.785
 23.570    556.285    605.712    -49.428    601.420    605.714    601.420    601.420    601.420
 23.670    584.000    605.699    -21.699    601.051    605.700    601.051    601.051    601.051
 23.770    622.000    605.768     16.232    600.679    605.770    600.679    600.679    600.679
 23.870    646.236    605.943     40.293    600.303    605.946    600.303    600.303    600.303
 23.970    553.158    606.274    -53.116    599.924    606.276    599.924    599.924    599.924
 24.070    633.000    606.856     26.144    599.542    606.859    599.542    599.542    599.542
 24.170    593.000    607.906    -14.906    599.157    607.910    599.157    599.157    599.157
 24.270    647.000    609.917     37.083    598.768    609.923    598.768    598.768    598.768
 24.370    618.511    613.912      4.600    598.377    613.921    598.377    598.377    598.377
 24.470    668.419    621.554     46.865    597.982    621.568    597.982    597.982    597.982
 24.570    634.000    634.700     -0.700    597.585    634.724    597.585    597.585    597.585
 24.670    716.000    653.933     62.067    597.184    653.971    597.184    597.184    597.184
 24.770    696.100    676.113     19.987    596.781    676.168    596.781    596.781    596.781
 24.870    656.805    692.372    -35.567    596.375    692.439    596.375    596.375    596.375
 24.970    726.000    692.524     33.476    595.966    692.592    595.966    595.966    595.966
 25.070    678.000    676.207      1.793    595.554    676.263    595.554    595.554    595.554
 25.170    668.744    653.422     15.322    595.140    653.461    595.140    595.140    595.140
 25.270    665.000    633.323     31.677    594.723    633.348    594.723    594.723    594.723
 25.370    580.000    619.290    -39.290    594.303    619.305    594.303    594.303    594.303
 25.470    677.000    610.844     66.156    593.881    610.853    593.881    593.881    593.881
 25.570    597.627    606.147     -8.519    593.457    606.152    593.457    593.457    593.457
 25.670    604.000    603.506      0.494    593.030    603.510    593.030    593.030    593.030
 25.770    570.154    601.875    -31.721    592.601    601.878    592.601    592.601    592.601
 25.870    649.966    600.743     49.224    592.169    600.745    592.169    592.169    592.169
 25.970    601.000    599.892      1.108    591.735    599.894    591.735    591.735    591.735
 26.070    626.000    599.228     26.772    591.299    599.229    591.299    591.299    591.299
 26.170    609.859    598.705     11.154    590.861    598.706    590.861    590.861    590.861
 26.270    642.319    598.299     44.020    590.421    598.300    590.421    590.421    590.421
 26.370    624.000    597.997     26.003    589.979    597.998    589.979    589.979    589.979
 26.470    634.533    597.794     36.739    589.534    597.794    589.534    589.534    589.534
 26.570    562.366    597.690    -35.324    589.088    597.690    589.088    589.088    589.088
 26.670    608.240    597.693     10.547    588.640    597.693    588.640    588.640    588.640
 26.770    613.000    597.816     15.184    588.189    597.815    588.189    588.189    588.189
 26.870    641.982    598.078     43.903    587.737    598.078    587.737    587.737    587.737
 26.970    639.000    598.511     40.489    587.284    598.510    587.284    587.284    587.284
 27.070    674.000    599.154     74.846    586.828    599.153    586.828    586.828    586.828
 27.170    667.000    600.069     66.931    586.371    600.068    586.371    586.371    586.371
 27.270    656.000    601.342     54.658    585.912    601.340    585.912    585.912    585.912
 27.370    695.000    603.106     91.894    585.451    603.103    585.451    585.451    585.451
 27.470    598.461    605.599     -7.138    584.989    605.595    584.989    584.989    584.989
 27.570    565.097    609.328    -44.231    584.526    609.323    584.526    584.526    584.526
 27.670    674.392    615.523     58.869    584.061    615.516    584.061    584.061    584.061
 27.770    682.000    627.031     54.969    583.594    627.019    583.594    583.594    583.594
 27.870    708.000    649.351     58.649    583.126    649.331    583.126    583.126    583.126
 27.970    726.000    690.284     35.716    582.657    690.250    582.657    582.657    582.657
 28.070    814.000    755.894     58.106    582.187    755.843    582.187    582.187    582.187
 28.170    825.016    842.113    -17.097    581.715    842.045    581.715    581.715    581.715
 28.270    957.000    924.983     32.017    581.242    924.908    581.242    581.242    581.242
 28.370    971.000    961.853      9.147    580.768    961.788    580.768    580.768    580.768
 28.470    967.000    930.295     36.705    580.293    930.246    580.293    580.293    580.293
 28.570    857.000    864.381     -7.381    579.816    864.347    579.816    579.816    579.816
 28.670    793.000    811.831    -18.831    579.339    811.804    579.339    579.339    579.339
 28.770    801.000    796.477      4.523    578.860    796.453    578.860    578.860    578.860
 28.870    889.000    816.515     72.485    578.381    816.493    578.381    578.381    578.381
 28.970    800.533    849.278    -48.745    577.900    849.263    577.900    577.900    577.900
 29.070    973.000    859.794    113.206    577.419    859.790    577.419    577.419    577.419
 29.170    937.000    827.757    109.243    576.937    827.762    576.937    576.937    576.937
 29.270    756.985    769.049    -12.064    576.454    769.056    576.454    576.454    576.454
 29.370    672.428    709.815    -37.387    575.971    709.820    575.971    575.971    575.971
 29.470    685.522    663.838     21.685    575.486    663.841    575.486    575.486    575.486
 29.570    712.000    633.511     78.489    575.001    633.512    575.001    575.001    575.001
 29.670    668.000    615.544     52.456    574.515    615.543    574.515    574.515    574.515
 29.770    643.000    605.349     37.651    574.029    605.348    574.029    574.029    574.029
 29.870    697.000    599.374     97.626    573.542    599.372    573.542    573.542    573.542
 29.970    693.000    595.577     97.423    573.054    595.574    573.054    573.054    573.054
 30.070    674.000    593.000     81.000    572.566    592.997    572.566    572.566    572.566
 30.170    655.000    591.266     63.734    572.078    591.263    572.078    572.078    572.078
 30.270    532.355    590.308    -57.953    571.589    590.304    571.589    571.589    571.589
 30.370    667.000    590.313     76.687    571.100    590.308    571.100    571.100    571.100
 30.470    550.918    591.778    -40.860    570.610    591.771    570.610    570.610    570.610
 30.570    630.000    595.537     34.463    570.120    595.526    570.120    570.120    570.120
 30.670    630.000    602.558     27.442    569.629    602.541    569.629    569.629    569.629
 30.770    689.000    613.373     75.627    569.139    613.348    569.139    569.139    569.139
 30.870    655.000    627.109     27.891    568.648    627.074    568.648    568.648    568.648
 30.970    703.000    640.207     62.793    568.157    640.163    568.157    568.157    568.157
 31.070    701.835    646.241     55.595    567.666    646.194    567.666    567.666    567.666
 31.170    689.000    640.862     48.138    567.175    640.821    567.175    567.175    567.175
 31.270    684.899    627.303     57.596    566.683    627.272    566.683    566.683    566.683
 31.370    665.000    612.002     52.998    566.192    611.980    566.192    566.192    566.192
 31.470    614.029    599.080     14.949    565.701    599.066    565.701    565.701    565.701
 31.570    623.000    589.833     33.167    565.209    589.824    565.209    565.209    565.209
 31.670    610.000    583.908     26.092    564.718    583.902    564.718    564.718    564.718
 31.770    547.398    580.343    -32.945    564.227    580.339    564.227    564.227    564.227
 31.870    593.000    578.215     14.785    563.735    578.212    563.735    563.735    563.735
 31.970    592.000    576.893     15.107    563.244    576.890    563.244    563.244    563.244
 32.070    596.321    576.033     20.288    562.754    576.030    562.754    562.754    562.754
 32.170    580.625    575.473      5.152    562.263    575.470    562.263    562.263    562.263
 32.270    586.000    575.146     10.854    561.773    575.143    561.773    561.773    561.773
 32.370    572.000    575.028     -3.028    561.283    575.026    561.283    561.283    561.283
 32.470    597.000    575.119     21.881    560.793    575.117    560.793    560.793    560.793
 32.570    576.000    575.434      0.566    560.303    575.432    560.303    560.303    560.303
 32.670    583.000    576.004      6.996    559.814    576.002    559.814    559.814    559.814
 32.770    607.000    576.876     30.124    559.325    576.874    559.325    559.325    559.325
 32.870    577.000    578.120     -1.120    558.837    578.118    558.837    558.837    558.837
 32.970    619.000    579.841     39.159    558.349    579.839    558.349    558.349    558.349
 33.070    640.000    582.199     57.801    557.862    582.196    557.862    557.862    557.862
 33.170    565.269    585.474    -20.205    557.375    585.471    557.375    557.375    557.375
 33.270    600.976    590.205     10.771    556.889    590.201    556.889    556.889    556.889
 33.370    608.000    597.488     10.512    556.403    597.483    556.403    556.403    556.403
 33.470    618.612    609.476      9.137    555.918    609.469    555.918    555.918    555.918
 33.570    610.715    629.912    -19.197    555.433    629.901    555.433    555.433    555.433
 33.670    716.113    664.196     51.917    554.949    664.180    554.949    554.949    554.949
 33.770    693.000    718.154    -25.154    554.466    718.130    554.466    554.466    554.466
 33.870    756.000    794.904    -38.904    553.984    794.870    553.984    553.984    553.984
 33.970    883.000    889.690     -6.690    553.502    889.645    553.502    553.502    553.502
 34.070    927.000    983.033    -56.033    553.021    982.984    553.021    553.021    553.021
 34.170   1040.000   1038.977      1.023    552.541   1038.934    552.541    552.541    552.541
 34.270   1068.726   1027.185     41.541    552.061   1027.157    552.061    552.061    552.061
 34.370    931.000    954.821    -23.821    551.583    954.809    551.583    551.583    551.583
 34.470    907.897    857.366     50.531    551.105    857.364    551.105    551.105    551.105
 34.570    797.735    766.034     31.701    550.628    766.036    550.628    550.628    550.628
 34.670    661.000    695.179    -34.179    550.152    695.181    550.152    550.152    550.152
 34.770    653.446    646.613      6.833    549.677    646.614    549.677    549.677    549.677
 34.870    587.525    616.014    -28.489    549.203    616.014    549.203    549.203    549.203
 34.970    625.000    597.496     27.504    548.730    597.495    548.730    548.730    548.730
 35.070    584.000    586.126     -2.126    548.258    586.125    548.258    548.258    548.258
 35.170    554.000    578.686    -24.686    547.787    578.685    547.787    547.787    547.787
 35.270    585.000    573.392     11.608    547.317    573.391    547.317    547.317    547.317
 35.370    539.156    569.350    -30.194    546.848    569.349    546.848    546.848    546.848
 35.470    539.417    566.113    -26.696    546.380    566.112    546.380    546.380    546.380
 35.570    599.513    563.442     36.071    545.914    563.441    545.914    545.914    545.914
 35.670    573.000    561.190     11.810    545.448    561.190    545.448    545.448    545.448
 35.770    533.535    559.261    -25.726    544.984    559.261    544.984    544.984    544.984
 35.870    554.000    557.585     -3.585    544.521    557.585    544.521    544.521    544.521
 35.970    486.000    556.110    -70.110    544.059    556.110    544.059    544.059    544.059
 36.070    562.846    554.799      8.048    543.598    554.799    543.598    543.598    543.598
 36.170    561.899    553.621      8.277    543.139    553.621    543.139    543.139    543.139
 36.270    565.000    552.556     12.444    542.681    552.555    542.681    542.681    542.681
 36.370    511.400    551.585    -40.185    542.224    551.585    542.224    542.224    542.224
 36.470    498.000    550.697    -52.697    541.769    550.697    541.769    541.769    541.769
 36.570    573.000    549.883     23.117    541.315    549.883    541.315    541.315    541.315
 36.670    531.000    549.136    -18.136    540.862    549.136    540.862    540.862    540.862
 36.770    507.000    548.455    -41.455    540.410    548.455    540.410    540.410    540.410
 36.870    508.800    547.842    -39.042    539.960    547.843    539.960    539.960    539.960
 36.970    596.877    547.312     49.565    539.512    547.312    539.512    539.512    539.512
 37.070    491.000    546.901    -55.901    539.065    546.901    539.065    539.065    539.065
 37.170    563.345    546.691     16.655    538.619    546.691    538.619    538.619    538.619
 37.270    502.774    546.835    -44.061    538.175    546.836    538.175    538.175    538.175
 37.370    575.000    547.565     27.435    537.732    547.566    537.732    537.732    537.732
 37.470    593.253    549.128     44.125    537.291    549.129    537.291    537.291    537.291
 37.570    505.000    551.641    -46.641    536.852    551.643    536.852    536.852    536.852
 37.670    549.000    554.863     -5.863    536.414    554.866    536.414    536.414    536.414
 37.770    559.000    557.944      1.056    535.977    557.949    535.977    535.977    535.977
 37.870    559.044    559.456     -0.412    535.543    559.463    535.543    535.543    535.543
 37.970    501.000    558.400    -57.400    535.109    558.409    535.109    535.109    535.109
 38.070    572.739    555.301     17.438    534.678    555.311    534.678    534.678    534.678
 38.170    522.000    551.437    -29.437    534.248    551.447    534.248    534.248    534.248
 38.270    597.196    547.728     49.468    533.820    547.738    533.820    533.820    533.820
 38.370    524.000    544.618    -20.618    533.393    544.626    533.393    533.393    533.393
 38.470    500.351    542.233    -41.882    532.968    542.239    532.968    532.968    532.968
 38.570    542.014    540.490      1.524    532.545    540.494    532.545    532.545    532.545
 38.670    490.000    539.218    -49.218    532.123    539.221    532.123    532.123    532.123
 38.770    485.000    538.258    -53.258    531.704    538.260    531.704    531.704    531.704
 38.870    478.000    537.495    -59.495    531.286    537.496    531.286    531.286    531.286
 38.970    515.000    536.854    -21.854    530.870    536.855    530.870    530.870    530.870
 39.070    552.000    536.291     15.709    530.455    536.292    530.455    530.455    530.455
 39.170    503.000    535.777    -32.777    530.043    535.778    530.043    530.043    530.043
 39.270    498.738    535.299    -36.561    529.632    535.299    529.632    529.632    529.632
 39.370    565.241    534.846     30.395    529.223    534.847    529.223    529.223    529.223
 39.470    540.000    534.414      5.586    528.816    534.415    528.816    528.816    528.816
 39.570    509.000    534.000    -25.000    528.411    534.001    528.411    528.411    528.411
 39.670    512.000    533.602    -21.602    528.008    533.603    528.008    528.008    528.008
 39.770    576.172    533.219     42.953    527.606    533.220    527.606    527.606    527.606
 39.870    502.550    532.850    -30.300    527.207    532.851    527.207    527.207    527.207
 39.970    481.000    532.495    -51.495    526.809    532.496    526.809    526.809    526.809
 40.070    516.000    532.154    -16.154    526.414    532.155    526.414    526.414    526.414
 40.170    529.000    531.828     -2.828    526.020    531.828    526.020    526.020    526.020
 40.270    537.057    531.516      5.541    525.628    531.517    525.628    525.628    525.628
 40.370    556.427    531.220     25.207    525.238    531.221    525.238    525.238    525.238
 40.470    538.398    530.941      7.456    524.851    530.942    524.851    524.851    524.851
 40.570    555.483    530.682     24.802    524.465    530.682    524.465    524.465    524.465
 40.670    514.000    530.443    -16.443    524.081    530.444    524.081    524.081    524.081
 40.770    483.094    530.228    -47.134    523.699    530.229    523.699    523.699    523.699
 40.870    591.000    530.041     60.959    523.320    530.042    523.320    523.320    523.320
 40.970    516.000    529.885    -13.885    522.942    529.886    522.942    522.942    522.942
 41.070    546.242    529.767     16.475    522.566    529.768    522.566    522.566    522.566
 41.170    498.000    529.694    -31.694    522.193    529.695    522.193    522.193    522.193
 41.270    494.000    529.674    -35.674    521.821    529.676    521.821    521.821    521.821
 41.370    567.524    529.722     37.802    521.452    529.724    521.452    521.452    521.452
 41.470    524.000    529.853     -5.853    521.085    529.855    521.085    521.085    521.085
 41.570    514.000    530.093    -16.093    520.720    530.096    520.720    520.720    520.720
 41.670    523.000    530.481     -7.481    520.357    530.483    520.357    520.357    520.357
 41.770    497.000    531.084    -34.084    519.996    531.087    519.996    519.996    519.996
 41.870    498.573    532.033    -33.460    519.637    532.037    519.637    519.637    519.637
 41.970    515.000    533.577    -18.577    519.280    533.581    519.280    519.280    519.280
 42.070    509.000    536.165    -27.165    518.926    536.171    518.926    518.926    518.926
 42.170    490.000    540.525    -50.525    518.574    540.533    518.574    518.574    518.574
 42.270    543.000    547.646     -4.646    518.223    547.658    518.223    518.223    518.223
 42.370    534.354    558.593    -24.239    517.875    558.610    517.875    517.875    517.875
 42.470    558.000    574.055    -16.055    517.530    574.080    517.530    517.530    517.530
 42.570    590.697    593.676     -2.979    517.186    593.711    517.186    517.186    517.186
 42.670    564.000    615.183    -51.183    516.845    615.229    516.845    516.845    516.845
 42.770    602.000    633.509    -31.509    516.506    633.566    516.506    516.506    516.506
 42.870    660.778    641.579     19.199    516.169    641.642    516.169    516.169    516.169
 42.970    571.000    635.264    -64.264    515.834    635.327    515.834    515.834    515.834
 43.070    612.000    617.710     -5.710    515.502    617.765    515.502    515.502    515.502
 43.170    605.216    595.858      9.358    515.172    595.902    515.172    515.172    515.172
 43.270    577.000    575.202      1.798    514.844    575.234    514.844    514.844    514.844
 43.370    529.000    558.447    -29.447    514.518    558.470    514.518    514.518    514.518
 43.470    525.747    546.226    -20.479    514.195    546.242    514.195    514.195    514.195
 43.570    502.904    537.985    -35.081    513.873    537.996    513.873    513.873    513.873
 43.670    524.000    532.694     -8.694    513.555    532.702    513.555    513.555    513.555
 43.770    532.000    529.333      2.667    513.238    529.338    513.238    513.238    513.238
 43.870    480.172    527.127    -46.955    512.924    527.131    512.924    512.924    512.924
 43.970    525.846    525.584      0.262    512.612    525.587    512.612    512.612    512.612
 44.070    505.000    524.424    -19.424    512.302    524.427    512.302    512.302    512.302
 44.170    505.000    523.503    -18.503    511.995    523.506    511.995    511.995    511.995
 44.270    484.000    522.743    -38.743    511.690    522.745    511.690    511.690    511.690
 44.370    570.623    522.102     48.521    511.387    522.104    511.387    511.387    511.387
 44.470    524.139    521.554      2.586    511.087    521.555    511.087    511.087    511.087
 44.570    535.633    521.080     14.554    510.789    521.081    510.789    510.789    510.789
 44.670    525.000    520.668      4.332    510.493    520.669    510.493    510.493    510.493
 44.770    500.000    520.309    -20.309    510.200    520.310    510.200    510.200    510.200
 44.870    502.229    519.996    -17.768    509.909    519.997    509.909    509.909    509.909
 44.970    537.000    519.724     17.276    509.620    519.725    509.620    509.620    509.620
 45.070    515.000    519.488     -4.488    509.334    519.489    509.334    509.334    509.334
 45.170    510.000    519.286     -9.286    509.050    519.287    509.050    509.050    509.050
 45.270    537.000    519.117     17.883    508.768    519.117    508.768    508.768    508.768
 45.370    522.000    518.978      3.022    508.489    518.978    508.489    508.489    508.489
 45.470    479.029    518.869    -39.840    508.212    518.869    508.212    508.212    508.212
 45.570    559.000    518.791     40.209    507.938    518.791    507.938    507.938    507.938
 45.670    477.599    518.743    -41.144    507.666    518.743    507.666    507.666    507.666
 45.770    521.071    518.728      2.343    507.396    518.728    507.396    507.396    507.396
 45.870    546.000    518.746     27.254    507.128    518.746    507.128    507.128    507.128
 45.970    549.000    518.800     30.200    506.864    518.800    506.864    506.864    506.864
 46.070    484.940    518.893    -33.954    506.601    518.893    506.601    506.601    506.601
 46.170    521.000    519.029      1.971    506.341    519.029    506.341    506.341    506.341
 46.270    502.000    519.213    -17.213    506.083    519.213    506.083    506.083    506.083
 46.370    552.782    519.451     33.331    505.827    519.451    505.827    505.827    505.827
 46.470    520.000    519.752      0.248    505.574    519.751    505.574    505.574    505.574
 46.570    472.418    520.125    -47.707    505.324    520.123    505.324    505.324    505.324
 46.670    544.235    520.585     23.650    505.076    520.583    505.076    505.076    505.076
 46.770    574.790    521.153     53.636    504.830    521.152    504.830    504.830    504.830
 46.870    526.000    521.866      4.134    504.586    521.863    504.586    504.586    504.586
 46.970    524.066    522.783      1.282    504.345    522.781    504.345    504.345    504.345
 47.070    549.401    524.020     25.382    504.107    524.016    504.107    504.107    504.107
 47.170    532.000    525.774      6.226    503.870    525.770    503.870    503.870    503.870
 47.270    579.000    528.372     50.628    503.636    528.366    503.636    503.636    503.636
 47.370    572.374    532.283     40.091    503.405    532.274    503.405    503.405    503.405
 47.470    573.000    538.076     34.924    503.176    538.063    503.176    503.176    503.176
 47.570    508.302    546.281    -37.978    502.949    546.262    502.949    502.949    502.949
 47.670    577.000    557.136     19.864    502.725    557.111    502.725    502.725    502.725
 47.770    601.000    570.266     30.734    502.503    570.231    502.503    502.503    502.503
 47.870    601.209    584.280     16.928    502.284    584.236    502.284    502.284    502.284
 47.970    633.000    596.454     36.546    502.067    596.402    502.067    502.067    502.067
 48.070    614.000    603.199     10.801    501.852    603.145    501.852    501.852    501.852
 48.170    610.000    602.260      7.740    501.640    602.209    501.640    501.640    501.640
 48.270    594.000    594.736     -0.736    501.430    594.692    501.430    501.430    501.430
 48.370    589.806    584.024      5.782    501.222    583.990    501.222    501.222    501.222
 48.470    587.656    573.376     14.280    501.017    573.350    501.017    501.017    501.017
 48.570    581.000    564.799     16.201    500.815    564.780    500.815    500.815    500.815
 48.670    549.000    559.151    -10.151    500.614    559.137    500.614    500.614    500.614
 48.770    585.000    556.532     28.468    500.416    556.522    500.416    500.416    500.416
 48.870    584.652    556.653     27.999    500.221    556.646    500.221    500.221    500.221
 48.970    564.000    559.145      4.855    500.028    559.139    500.028    500.028    500.028
 49.070    521.000    563.790    -42.790    499.837    563.785    499.837    499.837    499.837
 49.170    522.351    570.721    -48.369    499.649    570.716    499.649    499.649    499.649
 49.270    567.000    580.693    -13.693    499.463    580.687    499.463    499.463    499.463
 49.370    607.013    595.614     11.399    499.279    595.607    499.279    499.279    499.279
 49.470    622.000    619.497      2.503    499.098    619.487    499.098    499.098    499.098
 49.570    601.961    659.785    -57.824    498.919    659.767    498.919    498.919    498.919
 49.670    651.000    728.446    -77.446    498.743    728.416    498.743    498.743    498.743
 49.770    810.000    841.512    -31.512    498.569    841.463    498.569    498.569    498.569
 49.870    912.000   1015.391   -103.391    498.397   1015.318    498.397    498.397    498.397
 49.970   1266.000   1259.192      6.808    498.227   1259.092    498.227    498.227    498.227
 50.070   1544.000   1564.352    -20.352    498.060   1564.232    498.060    498.060    498.060
 50.170   1902.000   1894.335      7.665    497.896   1894.214    497.896    497.896    497.896
 50.270   2164.000   2178.714    -14.714    497.733   2178.626    497.733    497.733    497.733
 50.370   2353.000   2326.377     26.623    497.573   2326.360    497.573    497.573    497.573
 50.470   2324.000   2277.738     46.262    497.416   2277.810    497.416    497.416    497.416
 50.570   2124.000   2055.565     68.435    497.260   2055.704    497.260    497.260    497.260
 50.670   1705.526   1742.976    -37.450    497.107   1743.141    497.107    497.107    497.107
 50.770   1355.000   1424.215    -69.215    496.957   1424.373    496.957    496.957    496.957
 50.870   1096.000   1153.476    -57.476    496.808   1153.608    496.808    496.808    496.808
 50.970    895.849    952.871    -57.023    496.662    952.974    496.662    496.662    496.662
 51.070    793.000    820.738    -27.738    496.519    820.817    496.519    496.519    496.519
 51.170    737.000    742.068     -5.068    496.377    742.130    496.377    496.377    496.377
 51.270    673.000    697.678    -24.678    496.238    697.731    496.238    496.238    496.238
 51.370    635.000    670.470    -35.470    496.101    670.516    496.101    496.101    496.101
 51.470    661.000    649.204     11.796    495.967    649.244    495.967    495.967    495.967
 51.570    615.000    629.444    -14.444    495.835    629.478    495.835    495.835    495.835
 51.670    565.000    611.045    -46.045    495.705    611.071    495.705    495.705    495.705
 51.770    545.948    595.052    -49.104    495.577    595.072    495.577    495.577    495.577
 51.870    576.000    582.247     -6.247    495.452    582.262    495.452    495.452    495.452
 51.970    594.000    572.836     21.164    495.329    572.847    495.329    495.329    495.329
 52.070    528.558    566.546    -37.988    495.208    566.554    495.208    495.208    495.208
 52.170    613.410    562.864     50.546    495.089    562.870    495.089    495.089    495.089
 52.270    591.119    561.272     29.848    494.973    561.277    494.973    494.973    494.973
 52.370    565.000    561.422      3.578    494.859    561.426    494.859    494.859    494.859
 52.470    614.646    563.242     51.404    494.747    563.245    494.747    494.747    494.747
 52.570    588.000    567.026     20.974    494.638    567.029    494.638    494.638    494.638
 52.670    557.000    573.572    -16.572    494.530    573.575    494.530    494.530    494.530
 52.770    666.000    584.381     81.619    494.425    584.384    494.425    494.425    494.425
 52.870    592.000    601.862     -9.862    494.322    601.863    494.322    494.322    494.322
 52.970    585.713    629.378    -43.665    494.221    629.379    494.221    494.221    494.221
 53.070    698.107    670.928     27.179    494.123    670.929    494.123    494.123    494.123
 53.170    791.486    730.242     61.243    494.026    730.243    494.026    494.026    494.026
 53.270    772.000    809.278    -37.278    493.932    809.280    493.932    493.932    493.932
 53.370    917.226    906.280     10.947    493.840    906.285    493.840    493.840    493.840
 53.470   1029.000   1013.614     15.386    493.750   1013.626    493.750    493.750    493.750
 53.570   1113.138   1115.732     -2.594    493.663   1115.753    493.663    493.663    493.663
 53.670   1155.287   1189.329    -34.041    493.577   1189.361    493.577    493.577    493.577
 53.770   1223.000   1210.942     12.058    493.494   1210.986    493.494    493.494    493.494
 53.870   1163.000   1172.320     -9.320    493.412   1172.370    493.412    493.412    493.412
 53.970   1081.000   1087.711     -6.711    493.333   1087.760    493.333    493.333    493.333
 54.070    933.000    982.295    -49.295    493.256    982.338    493.256    493.256    493.256
 54.170    836.730    877.562    -40.832    493.181    877.598    493.181    493.181    493.181
 54.270    815.000    786.446     28.554    493.108    786.474    493.108    493.108    493.108
 54.370    739.000    714.500     24.500    493.038    714.520    493.038    493.038    493.038
 54.470    609.516    662.064    -52.548    492.969    662.079    492.969    492.969    492.969
 54.570    633.000    626.418      6.582    492.903    626.429    492.903    492.903    492.903
 54.670    584.000    603.602    -19.602    492.838    603.609    492.838    492.838    492.838
 54.770    566.000    589.738    -23.738    492.776    589.744    492.776    492.776    492.776
 54.870    590.000    581.745      8.255    492.715    581.750    492.715    492.715    492.715
 54.970    544.000    577.509    -33.509    492.657    577.513    492.657    492.657    492.657
 55.070    607.000    575.744     31.256    492.601    575.748    492.601    492.601    492.601
 55.170    631.699    575.755     55.944    492.547    575.759    492.547    492.547    492.547
 55.270    577.000    577.214     -0.214    492.494    577.217    492.494    492.494    492.494
 55.370    573.000    580.017     -7.017    492.444    580.020    492.444    492.444    492.444
 55.470    622.638    584.213     38.425    492.396    584.216    492.396    492.396    492.396
 55.570    611.000    589.998     21.002    492.350    590.001    492.350    492.350    492.350
 55.670    616.000    597.770     18.230    492.305    597.773    492.305    492.305    492.305
 55.770    688.000    608.286     79.714    492.263    608.288    492.263    492.263    492.263
 55.870    631.000    622.940      8.060    492.223    622.942    492.223    492.223    492.223
 55.970    642.000    644.207     -2.207    492.184    644.207    492.184    492.184    492.184
 56.070    701.000    676.212     24.788    492.148    676.210    492.148    492.148    492.148
 56.170    693.000    725.276    -32.276    492.113    725.271    492.113    492.113    492.113
 56.270    770.000    800.076    -30.076    492.081    800.066    492.081    492.081    492.081
 56.370    970.463    910.939     59.523    492.050    910.923    492.050    492.050    492.050
 56.470    913.000   1067.826   -154.826    492.021   1067.804    492.021    492.021    492.021
 56.570   1162.000   1276.917   -114.917    491.994   1276.891    491.994    491.994    491.994
 56.670   1416.000   1536.196   -120.196    491.969   1536.174    491.969    491.969    491.969
 56.770   1762.000   1830.629    -68.629    491.946   1830.620    491.946    491.946    491.946
 56.870   2074.804   2127.476    -52.672    491.925   2127.498    491.925    491.925    491.925
 56.970   2427.378   2374.371     53.007    491.905   2374.443    491.905    491.905    491.905
 57.070   2536.000   2509.321     26.679    491.887   2509.459    491.887    491.887    491.887
 57.170   2609.000   2490.394    118.606    491.872   2490.596    491.872    491.872    491.872
 57.270   2321.000   2324.682     -3.682    491.858   2324.924    491.858    491.858    491.858
 57.370   2093.000   2062.579     30.421    491.845   2062.827    491.845    491.845    491.845
 57.470   1723.925   1765.293    -41.367    491.835   1765.520    491.835    491.835    491.835
 57.570   1431.777   1480.470    -48.692    491.826   1480.661    491.826    491.826    491.826
 57.670   1223.000   1236.265    -13.265    491.819   1236.415    491.819    491.819    491.819
 57.770   1115.185   1044.356     70.829    491.814   1044.467    491.814    491.814    491.814
 57.870    868.895    904.793    -35.897    491.811    904.870    491.811    491.811    491.811
 57.970    822.610    810.891     11.719    491.809    810.941    491.809    491.809    491.809
 58.070    755.000    753.582      1.418    491.809    753.612    491.809    491.809    491.809
 58.170    795.000    724.566     70.434    491.811    724.581    491.811    491.811    491.811
 58.270    777.081    717.922     59.158    491.815    717.925    491.815    491.815    491.815
 58.370    765.000    730.301     34.699    491.820    730.293    491.820    491.820    491.820
 58.470    782.747    760.137     22.610    491.827    760.119    491.827    491.827    491.827
 58.570    791.000    806.366    -15.366    491.835    806.341    491.835    491.835    491.835
 58.670    797.242    866.997    -69.755    491.845    866.966    491.845    491.845    491.845
 58.770    900.702    937.816    -37.114    491.857    937.784    491.857    491.857    491.857
 58.870   1020.000   1011.982      8.018    491.871   1011.955    491.871    491.871    491.871
 58.970   1032.763   1081.565    -48.802    491.886   1081.546    491.886    491.886    491.886
 59.070   1185.000   1140.185     44.815    491.902   1140.178    491.902    491.902    491.902
 59.170   1243.356   1183.372     59.984    491.920   1183.379    491.920    491.920    491.920
 59.270   1167.911   1206.824    -38.912    491.940   1206.843    491.940    491.940    491.940
 59.370   1278.611   1207.885     70.726    491.962   1207.911    491.962    491.962    491.962
 59.470   1225.128   1190.296     34.831    491.985   1190.319    491.985    491.985    491.985
 59.570   1165.000   1164.915      0.085    492.009   1164.921    492.009    492.009    492.009
 59.670   1115.778   1144.375    -28.596    492.035   1144.354    492.035    492.035    492.035
 59.770   1199.000   1138.235     60.765    492.063   1138.179    492.063    492.063    492.063
 59.870   1076.128   1152.548    -76.420    492.092   1152.451    492.092    492.092    492.092
 59.970   1222.000   1191.174     30.826    492.122   1191.033    492.122    492.122    492.122
 60.070   1180.088   1254.974    -74.886    492.154   1254.788    492.154    492.154    492.154
 60.170   1363.000   1338.706     24.294    492.187   1338.479    492.187    492.187    492.187
 60.270   1508.000   1428.329     79.671    492.222   1428.074    492.222    492.222    492.222
 60.370   1474.255   1501.002    -26.747    492.259   1500.738    492.259    492.259    492.259
 60.470   1623.000   1530.557     92.443    492.296   1530.310    492.296    492.296    492.296
 60.570   1495.000   1499.938     -4.938    492.336   1499.731    492.336    492.336    492.336
 60.670   1479.000   1411.944     67.056    492.376   1411.786    492.376    492.376    492.376
 60.770   1309.000   1286.365     22.635    492.418   1286.253    492.418    492.418    492.418
 60.870   1208.000   1147.631     60.369    492.461   1147.556    492.461    492.461    492.461
 60.970   1017.505   1015.556      1.949    492.506   1015.507    492.506    492.506    492.506
 61.070    948.622    902.727     45.895    492.552    902.694    492.552    492.552    492.552
 61.170    785.486    815.299    -29.814    492.599    815.275    492.599    492.599    492.599
 61.270    781.000    754.777     26.223    492.648    754.754    492.648    492.648    492.648
 61.370    674.179    720.046    -45.868    492.698    720.020    492.698    492.698    492.698
 61.470    764.693    709.286     55.406    492.749    709.253    492.749    492.749    492.749
 61.570    729.000    721.274      7.726    492.802    721.229    492.802    492.802    492.802
 61.670    764.000    755.806      8.194    492.856    755.747    492.856    492.856    492.856
 61.770    837.000    813.170     23.830    492.911    813.091    492.911    492.911    492.911
 61.870    863.680    892.881    -29.200    492.967    892.781    492.967    492.967    492.967
 61.970    960.000    992.077    -32.077    493.024    991.955    493.024    493.024    493.024
 62.070   1096.000   1103.905     -7.905    493.083   1103.764    493.083    493.083    493.083
 62.170   1199.000   1216.181    -17.181    493.143   1216.030    493.143    493.143    493.143
 62.270   1298.328   1311.055    -12.727    493.204   1310.905    493.204    493.204    493.204
 62.370   1385.266   1367.824     17.441    493.266   1367.692    493.266    493.266    493.266
 62.470   1290.198   1370.892    -80.694    493.330   1370.789    493.330    493.330    493.330
 62.570   1315.473   1318.806     -3.334    493.394   1318.736    493.394    493.394    493.394
 62.670   1243.200   1225.257     17.943    493.460   1225.215    493.460    493.460    493.460
 62.770   1104.107   1110.736     -6.629    493.527   1110.713    493.527    493.527    493.527
 62.870    956.000    993.720    -37.720    493.595    993.711    493.595    493.595    493.595
 62.970    840.000    886.998    -46.998    493.664    886.996    493.664    493.664    493.664
 63.070    800.607    797.608      2.999    493.734    797.609    493.734    493.734    493.734
 63.170    734.988    727.933      7.055    493.805    727.933    493.805    493.805    493.805
 63.270    736.305    677.060     59.245    493.877    677.058    493.877    493.877    493.877
 63.370    634.000    642.192     -8.192    493.950    642.188    493.950    493.950    493.950
 63.470    596.471    619.923    -23.452    494.024    619.916    494.024    494.024    494.024
 63.570    568.607    607.172    -38.565    494.099    607.163    494.099    494.099    494.099
 63.670    626.000    601.733     24.267    494.175    601.721    494.175    494.175    494.175
 63.770    635.000    602.470     32.530    494.252    602.455    494.252    494.252    494.252
 63.870    600.000    609.267     -9.267    494.330    609.247    494.330    494.330    494.330
 63.970    630.167    622.827      7.340    494.409    622.800    494.409    494.409    494.409
 64.070    602.031    644.354    -42.322    494.489    644.318    494.489    494.489    494.489
 64.170    711.000    675.128     35.872    494.570    675.081    494.570    494.570    494.570
 64.270    680.000    715.989    -35.989    494.651    715.928    494.651    494.651    494.651
 64.370    861.000    766.741     94.259    494.734    766.665    494.734    494.734    494.734
 64.470    865.000    825.550     39.450    494.817    825.460    494.817    494.817    494.817
 64.570    894.000    888.357      5.643    494.902    888.253    494.902    494.902    494.902
 64.670    997.926    948.519     49.407    494.987    948.407    494.987    494.987    494.987
 64.770    939.365    997.306    -57.942    495.073    997.194    495.073    495.073    495.073
 64.870   1040.000   1026.113     13.887    495.159   1026.008    495.159    495.159    495.159
 64.970   1047.000   1029.893     17.107    495.247   1029.805    495.247    495.247    495.247
 65.070   1050.000   1009.318     40.682    495.335   1009.249    495.335    495.335    495.335
 65.170   1002.000    970.032     31.968    495.424    969.985    495.424    495.424    495.424
 65.270    983.511    920.157     63.354    495.514    920.131    495.514    495.514    495.514
 65.370    848.000    867.526    -19.526    495.604    867.518    495.604    495.604    495.604
 65.470    774.823    817.724    -42.901    495.696    817.732    495.696    495.696    495.696
 65.570    812.000    773.504     38.496    495.788    773.523    495.788    495.788    495.788
 65.670    709.000    735.353    -26.353    495.880    735.379    495.880    495.880    495.880
 65.770    652.000    702.704    -50.704    495.973    702.732    495.973    495.973    495.973
 65.870    635.538    675.003    -39.465    496.067    675.029    496.067    496.067    496.067
 65.970    616.000    652.007    -36.007    496.162    652.029    496.162    496.162    496.162
 66.070    641.000    633.552      7.448    496.257    633.570    496.257    496.257    496.257
 66.170    668.043    619.357     48.686    496.353    619.370    496.353    496.353    496.353
 66.270    603.000    609.073     -6.073    496.449    609.082    496.449    496.449    496.449
 66.370    632.420    602.304     30.116    496.546    602.310    496.546    496.546    496.546
 66.470    549.766    598.670    -48.904    496.644    598.674    496.644    496.644    496.644
 66.570    610.000    597.874     12.126    496.742    597.877    496.742    496.742    496.742
 66.670    593.000    599.748     -6.748    496.840    599.751    496.840    496.840    496.840
 66.770    619.000    604.353     14.647    496.939    604.357    496.939    496.939    496.939
 66.870    598.000    612.116    -14.116    497.039    612.121    497.039    497.039    497.039
 66.970    632.693    624.010      8.683    497.139    624.015    497.139    497.139    497.139
 67.070    577.000    641.772    -64.772    497.240    641.778    497.240    497.240    497.240
 67.170    650.000    668.136    -18.136    497.341    668.142    497.341    497.341    497.341
 67.270    705.588    706.992     -1.404    497.442    706.998    497.442    497.442    497.442
 67.370    672.000    763.369    -91.369    497.544    763.375    497.544    497.544    497.544
 67.470    846.055    843.083      2.972    497.646    843.091    497.646    497.646    497.646
 67.570    914.491    951.931    -37.439    497.749    951.941    497.749    497.749    497.749
 67.670   1047.706   1094.386    -46.681    497.852   1094.402    497.852    497.852    497.852
 67.770   1288.000   1271.942     16.058    497.956   1271.969    497.956    497.956    497.956
 67.870   1400.000   1481.298    -81.298    498.059   1481.342    498.059    498.059    498.059
 67.970   1608.000   1712.631   -104.631    498.164   1712.701    498.164    498.164    498.164
 68.070   1906.000   1948.061    -42.061    498.268   1948.167    498.268    498.268    498.268
 68.170   2231.615   2160.831     70.784    498.373   2160.982    498.373    498.373    498.373
 68.270   2296.000   2317.307    -21.307    498.478   2317.513    498.478    498.478    498.478
 68.370   2430.000   2385.498     44.502    498.583   2385.759    498.583    498.583    498.583
 68.470   2275.000   2349.317    -74.317    498.689   2349.625    498.689    498.689    498.689
 68.570   2131.000   2217.780    -86.780    498.795   2218.113    498.795    498.795    498.795
 68.670   2105.000   2019.484     85.516    498.901   2019.816    498.901    498.901    498.901
 68.770   1807.000   1788.584     18.416    499.007   1788.894    499.007    499.007    499.007
 68.870   1526.000   1554.287    -28.287    499.113   1554.560    499.113    499.113    499.113
 68.970   1344.000   1337.207      6.793    499.220   1337.436    499.220    499.220    499.220
 69.070   1123.000   1149.553    -26.553    499.327   1149.738    499.327    499.327    499.327
 69.170    932.000    996.502    -64.502    499.434    996.646    499.434    499.434    499.434
 69.270    854.000    877.879    -23.879    499.541    877.987    499.541    499.541    499.541
 69.370    765.936    789.958    -24.022    499.648    790.038    499.648    499.648    499.648
 69.470    726.743    727.203     -0.460    499.755    727.261    499.755    499.755    499.755
 69.570    741.597    683.690     57.906    499.863    683.732    499.863    499.863    499.863
 69.670    663.000    654.065      8.935    499.970    654.096    499.970    499.970    499.970
 69.770    579.986    634.021    -54.035    500.078    634.044    500.078    500.078    500.078
 69.870    652.000    620.395     31.605    500.185    620.412    500.185    500.185    500.185
 69.970    614.000    611.032      2.968    500.293    611.045    500.293    500.293    500.293
 70.070    658.923    604.557     54.366    500.401    604.567    500.401    500.401    500.401
 70.170    590.023    600.143    -10.120    500.508    600.151    500.508    500.508    500.508
 70.270    621.000    597.323     23.677    500.616    597.329    500.616    500.616    500.616
 70.370    637.000    595.869     41.131    500.723    595.873    500.723    500.723    500.723
 70.470    581.000    595.720    -14.720    500.831    595.722    500.831    500.831    500.831
 70.570    619.000    596.970     22.030    500.938    596.970    500.938    500.938    500.938
 70.670    559.848    599.886    -40.038    501.046    599.884    501.046    501.046    501.046
 70.770    594.940    604.978    -10.038    501.153    604.974    501.153    501.153    501.153
 70.870    609.000    613.093     -4.093    501.260    613.086    501.260    501.260    501.260
 70.970    618.000    625.536     -7.536    501.367    625.525    501.367    501.367    501.367
 71.070    610.000    644.183    -34.183    501.474    644.166    501.474    501.474    501.474
 71.170    705.000    671.547     33.453    501.581    671.521    501.581    501.581    501.581
 71.270    707.000    710.723     -3.723    501.688    710.686    501.688    501.688    501.688
 71.370    683.000    765.166    -82.166    501.794    765.115    501.794    501.794    501.794
 71.470    838.000    838.220     -0.220    501.901    838.152    501.901    501.901    501.901
 71.570    912.000    932.430    -20.430    502.007    932.341    502.007    502.007    502.007
 71.670   1012.000   1048.674    -36.674    502.112   1048.563    502.112    502.112    502.112
 71.770   1234.355   1185.233     49.121    502.218   1185.100    502.218    502.218    502.218
 71.870   1309.442   1336.910    -27.468    502.323   1336.757    502.323    502.323    502.323
 71.970   1575.980   1494.247     81.733    502.428   1494.080    502.428    502.428    502.428
 72.070   1660.000   1643.035     16.965    502.533   1642.863    502.533    502.533    502.533
 72.170   1798.000   1764.813     33.187    502.638   1764.648    502.638    502.638    502.638
 72.270   1897.492   1839.836     57.656    502.742   1839.692    502.742    502.742    502.742
 72.370   1860.000   1853.335      6.665    502.846   1853.221    502.846    502.846    502.846
 72.470   1819.000   1802.275     16.725    502.949   1802.195    502.949    502.949    502.949
 72.570   1704.724   1697.023      7.701    503.052   1696.973    503.052    503.052    503.052
 72.670   1610.403   1556.203     54.200    503.155   1556.177    503.155    503.155    503.155
 72.770   1466.000   1399.475     66.525    503.257   1399.467    503.257    503.257    503.257
 72.870   1280.641   1243.028     37.614    503.359   1243.030    503.359    503.359    503.359
 72.970   1116.725   1098.260     18.465    503.461   1098.268    503.461    503.461    503.461
 73.070   1004.000    972.038     31.962    503.562    972.048    503.562    503.562    503.562
 73.170    850.000    867.407    -17.407    503.663    867.417    503.663    503.663    503.663
 73.270    824.000    784.452     39.548    503.763    784.460    503.763    503.763    503.763
 73.370    716.420    721.217     -4.797    503.863    721.224    503.863    503.863    503.863
 73.470    624.719    674.613    -49.894    503.962    674.618    503.962    503.962    503.962
 73.570    739.000    641.185     97.815    504.061    641.189    504.061    504.061    504.061
 73.670    641.985    617.677     24.309    504.159    617.680    504.159    504.159    504.159
 73.770    670.000    601.350     68.650    504.257    601.354    504.257    504.257    504.257
 73.870    614.417    590.104     24.313    504.354    590.108    504.354    504.354    504.354
 73.970    641.180    582.437     58.743    504.451    582.443    504.451    504.451    504.451
 74.070    567.635    577.344     -9.708    504.547    577.352    504.547    504.547    504.547
 74.170    569.000    574.168     -5.168    504.642    574.180    504.642    504.642    504.642
 74.270    680.000    572.478    107.522    504.737    572.494    504.737    504.737    504.737
 74.370    632.000    571.953     60.047    504.831    571.974    504.831    504.831    504.831
 74.470    564.414    572.311     -7.897    504.925    572.337    504.925    504.925    504.925
 74.570    590.066    573.249     16.818    505.018    573.280    505.018    505.018    505.018
 74.670    620.889    574.409     46.480    505.110    574.446    505.110    505.110    505.110
 74.770    569.618    575.376     -5.757    505.202    575.417    505.202    505.202    505.202
 74.870    596.534    575.716     20.818    505.293    575.761    505.293    505.293    505.293
 74.970    627.000    575.094     51.906    505.383    575.140    505.383    505.383    505.383
 75.070    641.000    573.408     67.592    505.473    573.453    505.473    505.473    505.473
 75.170    669.000    570.855     98.145    505.562    570.897    505.562    505.562    505.562
 75.270    636.000    567.858     68.142    505.650    567.895    505.650    505.650    505.650
 75.370    656.000    564.932     91.068    505.737    564.963    505.737    505.737    505.737
 75.470    637.000    562.598     74.402    505.824    562.623    505.824    505.824    505.824
 75.570    523.992    561.352    -37.360    505.910    561.370    505.910    505.910    505.910
 75.670    577.000    561.667     15.333    505.995    561.678    505.995    505.995    505.995
 75.770    582.620    563.995     18.625    506.079    563.999    506.079    506.079    506.079
 75.870    590.000    568.750     21.250    506.163    568.747    506.163    506.163    506.163
 75.970    590.000    576.279     13.721    506.245    576.270    506.245    506.245    506.245
 76.070    575.157    586.807    -11.650    506.327    586.790    506.327    506.327    506.327
 76.170    550.524    600.365    -49.841    506.408    600.341    506.408    506.408    506.408
 76.270    671.055    616.716     54.340    506.488    616.684    506.488    506.488    506.488
 76.370    668.000    635.277     32.723    506.567    635.237    506.567    506.567    506.567
 76.470    652.127    655.051     -2.925    506.646    655.004    506.646    506.646    506.646
 76.570    635.037    674.571    -39.534    506.723    674.518    506.723    506.723    506.723
 76.670    704.000    691.901     12.099    506.799    691.843    506.799    506.799    506.799
 76.770    729.000    704.808     24.192    506.875    704.748    506.875    506.875    506.875
 76.870    693.000    711.220    -18.220    506.950    711.162    506.950    506.950    506.950
 76.970    730.000    709.934     20.066    507.023    709.879    507.023    507.023    507.023
 77.070    688.000    701.121    -13.121    507.096    701.072    507.096    507.096    507.096
 77.170    697.875    686.246     11.629    507.168    686.205    507.168    507.168    507.168
 77.270    644.976    667.451    -22.475    507.238    667.417    507.238    507.238    507.238
 77.370    627.371    646.896    -19.525    507.308    646.869    507.308    507.308    507.308
 77.470    645.930    626.371     19.559    507.377    626.349    507.377    507.377    507.377
 77.570    557.000    607.177    -50.177    507.444    607.161    507.444    507.444    507.444
 77.670    546.000    590.148    -44.148    507.511    590.136    507.511    507.511    507.511
 77.770    567.000    575.706     -8.706    507.576    575.697    507.576    507.576    507.576
 77.870    560.000    563.941     -3.941    507.641    563.934    507.641    507.641    507.641
 77.970    598.814    554.697     44.116    507.704    554.693    507.704    507.704    507.704
 78.070    597.882    547.665     50.216    507.767    547.662    507.767    507.767    507.767
 78.170    570.000    542.461     27.539    507.828    542.458    507.828    507.828    507.828
 78.270    544.000    538.694      5.306    507.888    538.691    507.888    507.888    507.888
 78.370    481.000    536.010    -55.010    507.947    536.008    507.947    507.947    507.947
 78.470    551.000    534.117     16.883    508.005    534.115    508.005    508.005    508.005
 78.570    548.758    532.789     15.969    508.061    532.787    508.061    508.061    508.061
 78.670    529.000    531.859     -2.859    508.117    531.858    508.117    508.117    508.117
 78.770    540.000    531.228      8.772    508.171    531.227    508.171    508.171    508.171
 78.870    537.000    530.822      6.178    508.225    530.821    508.225    508.225    508.225
 78.970    546.000    530.602     15.398    508.277    530.601    508.277    508.277    508.277
 79.070    507.456    530.552    -23.096    508.327    530.552    508.327    508.327    508.327
 79.170    538.000    530.673      7.327    508.377    530.672    508.377    508.377    508.377
 79.270    540.000    530.977      9.023    508.425    530.976    508.425    508.425    508.425
 79.370    528.000    531.486     -3.486    508.472    531.485    508.472    508.472    508.472
 79.470    529.000    532.234     -3.234    508.518    532.233    508.518    508.518    508.518
 79.570    501.868    533.262    -31.394    508.563    533.260    508.563    508.563    508.563
 79.670    558.000    534.623     23.377    508.606    534.622    508.606    508.606    508.606
 79.770    559.000    536.387     22.613    508.648    536.385    508.648    508.648    508.648
 79.870    553.007    538.642     14.364    508.689    538.640    508.689    508.689    508.689
 79.970    523.000    541.505    -18.505    508.729    541.502    508.729    508.729    508.729
 80.070    561.000    545.122     15.878    508.767    545.118    508.767    508.767    508.767
 80.170    539.617    549.676    -10.058    508.804    549.672    508.804    508.804    508.804
 80.270    541.217    555.381    -14.164    508.839    555.377    508.839    508.839    508.839
 80.370    606.649    562.485     44.164    508.874    562.481    508.874    508.874    508.874
 80.470    556.000    571.262    -15.262    508.906    571.260    508.906    508.906    508.906
 80.570    532.381    582.000    -49.619    508.938    582.000    508.938    508.938    508.938
 80.670    614.192    594.954     19.238    508.968    594.957    508.968    508.968    508.968
 80.770    578.600    610.270    -31.671    508.997    610.276    508.997    508.997    508.997
 80.870    604.000    627.894    -23.894    509.024    627.904    509.024    509.024    509.024
 80.970    623.000    647.491    -24.491    509.050    647.506    509.050    509.050    509.050
 81.070    646.864    668.401    -21.538    509.075    668.423    509.075    509.075    509.075
 81.170    714.000    689.658     24.342    509.098    689.686    509.098    509.098    509.098
 81.270    690.000    710.088    -20.088    509.120    710.124    509.120    509.120    509.120
 81.370    731.000    728.494      2.506    509.140    728.537    509.140    509.140    509.140
 81.470    751.000    743.820      7.180    509.159    743.870    509.159    509.159    509.159
 81.570    767.411    755.248     12.163    509.176    755.304    509.176    509.176    509.176
 81.670    793.800    762.250     31.550    509.192    762.313    509.192    509.192    509.192
 81.770    739.000    764.641    -25.641    509.207    764.709    509.207    509.207    509.207
 81.870    790.000    762.542     27.458    509.220    762.614    509.220    509.220    509.220
 81.970    768.000    756.273     11.727    509.231    756.347    509.231    509.231    509.231
 82.070    754.919    746.279      8.640    509.242    746.354    509.242    509.242    509.242
 82.170    748.000    733.177     14.823    509.250    733.252    509.250    509.250    509.250
 82.270    717.000    717.806     -0.806    509.257    717.880    509.257    509.257    509.257
 82.370    703.000    701.109      1.891    509.263    701.180    509.263    509.263    509.263
 82.470    682.000    683.923     -1.923    509.267    683.991    509.267    509.267    509.267
 82.570    629.304    666.840    -37.536    509.269    666.903    509.269    509.269    509.269
 82.670    654.338    650.227      4.111    509.270    650.286    509.270    509.270    509.270
 82.770    622.000    634.362    -12.362    509.270    634.415    509.270    509.270    509.270
 82.870    582.000    619.545    -37.545    509.267    619.592    509.267    509.267    509.267
 82.970    609.090    606.119      2.972    509.264    606.159    509.264    509.264    509.264
 83.070    563.000    594.408    -31.408    509.258    594.440    509.258    509.258    509.258
 83.170    557.000    584.666    -27.666    509.252    584.691    509.252    509.252    509.252
 83.270    598.000    577.047     20.953    509.243    577.064    509.243    509.243    509.243
 83.370    611.493    571.610     39.882    509.233    571.619    509.233    509.233    509.233
 83.470    534.000    568.318    -34.318    509.221    568.319    509.221    509.221    509.221
 83.570    554.192    567.045    -12.853    509.208    567.038    509.208    509.208    509.208
 83.670    621.202    567.575     53.627    509.193    567.560    509.193    509.193    509.193
 83.770    551.000    569.603    -18.603    509.177    569.581    509.177    509.177    509.177
 83.870    548.000    572.735    -24.735    509.159    572.705    509.159    509.159    509.159
 83.970    523.000    576.490    -53.490    509.139    576.454    509.139    509.139    509.139
 84.070    593.000    580.311     12.689    509.118    580.270    509.118    509.118    509.118
 84.170    585.926    583.590      2.337    509.095    583.545    509.095    509.095    509.095
 84.270    590.664    585.727      4.936    509.070    585.680    509.070    509.070    509.070
 84.370    585.066    586.246     -1.180    509.044    586.199    509.044    509.044    509.044
 84.470    598.000    584.915     13.085    509.016    584.869    509.016    509.016    509.016
 84.570    551.183    581.810    -30.626    508.986    581.767    508.986    508.986    508.986
 84.670    511.000    577.268    -66.268    508.955    577.230    508.955    508.955    508.955
 84.770    537.000    571.761    -34.761    508.922    571.727    508.922    508.922    508.922
 84.870    536.000    565.774    -29.774    508.887    565.745    508.887    508.887    508.887
 84.970    537.000    559.728    -22.728    508.851    559.704    508.851    508.851    508.851
 85.070    550.000    553.921     -3.921    508.813    553.902    508.813    508.813    508.813
 85.170    530.000    548.665    -18.665    508.773    548.649    508.773    508.773    508.773
 85.270    545.000    544.105      0.895    508.732    544.092    508.732    508.732    508.732
 85.370    565.475    540.296     25.179    508.689    540.285    508.689    508.689    508.689
 85.470    539.981    537.244      2.737    508.644    537.235    508.644    508.644    508.644
 85.570    541.000    534.913      6.087    508.597    534.905    508.597    508.597    508.597
 85.670    539.000    533.238      5.762    508.549    533.230    508.549    508.549    508.549
 85.770    573.000    532.145     40.855    508.499    532.138    508.499    508.499    508.499
 85.870    485.272    531.566    -46.294    508.447    531.559    508.447    508.447    508.447
 85.970    563.000    531.452     31.548    508.394    531.444    508.394    508.394    508.394
 86.070    533.203    531.777      1.426    508.339    531.768    508.339    508.339    508.339
 86.170    556.000    532.545     23.455    508.282    532.534    508.282    508.282    508.282
 86.270    536.000    533.797      2.203    508.223    533.785    508.223    508.223    508.223
 86.370    560.000    535.601     24.399    508.163    535.586    508.163    508.163    508.163
 86.470    550.000    538.049     11.951    508.101    538.031    508.101    508.101    508.101
 86.570    516.000    541.253    -25.253    508.037    541.231    508.037    508.037    508.037
 86.670    547.000    545.330      1.670    507.971    545.303    507.971    507.971    507.971
 86.770    577.836    550.391     27.445    507.904    550.358    507.904    507.904    507.904
 86.870    526.735    556.523    -29.788    507.834    556.483    507.834    507.834    507.834
 86.970    565.000    563.766      1.234    507.763    563.717    507.763    507.763    507.763
 87.070    580.248    572.089      8.159    507.691    572.031    507.691    507.691    507.691
 87.170    554.000    581.368    -27.368    507.616    581.301    507.616    507.616    507.616
 87.270    598.000    591.367      6.633    507.540    591.289    507.540    507.540    507.540
 87.370    561.746    601.716    -39.970    507.462    601.627    507.462    507.462    507.462
 87.470    661.057    611.906     49.151    507.382    611.808    507.382    507.382    507.382
 87.570    630.000    621.296      8.704    507.301    621.191    507.301    507.301    507.301
 87.670    688.000    629.151     58.849    507.217    629.041    507.217    507.217    507.217
 87.770    641.000    634.753      6.247    507.132    634.641    507.132    507.132    507.132
 87.870    650.000    637.552     12.448    507.045    637.442    507.045    507.045    507.045
 87.970    617.000    637.336    -20.336    506.957    637.231    506.957    506.957    506.957
 88.070    589.235    634.301    -45.066    506.866    634.205    506.866    506.866    506.866
 88.170    610.000    628.984    -18.984    506.774    628.899    506.774    506.774    506.774
 88.270    675.498    622.112     53.386    506.680    622.039    506.680    506.680    506.680
 88.370    628.852    614.465     14.387    506.584    614.404    506.584    506.584    506.584
 88.470    579.005    606.785    -27.779    506.487    606.737    506.487    506.487    506.487
 88.570    626.000    599.726     26.274    506.387    599.691    506.387    506.387    506.387
 88.670    635.664    593.825     41.839    506.286    593.801    506.286    506.286    506.286
 88.770    543.372    589.473    -46.100    506.183    589.459    506.183    506.183    506.183
 88.870    569.000    586.905    -17.905    506.079    586.901    506.079    506.079    506.079
 88.970    557.000    586.196    -29.196    505.972    586.202    505.972    505.972    505.972
 89.070    569.050    587.264    -18.214    505.864    587.278    505.864    505.864    505.864
 89.170    553.475    589.877    -36.402    505.754    589.900    505.754    505.754    505.754
 89.270    606.000    593.674     12.326    505.642    593.705    505.642    505.642    505.642
 89.370    568.044    598.172    -30.128    505.528    598.211    505.528    505.528    505.528
 89.470    620.000    602.794     17.206    505.413    602.840    505.413    505.413    505.413
 89.570    560.974    606.899    -45.925    505.296    606.952    505.296    505.296    505.296
 89.670    646.000    609.848     36.152    505.177    609.906    505.177    505.177    505.177
 89.770    662.747    611.099     51.647    505.056    611.161    505.056    505.056    505.056
 89.870    595.000    610.324    -15.324    504.934    610.388    504.934    504.934    504.934
 89.970    576.665    607.478    -30.813    504.810    607.542    504.810    504.810    504.810
 90.070    631.500    602.796     28.704    504.683    602.858    504.683    504.683    504.683
 90.170    589.000    596.702     -7.702    504.556    596.760    504.556    504.556    504.556
 90.270    573.000    589.698    -16.698    504.426    589.752    504.426    504.426    504.426
 90.370    620.150    582.273     37.876    504.295    582.321    504.295    504.295    504.295
 90.470    571.000    574.851     -3.851    504.162    574.892    504.162    504.162    504.162
 90.570    555.000    567.769    -12.769    504.027    567.804    504.027    504.027    504.027
 90.670    548.000    561.278    -13.278    503.890    561.308    503.890    503.890    503.890
 90.770    510.000    555.545    -45.545    503.752    555.569    503.752    503.752    503.752
 90.870    548.000    550.661     -2.661    503.612    550.680    503.612    503.612    503.612
 90.970    578.189    546.653     31.536    503.470    546.668    503.470    503.470    503.470
 91.070    579.000    543.502     35.498    503.326    543.513    503.326    503.326    503.326
 91.170    535.000    541.156     -6.156    503.181    541.164    503.181    503.181    503.181
 91.270    510.000    539.546    -29.546    503.034    539.551    503.034    503.034    503.034
 91.370    500.000    538.604    -38.604    502.885    538.607    502.885    502.885    502.885
 91.470    583.326    538.274     45.051    502.735    538.275    502.735    502.735    502.735
 91.570    552.000    538.521     13.479    502.582    538.521    502.582    502.582    502.582
 91.670    569.839    539.339     30.500    502.428    539.337    502.428    502.428    502.428
 91.770    512.000    540.755    -28.755    502.273    540.751    502.273    502.273    502.273
 91.870    538.856    542.829     -3.973    502.115    542.823    502.115    502.115    502.115
 91.970    538.716    545.654     -6.938    501.956    545.647    501.956    501.956    501.956
 92.070    520.082    549.353    -29.271    501.796    549.343    501.796    501.796    501.796
 92.170    516.500    554.069    -37.569    501.633    554.056    501.633    501.633    501.633
 92.270    516.000    559.955    -43.955    501.469    559.939    501.469    501.469    501.469
 92.370    594.939    567.167     27.772    501.303    567.147    501.303    501.303    501.303
 92.470    598.351    575.843     22.508    501.136    575.819    501.136    501.136    501.136
 92.570    574.000    586.094    -12.094    500.967    586.065    500.967    500.967    500.967
 92.670    577.000    597.981    -20.981    500.796    597.946    500.796    500.796    500.796
 92.770    637.000    611.504     25.496    500.623    611.463    500.623    500.623    500.623
 92.870    613.000    626.583    -13.583    500.449    626.536    500.449    500.449    500.449
 92.970    647.000    643.048      3.952    500.273    642.995    500.273    500.273    500.273
 93.070    628.000    660.620    -32.620    500.096    660.561    500.096    500.096    500.096
 93.170    701.880    678.913     22.967    499.917    678.849    499.917    499.917    499.917
 93.270    670.000    697.441    -27.441    499.736    697.371    499.736    499.736    499.736
 93.370    692.494    715.661    -23.167    499.554    715.588    499.554    499.554    499.554
 93.470    735.000    733.064      1.936    499.370    732.989    499.370    499.370    499.370
 93.570    767.000    749.282     17.718    499.185    749.206    499.185    499.185    499.185
 93.670    702.000    764.179    -62.179    498.998    764.102    498.998    498.998    498.998
 93.770    733.000    777.858    -44.858    498.809    777.781    498.809    498.809    498.809
 93.870    800.000    790.583      9.417    498.619    790.508    498.619    498.619    498.619
 93.970    821.830    802.648     19.182    498.427    802.575    498.427    498.427    498.427
 94.070    751.318    814.267    -62.949    498.234    814.195    498.234    498.234    498.234
 94.170    838.000    825.538     12.462    498.039    825.469    498.039    498.039    498.039
 94.270    830.000    836.488     -6.488    497.843    836.421    497.843    497.843    497.843
 94.370    861.000    847.144     13.856    497.645    847.080    497.645    497.645    497.645
 94.470    814.000    857.585    -43.585    497.445    857.524    497.445    497.445    497.445
 94.570    887.000    867.903     19.097    497.245    867.845    497.245    497.245    497.245
 94.670    823.742    878.091    -54.349    497.042    878.036    497.042    497.042    497.042
 94.770    896.000    887.919      8.081    496.838    887.867    496.838    496.838    496.838
 94.870    842.532    896.897    -54.365    496.633    896.850    496.633    496.633    496.633
 94.970    919.000    904.163     14.837    496.426    904.121    496.426    496.426    496.426
 95.070    843.055    908.632    -65.577    496.218    908.597    496.218    496.218    496.218
 95.170    908.408    909.166     -0.758    496.008    909.138    496.008    496.008    496.008
 95.270    932.000    904.834     27.166    495.797    904.814    495.797    495.797    495.797
 95.370    920.000    895.193     24.807    495.584    895.180    495.584    495.584    495.584
 95.470    897.000    880.461     16.539    495.370    880.456    495.370    495.370    495.370
 95.570    848.000    861.510    -13.510    495.155    861.511    495.155    495.155    495.155
 95.670    826.000    839.685    -13.685    494.938    839.691    494.938    494.938    494.938
 95.770    834.000    816.570     17.430    494.720    816.579    494.720    494.720    494.720
 95.870    790.000    793.794     -3.794    494.500    793.804    494.500    494.500    494.500
 95.970    775.000    772.912      2.088    494.280    772.922    494.280    494.280    494.280
 96.070    701.684    755.349    -53.664    494.057    755.357    494.057    494.057    494.057
 96.170    729.837    742.376    -12.539    493.834    742.381    493.834    493.834    493.834
 96.270    794.492    735.104     59.387    493.609    735.105    493.609    493.609    493.609
 96.370    742.754    734.476      8.277    493.383    734.471    493.383    493.383    493.383
 96.470    715.000    741.259    -26.259    493.155    741.248    493.155    493.155    493.155
 96.570    698.019    756.034    -58.016    492.927    756.015    492.927    492.927    492.927
 96.670    774.000    779.181     -5.181    492.697    779.155    492.697    492.697    492.697
 96.770    875.668    810.857     64.812    492.466    810.823    492.466    492.466    492.466
 96.870    798.274    850.959    -52.685    492.233    850.917    492.233    492.233    492.233
 96.970    889.000    899.090    -10.090    492.000    899.040    492.000    492.000    492.000
 97.070    894.040    954.503    -60.463    491.765    954.446    491.765    491.765    491.765
 97.170   1026.000   1016.056      9.944    491.529   1015.992    491.529    491.529    491.529
 97.270   1068.900   1082.161    -13.261    491.292   1082.093    491.292    491.292    491.292
 97.370   1120.000   1150.749    -30.749    491.054   1150.678    491.054    491.054    491.054
 97.470   1279.000   1219.246     59.754    490.814   1219.175    490.814    490.814    490.814
 97.570   1281.647   1284.586     -2.939    490.574   1284.518    490.574    490.574    490.574
 97.670   1288.000   1343.310    -55.310    490.332   1343.248    490.332    490.332    490.332
 97.770   1360.000   1391.797    -31.797    490.089   1391.745    490.089    490.089    490.089
 97.870   1468.000   1426.687     41.313    489.845   1426.649    489.845    489.845    489.845
 97.970   1472.000   1445.438     26.562    489.600   1445.417    489.600    489.600    489.600
 98.070   1481.376   1446.847     34.529    489.355   1446.844    489.355    489.355    489.355
 98.170   1422.000   1431.299     -9.299    489.108   1431.315    489.108    489.108    489.108
 98.270   1384.854   1400.637    -15.783    488.860   1400.669    488.860    488.860    488.860
 98.370   1363.000   1357.727      5.273    488.611   1357.773    488.611    488.611    488.611
 98.470   1285.664   1305.952    -20.288    488.361   1306.008    488.361    488.361    488.361
 98.570   1292.000   1248.797     43.203    488.110   1248.860    488.110    488.110    488.110
 98.670   1169.000   1189.583    -20.583    487.858   1189.649    487.858    487.858    487.858
 98.770   1083.687   1131.303    -47.616    487.606   1131.368    487.606    487.606    487.606
 98.870   1065.000   1076.574    -11.574    487.352   1076.637    487.352    487.352    487.352
 98.970   1046.000   1027.630     18.370    487.098   1027.687    487.098    487.098    487.098
 99.070    989.695    986.336      3.359    486.842    986.387    486.842    486.842    486.842
 99.170    937.000    954.227    -17.227    486.586    954.271    486.586    486.586    486.586
 99.270    931.000    932.526     -1.526    486.329    932.563    486.329    486.329    486.329
 99.370    906.000    922.163    -16.163    486.071    922.192    486.071    486.071    486.071
 99.470    916.000    923.781     -7.781    485.813    923.803    485.813    485.813    485.813
 99.570    954.103    937.745     16.358    485.554    937.762    485.554    485.554    485.554
 99.670    903.000    964.114    -61.114    485.294    964.127    485.294    485.294    485.294
 99.770   1029.977   1002.777     27.201    485.033   1002.786    485.033    485.033    485.033
 99.870   1091.000   1053.284     37.716    484.771   1053.293    484.771    484.771    484.771
 99.970   1111.000   1114.834     -3.834    484.509   1114.845    484.509    484.509    484.509
100.070   1174.000   1186.296    -12.296    484.247   1186.311    484.247    484.247    484.247
100.170   1302.026   1266.142     35.884    483.983   1266.164    483.983    483.983    483.983
100.270   1401.136   1352.405     48.732    483.719   1352.437    483.719    483.719    483.719
100.370   1454.000   1442.645     11.355    483.455   1442.691    483.455    483.455    483.455
100.470   1593.000   1533.982     59.018    483.189   1534.044    483.189    483.189    483.189
100.570   1594.570   1623.218    -28.647    482.924   1623.300    482.924    482.924    482.924
100.670   1715.000   1707.073      7.927    482.658   1707.178    482.658    482.658    482.658
100.770   1819.000   1782.476     36.524    482.391   1782.605    482.391    482.391    482.391
100.870   1874.000   1846.879     27.121    482.124   1847.034    482.124    482.124    482.124
100.970   1946.000   1898.403     47.597    481.856   1898.581    481.856    481.856    481.856
101.070   1963.000   1935.767     27.233    481.588   1935.968    481.588    481.588    481.588
101.170   2030.000   1958.099     71.901    481.320   1958.319    481.320    481.320    481.320
101.270   1980.000   1964.775     15.225    481.051   1965.011    481.051    481.051    481.051
101.370   1986.000   1955.446     30.554    480.781   1955.695    480.781    480.781    480.781
101.470   1978.000   1930.280     47.720    480.512   1930.537    480.512    480.512    480.512
101.570   1880.000   1890.268    -10.268    480.242   1890.529    480.242    480.242    480.242
101.670   1862.000   1837.415     24.585    479.972   1837.676    479.972    479.972    479.972
101.770   1800.917   1774.663     26.254    479.702   1774.919    479.702    479.702    479.702
101.870   1737.000   1705.543     31.457    479.431   1705.789    479.431    479.431    479.431
101.970   1636.000   1633.708      2.292    479.160   1633.943    479.160    479.160    479.160
102.070   1582.000   1562.519     19.481    478.889   1562.739    478.889    478.889    478.889
102.170   1435.059   1494.746    -59.687    478.618   1494.951    478.618    478.618    478.618
102.270   1425.000   1432.437     -7.437    478.347   1432.627    478.347    478.347    478.347
102.370   1394.000   1376.874     17.126    478.076   1377.049    478.076    478.076    478.076
102.470   1335.000   1328.599      6.401    477.804   1328.759    477.804    477.804    477.804
102.570   1205.000   1287.463    -82.463    477.533   1287.612    477.533    477.533    477.533
102.670   1235.474   1252.703    -17.229    477.261   1252.842    477.261    477.261    477.261
102.770   1227.088   1223.031      4.058    476.990   1223.162    476.990    476.990    476.990
102.870   1271.394   1196.771     74.623    476.718   1196.896    476.718    476.718    476.718
102.970   1194.000   1172.053     21.947    476.447   1172.175    476.447    476.447    476.447
103.070   1156.000   1147.056      8.944    476.176   1147.175    476.176    476.176    476.176
103.170   1051.000   1120.267    -69.267    475.905   1120.383    475.905    475.905    475.905
103.270   1063.000   1090.696    -27.696    475.634   1090.810    475.634    475.634    475.634
103.370   1074.000   1057.968     16.032    475.363   1058.079    475.363    475.363    475.363
103.470   1044.000   1022.259     21.741    475.092   1022.366    475.092    475.092    475.092
103.570   1003.000    984.212     18.788    474.822    984.315    474.822    474.822    474.822
103.670    901.433    944.674    -43.241    474.552    944.772    474.552    474.552    474.552
103.770    941.000    904.554     36.446    474.282    904.645    474.282    474.282    474.282
103.870    892.000    864.738     27.262    474.013    864.822    474.013    474.013    474.013
103.970    781.178    826.025    -44.847    473.744    826.102    473.744    473.744    473.744
104.070    759.819    789.095    -29.277    473.475    789.164    473.475    473.475    473.475
104.170    751.398    754.494     -3.096    473.207    754.556    473.207    473.207    473.207
104.270    766.000    722.627     43.373    472.939    722.682    472.939    472.939    472.939
104.370    683.635    693.770    -10.135    472.672    693.817    472.672    472.672    472.672
104.470    635.045    668.066    -33.021    472.405    668.106    472.405    472.405    472.405
104.570    659.000    645.532     13.468    472.139    645.567    472.139    472.139    472.139
104.670    651.000    626.088     24.912    471.874    626.117    471.874    471.874    471.874
104.770    599.824    609.572     -9.748    471.609    609.597    471.609    471.609    471.609
104.870    589.000    595.767     -6.767    471.344    595.787    471.344    471.344    471.344
104.970    624.000    584.420     39.580    471.081    584.436    471.081    471.081    471.081
105.070    610.000    575.265     34.735    470.818    575.278    470.818    470.818    470.818
105.170    600.000    568.041     31.959    470.556    568.051    470.556    470.556    470.556
105.270    565.000    562.507      2.493    470.294    562.515    470.294    470.294    470.294
105.370    563.000    558.452      4.548    470.034    558.457    470.034    470.034    470.034
105.470    572.000    555.698     16.302    469.774    555.701    469.774    469.774    469.774
105.570    549.000    554.106     -5.106    469.515    554.107    469.515    469.515    469.515
105.670    506.200    553.576    -47.376    469.258    553.575    469.258    469.258    469.258
105.770    577.000    554.042     22.958    469.001    554.038    469.001    469.001    469.001
105.870    593.000    555.468     37.532    468.745    555.462    468.745    468.745    468.745
105.970    587.000    557.845     29.155    468.490    557.838    468.490    468.490    468.490
106.070    558.000    561.184     -3.184    468.236    561.174    468.236    468.236    468.236
106.170    540.000    565.506    -25.506    467.984    565.494    467.984    467.984    467.984
106.270    564.000    570.842     -6.842    467.732    570.827    467.732    467.732    467.732
106.370    591.000    577.214     13.786    467.482    577.196    467.482    467.482    467.482
106.470    591.000    584.635      6.365    467.233    584.614    467.233    467.233    467.233
106.570    615.663    593.091     22.571    466.985    593.068    466.985    466.985    466.985
106.670    645.091    602.538     42.553    466.739    602.512    466.739    466.739    466.739
106.770    630.727    612.892     17.835    466.493    612.862    466.493    466.493    466.493
106.870    607.000    624.021    -17.021    466.250    623.988    466.250    466.250    466.250
106.970    664.000    635.748     28.252    466.007    635.712    466.007    466.007    466.007
107.070    663.597    647.845     15.752    465.766    647.807    465.766    465.766    465.766
107.170    628.000    660.034    -32.034    465.527    659.994    465.527    465.527    465.527
107.270    665.000    671.994     -6.994    465.289    671.952    465.289    465.289    465.289
107.370    676.000    683.365     -7.365    465.053    683.322    465.053    465.053    465.053
107.470    730.737    693.759     36.979    464.818    693.716    464.818    464.818    464.818
107.570    740.485    702.822     37.663    464.585    702.779    464.585    464.585    464.585
107.670    709.000    710.269     -1.269    464.354    710.228    464.354    464.354    464.354
107.770    669.000    715.883    -46.883    464.124    715.845    464.124    464.124    464.124
107.870    721.993    719.606      2.387    463.896    719.571    463.896    463.896    463.896
107.970    683.000    721.544    -38.544    463.670    721.513    463.670    463.670    463.670
108.070    692.000    721.954    -29.954    463.446    721.926    463.446    463.446    463.446
108.170    759.151    721.196     37.955    463.224    721.173    463.224    463.224    463.224
108.270    703.000    719.685    -16.685    463.003    719.666    463.003    463.003    463.003
108.370    678.000    717.830    -39.830    462.785    717.815    462.785    462.785    462.785
108.470    686.193    715.995    -29.802    462.569    715.984    462.569    462.569    462.569
108.570    678.000    714.469    -36.469    462.355    714.462    462.355    462.355    462.355
108.670    695.533    713.449    -17.916    462.143    713.446    462.143    462.143    462.143
108.770    716.000    713.033      2.967    461.933    713.034    461.933    461.933    461.933
108.870    711.000    713.215     -2.215    461.725    713.220    461.725    461.725    461.725
108.970    674.000    713.889    -39.889    461.519    713.897    461.519    461.519    461.519
109.070    669.780    714.853    -45.072    461.316    714.864    461.316    461.316    461.316
109.170    676.000    715.820    -39.820    461.115    715.835    461.115    461.115    461.115
109.270    702.732    716.443    -13.711    460.917    716.461    460.917    460.917    460.917
109.370    677.000    716.342    -39.342    460.721    716.362    460.721    460.721    460.721
109.470    729.000    715.148     13.852    460.528    715.171    460.528    460.528    460.528
109.570    697.000    712.554    -15.554    460.337    712.579    460.337    460.337    460.337
109.670    739.608    708.360     31.248    460.148    708.387    460.148    460.148    460.148
109.770    670.243    702.499    -32.256    459.962    702.527    459.962    459.962    459.962
109.870    672.000    695.045    -23.045    459.779    695.074    459.779    459.779    459.779
109.970    682.000    686.190     -4.190    459.599    686.219    459.599    459.599    459.599
110.070    637.907    676.209    -38.302    459.421    676.237    459.421    459.421    459.421
110.170    653.000    665.419    -12.419    459.246    665.446    459.246    459.246    459.246
110.270    710.448    654.148     56.301    459.074    654.173    459.074    459.074    459.074
110.370    682.364    642.707     39.657    458.905    642.731    458.905    458.905    458.905
110.470    645.000    631.381     13.619    458.739    631.404    458.739    458.739    458.739
110.570    617.000    620.417     -3.417    458.576    620.437    458.576    458.576    458.576
110.670    629.509    610.020     19.488    458.416    610.038    458.416    458.416    458.416
110.770    624.000    600.360     23.640    458.259    600.376    458.259    458.259    458.259
110.870    602.000    591.563     10.437    458.105    591.576    458.105    458.105    458.105
110.970    555.924    583.714    -27.790    457.955    583.725    457.955    457.955    457.955
111.070    559.000    576.863    -17.863    457.808    576.872    457.808    457.808    457.808
111.170    567.000    571.029     -4.029    457.664    571.036    457.664    457.664    457.664
111.270    578.371    566.199     12.172    457.523    566.204    457.523    457.523    457.523
111.370    605.788    562.337     43.451    457.386    562.340    457.386    457.386    457.386
111.470    559.838    559.390      0.448    457.252    559.391    457.252    457.252    457.252
111.570    600.000    557.290     42.710    457.122    557.290    457.122    457.122    457.122
111.670    520.854    555.962    -35.108    456.995    555.961    456.995    456.995    456.995
111.770    585.346    555.327     30.019    456.872    555.324    456.872    456.872    456.872
111.870    592.000    555.305     36.695    456.753    555.301    456.753    456.753    456.753
111.970    581.000    555.821     25.179    456.637    555.816    456.637    456.637    456.637
112.070    557.000    556.805      0.195    456.525    556.799    456.525    456.525    456.525
112.170    546.000    558.195    -12.195    456.418    558.188    456.418    456.418    456.418
112.270    566.000    559.937      6.063    456.313    559.930    456.313    456.313    456.313
112.370    577.000    561.991     15.009    456.213    561.984    456.213    456.213    456.213
112.470    554.000    564.327    -10.327    456.117    564.319    456.117    456.117    456.117
112.570    578.384    566.927     11.457    456.025    566.919    456.025    456.025    456.025
112.670    544.921    569.784    -24.863    455.937    569.775    455.937    455.937    455.937
112.770    584.000    572.919     11.081    455.853    572.910    455.853    455.853    455.853
112.870    629.000    576.351     52.649    455.774    576.341    455.774    455.774    455.774
112.970    585.000    580.115      4.885    455.699    580.105    455.699    455.699    455.699
113.070    591.463    584.261      7.202    455.628    584.251    455.628    455.628    455.628
113.170    621.825    588.874     32.952    455.561    588.863    455.561    455.561    455.561
113.270    634.279    594.035     40.244    455.499    594.024    455.499    455.499    455.499
113.370    546.131    599.859    -53.727    455.442    599.847    455.442    455.442    455.442
113.470    586.000    606.490    -20.490    455.389    606.478    455.389    455.389    455.389
113.570    619.000    614.117      4.883    455.340    614.102    455.340    455.340    455.340
113.670    679.229    622.974     56.256    455.297    622.958    455.297    455.297    455.297
113.770    614.000    633.361    -19.361    455.258    633.343    455.258    455.258    455.258
113.870    637.674    645.657     -7.983    455.224    645.635    455.224    455.224    455.224
113.970    676.000    660.330     15.670    455.195    660.305    455.195    455.195    455.195
114.070    664.278    677.962    -13.684    455.171    677.933    455.171    455.171    455.171
114.170    671.089    699.266    -28.176    455.151    699.230    455.151    455.151    455.151
114.270    695.483    725.098    -29.615    455.137    725.055    455.137    455.137    455.137
114.370    763.000    756.482      6.518    455.128    756.429    455.128    455.128    455.128
114.470    774.583    794.616    -20.033    455.124    794.552    455.124    455.124    455.124
114.570    858.000    840.885     17.115    455.126    840.808    455.126    455.126    455.126
114.670    864.000    896.857    -32.857    455.132    896.764    455.132    455.132    455.132
114.770    897.842    964.276    -66.434    455.144    964.164    455.144    455.144    455.144
114.870   1010.921   1045.038    -34.118    455.162   1044.905    455.162    455.162    455.162
114.970   1175.000   1141.155     33.845    455.185   1140.996    455.185    455.185    455.185
115.070   1289.000   1254.698     34.302    455.213   1254.513    455.213    455.213    455.213
115.170   1366.000   1387.733    -21.733    455.248   1387.517    455.248    455.248    455.248
115.270   1503.732   1542.227    -38.496    455.287   1541.978    455.287    455.287    455.287
115.370   1644.235   1719.946    -75.711    455.333   1719.662    455.333    455.333    455.333
115.470   2017.000   1922.339     94.661    455.384   1922.018    455.384    455.384    455.384
115.570   2193.772   2150.413     43.359    455.442   2150.054    455.442    455.442    455.442
115.670   2458.000   2404.601     53.399    455.505   2404.205    455.505    455.505    455.505
115.770   2831.000   2684.643    146.357    455.574   2684.211    455.574    455.574    455.574
115.870   3086.000   2989.463     96.537    455.650   2988.998    455.650    455.650    455.650
115.970   3340.000   3317.077     22.923    455.731   3316.583    455.731    455.731    455.731
116.070   3789.000   3664.512    124.488    455.819   3663.994    455.819    455.819    455.819
116.170   3940.815   4027.754    -86.939    455.913   4027.221    455.913    455.913    455.913
116.270   4273.922   4401.729   -127.807    456.013   4401.189    456.013    456.013    456.013
116.370   4764.000   4780.304    -16.304    456.120   4779.767    456.120    456.120    456.120
116.470   5198.000   5156.327     41.673    456.233   5155.805    456.233    456.233    456.233
116.570   5523.000   5521.702      1.298    456.353   5521.208    456.353    456.353    456.353
116.670   5863.166   5867.527     -4.361    456.480   5867.076    456.480    456.480    456.480
116.770   6257.000   6184.313     72.687    456.613   6183.919    456.613    456.613    456.613
116.870   6567.456   6462.330    105.125    456.753   6462.007    456.753    456.753    456.753
116.970   6697.000   6692.108      4.892    456.900   6691.867    456.900    456.900    456.900
117.070   6744.000   6865.089   -121.089    457.053   6864.942    457.053    457.053    457.053
117.170   6894.000   6974.395    -80.395    457.214   6974.348    457.214    457.214    457.214
117.270   7059.118   7015.553     43.564    457.382   7015.609    457.382    457.382    457.382
117.370   7000.000   6987.037     12.963    457.557   6987.192    457.557    457.557    457.557
117.470   6739.497   6890.455   -150.958    457.739   6890.702    457.739    457.739    457.739
117.570   6642.000   6730.338    -88.338    457.928   6730.668    457.928    457.928    457.928
117.670   6464.000   6513.588    -49.588    458.125   6513.986    458.125    458.125    458.125
117.770   6171.000   6248.730    -77.730    458.329   6249.182    458.329    458.329    458.329
117.870   5777.437   5945.161   -167.724    458.540   5945.652    458.540    458.540    458.540
117.970   5469.000   5612.490   -143.490    458.759   5613.005    458.759    458.759    458.759
118.070   5111.000   5260.051   -149.051    458.986   5260.577    458.986    458.986    458.986
118.170   4931.087   4896.563     34.525    459.221   4897.087    459.221    459.221    459.221
118.270   4489.000   4529.915    -40.915    459.463   4530.426    459.463    459.463    459.463
118.370   4123.000   4167.035    -44.035    459.713   4167.525    459.713    459.713    459.713
118.470   3957.000   3813.823    143.177    459.971   3814.284    459.971    459.971    459.971
118.570   3440.000   3475.120    -35.120    460.237   3475.546    460.237    460.237    460.237
118.670   3268.666   3154.714    113.952    460.511   3155.102    460.511    460.511    460.511
118.770   2811.000   2855.347    -44.347    460.794   2855.694    460.794    460.794    460.794
118.870   2605.000   2578.957     26.043    461.084   2579.264    461.084    461.084    461.084
118.970   2312.000   2326.525    -14.525    461.383   2326.792    461.383    461.383    461.383
119.070   2028.000   2098.304    -70.304    461.690   2098.532    461.690    461.690    461.690
119.170   1850.744   1893.937    -43.193    462.006   1894.128    462.006    462.006    462.006
119.270   1639.000   1712.565    -73.565    462.331   1712.723    462.331    462.331    462.331
119.370   1467.000   1552.936    -85.936    462.664   1553.065    462.664    462.664    462.664
119.470   1368.585   1413.514    -44.930    463.005   1413.617    463.005    463.005    463.005
119.570   1239.782   1292.580    -52.798    463.356   1292.661    463.356    463.356    463.356
119.670   1144.000   1188.317    -44.317    463.715   1188.379    463.715    463.715    463.715
119.770   1046.520   1098.892    -52.372    464.084   1098.938    464.084    464.084    464.084
119.870   1058.287   1022.517     35.770    464.461   1022.551    464.461    464.461    464.461
119.970    993.000    957.501     35.499    464.847    957.525    464.847    464.847    464.847
120.070    953.740    902.280     51.460    465.243    902.297    465.243    465.243    465.243
120.170    913.841    855.443     58.397    465.648    855.455    465.648    465.648    465.648
120.270    864.129    815.741     48.388    466.062    815.749    466.062    466.062    466.062
120.370    764.000    782.083    -18.083    466.486    782.089    466.486    466.486    466.486
120.470    726.738    753.536    -26.797    466.920    753.540    466.920    466.920    466.920
120.570    753.000    729.308     23.692    467.362    729.312    467.362    467.362    467.362
120.670    668.000    708.736    -40.736    467.815    708.740    467.815    467.815    467.815
120.770    704.309    691.273     13.037    468.278    691.277    468.278    468.278    468.278
120.870    723.810    676.464     47.346    468.750    676.469    468.750    468.750    468.750
120.970    610.249    663.939    -53.690    469.232    663.945    469.232    469.232    469.232
121.070    609.000    653.396    -44.396    469.724    653.402    469.724    469.724    469.724
121.170    636.000    644.588     -8.588    470.227    644.595    470.227    470.227    470.227
121.270    629.000    637.312     -8.312    470.739    637.320    470.739    470.739    470.739
121.370    662.000    631.402     30.598    471.262    631.411    471.262    471.262    471.262
121.470    584.000    626.719    -42.719    471.796    626.730    471.796    471.796    471.796
121.570    660.565    623.147     37.418    472.339    623.158    472.339    472.339    472.339
121.670    593.000    620.583    -27.583    472.894    620.596    472.894    472.894    472.894
121.770    594.000    618.939    -24.939    473.459    618.953    473.459    473.459    473.459
121.870    647.378    618.133     29.246    474.034    618.149    474.034    474.034    474.034
121.970    654.053    618.089     35.965    474.621    618.106    474.621    474.621    474.621
122.070    646.000    618.732     27.268    475.218    618.751    475.218    475.218    475.218
122.170    625.000    619.987      5.013    475.827    620.009    475.827    475.827    475.827
122.270    582.000    621.780    -39.780    476.446    621.804    476.446    476.446    476.446
122.370    611.000    624.029    -13.029    477.077    624.055    477.077    477.077    477.077
122.470    626.209    626.652     -0.443    477.719    626.681    477.719    477.719    477.719
122.570    602.000    629.559    -27.559    478.373    629.591    478.373    478.373    478.373
122.670    593.000    632.657    -39.657    479.037    632.691    479.037    479.037    479.037
122.770    670.336    635.844     34.492    479.714    635.881    479.714    479.714    479.714
122.870    651.000    639.014     11.986    480.402    639.054    480.402    480.402    480.402
122.970    613.000    642.058    -29.058    481.102    642.101    481.102    481.102    481.102
123.070    638.375    644.864     -6.489    481.813    644.909    481.813    481.813    481.813
123.170    675.000    647.319     27.681    482.537    647.367    482.537    482.537    482.537
123.270    655.000    649.318      5.682    483.272    649.369    483.272    483.272    483.272
123.370    652.000    650.764      1.236    484.020    650.817    484.020    484.020    484.020
123.470    597.477    651.579    -54.102    484.780    651.634    484.780    484.780    484.780
123.570    679.000    651.705     27.295    485.552    651.761    485.552    485.552    485.552
123.670    708.000    651.109     56.891    486.337    651.166    486.337    486.337    486.337
123.770    623.000    649.787    -26.787    487.134    649.845    487.134    487.134    487.134
123.870    638.000    647.759     -9.759    487.943    647.818    487.943    487.943    487.943
123.970    663.000    645.070     17.930    488.766    645.128    488.766    488.766    488.766
124.070    665.000    641.781     23.219    489.601    641.838    489.601    489.601    489.601
124.170    645.000    637.965      7.035    490.449    638.021    490.449    490.449    490.449
124.270    632.000    633.703     -1.703    491.310    633.758    491.310    491.310    491.310
124.370    641.000    629.080     11.920    492.184    629.132    492.184    492.184    492.184
124.470    572.808    624.180    -51.373    493.071    624.230    493.071    493.071    493.071
124.570    612.000    619.086     -7.086    493.971    619.134    493.971    493.971    493.971
124.670    637.000    613.878     23.122    494.885    613.923    494.885    494.885    494.885
124.770    570.000    608.630    -38.630    495.813    608.672    495.813    495.813    495.813
124.870    576.687    603.413    -26.726    496.753    603.452    496.753    496.753    496.753
124.970    686.000    598.289     87.711    497.708    598.325    497.708    497.708    497.708
