neutron_powder_diffraction_0103
R_wp: 3.908
Temperature (K): 904.956
Counts: 83718.00
Wavelength (Ã…): 2.52098
COMMENTS
Test file for demonstrating the .xyy file format in Reel1.0
END OF HEADER
   tth       Y_obs     Y_calc      Y_res    Background    Phase_1_Nuc    Phase_1_Mag    Phase_2_Nuc    Phase_2_Mag
  9.970    571.000    549.781     21.219    548.597    549.528    548.597    548.849    548.597
 10.070    581.000    550.380     30.620    549.117    550.127    549.117    549.370    549.117
 10.170    564.000    550.980     13.020    549.626    550.725    549.626    549.880    549.626
 10.270    581.000    551.582     29.418    550.124    551.326    550.124    550.379    550.124
 10.370    586.000    552.189     33.811    550.611    551.933    550.611    550.866    550.611
 10.470    569.000    552.806     16.194    551.086    552.548    551.086    551.343    551.086
 10.570    580.000    553.437     26.563    551.552    553.178    551.552    551.810    551.552
 10.670    578.008    554.088     23.920    552.006    553.828    552.006    552.265    552.006
 10.770    638.000    554.768     83.232    552.450    554.507    552.450    552.710    552.450
 10.870    604.000    555.488     48.512    552.883    555.225    552.883    553.144    552.883
 10.970    536.912    556.264    -19.352    553.306    556.000    553.306    553.568    553.306
 11.070    600.000    557.117     42.883    553.719    556.852    553.719    553.982    553.719
 11.170    597.679    558.081     39.598    554.121    557.814    554.121    554.386    554.121
 11.270    521.095    559.203    -38.108    554.513    558.935    554.513    554.779    554.513
 11.370    620.000    560.572     59.428    554.895    560.303    554.895    555.162    554.895
 11.470    560.080    562.361     -2.281    555.267    562.089    555.267    555.535    555.267
 11.570    573.000    565.003      7.997    555.629    564.729    555.629    555.899    555.629
 11.670    621.000    569.532     51.468    555.982    569.255    555.982    556.252    555.982
 11.770    619.000    578.026     40.974    556.324    577.744    556.324    556.596    556.324
 11.870    640.000    593.565     46.435    556.657    593.272    556.657    556.930    556.657
 11.970    649.000    618.671     30.329    556.981    618.364    556.981    557.254    556.981
 12.070    656.000    651.698      4.302    557.294    651.372    557.294    557.570    557.294
 12.170    682.000    682.375     -0.375    557.599    682.032    557.599    557.875    557.599
 12.270    698.341    692.827      5.514    557.894    692.477    557.894    558.171    557.894
 12.370    634.000    674.554    -40.554    558.180    674.212    558.180    558.459    558.180
 12.470    629.168    641.528    -12.360    558.456    641.203    558.456    558.736    558.456
 12.570    609.000    610.857     -1.857    558.724    610.547    558.724    559.005    558.724
 12.670    562.866    589.603    -26.737    558.983    589.304    558.983    559.265    558.983
 12.770    531.336    577.426    -46.090    559.232    577.132    559.232    559.516    559.232
 12.870    609.243    571.233     38.010    559.473    570.941    559.473    559.758    559.473
 12.970    571.566    568.156      3.411    559.705    567.865    559.705    559.992    559.705
 13.070    528.000    566.499    -38.499    559.928    566.208    559.928    560.216    559.928
 13.170    577.000    565.491     11.509    560.143    565.199    560.143    560.432    560.143
 13.270    540.000    564.822    -24.822    560.349    564.529    560.349    560.640    560.349
 13.370    575.000    564.362     10.638    560.547    564.068    560.547    560.839    560.547
 13.470    591.944    564.041     27.903    560.736    563.746    560.736    561.030    560.736
 13.570    548.251    563.820    -15.569    560.917    563.524    560.917    561.212    560.917
 13.670    554.000    563.670     -9.670    561.090    563.373    561.090    561.386    561.090
 13.770    559.000    563.572     -4.572    561.255    563.274    561.255    561.553    561.255
 13.870    570.745    563.513      7.232    561.412    563.213    561.412    561.711    561.412
 13.970    583.658    563.484     20.174    561.560    563.183    561.560    561.861    561.560
 14.070    562.409    563.475     -1.066    561.701    563.172    561.701    562.003    561.701
 14.170    536.000    563.480    -27.480    561.834    563.176    561.834    562.137    561.834
 14.270    486.000    563.495    -77.495    561.959    563.190    561.959    562.264    561.959
 14.370    574.066    563.519     10.547    562.076    563.212    562.076    562.383    562.076
 14.470    552.000    563.548    -11.548    562.186    563.239    562.186    562.494    562.186
 14.570    531.572    563.579    -32.008    562.288    563.269    562.288    562.598    562.288
 14.670    560.000    563.613     -3.613    562.383    563.301    562.383    562.694    562.383
 14.770    574.000    563.646     10.354    562.470    563.333    562.470    562.783    562.470
 14.870    569.000    563.678      5.322    562.550    563.364    562.550    562.865    562.550
 14.970    527.000    563.709    -36.709    562.623    563.393    562.623    562.939    562.623
 15.070    580.549    563.738     16.812    562.688    563.420    562.688    563.006    562.688
 15.170    575.000    563.763     11.237    562.747    563.444    562.747    563.066    562.747
 15.270    613.000    563.786     49.214    562.798    563.464    562.798    563.119    562.798
 15.370    527.000    563.804    -36.804    562.843    563.481    562.843    563.165    562.843
 15.470    525.794    563.818    -38.024    562.880    563.493    562.880    563.205    562.880
 15.570    564.000    563.828      0.172    562.911    563.502    562.911    563.237    562.911
 15.670    529.833    563.834    -34.001    562.935    563.505    562.935    563.263    562.935
 15.770    576.704    563.846     12.859    562.952    563.515    562.952    563.282    562.952
 15.870    556.000    563.953     -7.953    562.962    563.621    562.962    563.294    562.962
 15.970    525.000    563.960    -38.960    562.966    563.626    562.966    563.300    562.966
 16.070    604.654    563.947     40.707    562.964    563.611    562.964    563.300    562.964
 16.170    585.298    563.928     21.369    562.955    563.591    562.955    563.293    562.955
 16.270    575.000    563.906     11.094    562.940    563.566    562.940    563.280    562.940
 16.370    507.000    563.877    -56.877    562.918    563.536    562.918    563.260    562.918
 16.470    563.000    563.844     -0.844    562.891    563.500    562.891    563.234    562.891
 16.570    565.114    563.814      1.300    562.857    563.469    562.857    563.202    562.857
 16.670    587.846    563.787     24.059    562.817    563.439    562.817    563.165    562.817
 16.770    543.000    563.739    -20.739    562.771    563.389    562.771    563.121    562.771
 16.870    561.000    563.684     -2.684    562.719    563.332    562.719    563.071    562.719
 16.970    568.000    563.624      4.376    562.661    563.270    562.661    563.015    562.661
 17.070    606.321    563.559     42.763    562.598    563.202    562.598    562.954    562.598
 17.170    560.050    563.488     -3.438    562.528    563.130    562.528    562.887    562.528
 17.270    568.000    563.413      4.587    562.453    563.052    562.453    562.814    562.453
 17.370    606.148    563.332     42.816    562.373    562.969    562.373    562.736    562.373
 17.470    540.328    563.247    -22.918    562.286    562.882    562.286    562.652    562.286
 17.570    563.047    563.157     -0.109    562.195    562.789    562.195    562.562    562.195
 17.670    580.283    563.065     17.218    562.097    562.695    562.097    562.468    562.097
 17.770    521.591    562.966    -41.375    561.995    562.593    561.995    562.367    561.995
 17.870    587.636    562.861     24.775    561.887    562.486    561.887    562.262    561.887
 17.970    557.000    562.751     -5.751    561.774    562.373    561.774    562.152    561.774
 18.070    544.732    562.636    -17.905    561.656    562.256    561.656    562.036    561.656
 18.170    530.366    562.517    -32.151    561.532    562.134    561.532    561.915    561.532
 18.270    579.000    562.393     16.607    561.404    562.008    561.404    561.789    561.404
 18.370    529.000    562.264    -33.264    561.270    561.876    561.270    561.658    561.270
 18.470    539.362    562.131    -22.769    561.132    561.741    561.132    561.523    561.132
 18.570    604.692    561.994     42.698    560.989    561.600    560.989    561.382    560.989
 18.670    598.669    561.852     36.817    560.841    561.456    560.841    561.237    560.841
 18.770    577.000    561.706     15.294    560.688    561.307    560.688    561.087    560.688
 18.870    542.000    561.556    -19.556    560.530    561.153    560.530    560.932    560.530
 18.970    575.701    561.403     14.298    560.368    560.998    560.368    560.773    560.368
 19.070    523.000    561.252    -38.252    560.201    560.844    560.201    560.610    560.201
 19.170    575.000    561.141     13.859    560.030    560.730    560.030    560.441    560.030
 19.270    524.401    561.001    -36.600    559.854    560.587    559.854    560.269    559.854
 19.370    528.477    560.833    -32.356    559.674    560.415    559.674    560.092    559.674
 19.470    555.000    560.659     -5.659    559.490    560.238    559.490    559.911    559.490
 19.570    580.696    560.481     20.215    559.301    560.057    559.301    559.725    559.301
 19.670    526.000    560.299    -34.299    559.108    559.871    559.108    559.536    559.108
 19.770    558.000    560.114     -2.114    558.910    559.683    558.910    559.342    558.910
 19.870    546.420    559.925    -13.506    558.709    559.490    558.709    559.144    558.709
 19.970    534.378    559.733    -25.355    558.504    559.295    558.504    558.942    558.504
 20.070    538.191    559.538    -21.347    558.294    559.095    558.294    558.737    558.294
 20.170    537.000    559.342    -22.342    558.081    558.895    558.081    558.527    558.081
 20.270    558.394    559.169     -0.776    557.863    558.719    557.863    558.314    557.863
 20.370    529.000    558.987    -29.987    557.642    558.533    557.642    558.097    557.642
 20.470    563.848    558.781      5.067    557.417    558.323    557.417    557.876    557.417
 20.570    553.000    558.571     -5.571    557.189    558.108    557.189    557.651    557.189
 20.670    516.893    558.357    -41.464    556.956    557.890    556.956    557.423    556.956
 20.770    569.000    558.142     10.858    556.720    557.670    556.720    557.192    556.720
 20.870    587.000    557.924     29.076    556.481    557.448    556.481    556.957    556.481
 20.970    542.151    557.711    -15.561    556.238    557.231    556.238    556.718    556.238
 21.070    548.000    557.493     -9.493    555.991    557.008    555.991    556.477    555.991
 21.170    588.000    557.275     30.725    555.741    556.785    555.741    556.232    555.741
 21.270    524.897    557.054    -32.157    555.488    556.559    555.488    555.983    555.488
 21.370    578.000    556.826     21.174    555.231    556.325    555.231    555.732    555.231
 21.470    517.000    556.596    -39.596    554.971    556.090    554.971    555.477    554.971
 21.570    534.000    556.364    -22.364    554.708    555.853    554.708    555.219    554.708
 21.670    598.498    556.133     42.365    554.442    555.616    554.442    554.959    554.442
 21.770    530.877    555.910    -25.032    554.172    555.387    554.172    554.695    554.172
 21.870    587.375    555.693     31.681    553.900    555.165    553.900    554.429    553.900
 21.970    577.000    555.478     21.522    553.625    554.944    553.625    554.159    553.625
 22.070    575.421    555.279     20.142    553.346    554.739    553.346    553.887    553.346
 22.170    578.512    555.060     23.453    553.065    554.513    553.065    553.612    553.065
 22.270    553.855    554.830     -0.974    552.781    554.276    552.781    553.335    552.781
 22.370    573.000    554.601     18.399    552.493    554.040    552.493    553.054    552.493
 22.470    558.000    554.375      3.625    552.204    553.807    552.204    552.772    552.204
 22.570    539.272    554.167    -14.895    551.911    553.592    551.911    552.487    551.911
 22.670    537.000    554.000    -17.000    551.616    553.418    551.616    552.199    551.616
 22.770    595.720    553.800     41.920    551.318    553.210    551.318    551.909    551.318
 22.870    511.504    553.597    -42.093    551.018    552.999    551.018    551.617    551.018
 22.970    542.000    553.409    -11.409    550.715    552.802    550.715    551.322    550.715
 23.070    556.070    553.244      2.826    550.409    552.628    550.409    551.026    550.409
 23.170    573.780    553.083     20.698    550.102    552.458    550.102    550.727    550.102
 23.270    522.000    552.970    -30.970    549.791    552.336    549.791    550.426    549.791
 23.370    526.441    552.877    -26.436    549.479    552.233    549.479    550.123    549.479
 23.470    537.000    552.793    -15.793    549.164    552.139    549.164    549.818    549.164
 23.570    511.719    552.751    -41.032    548.847    552.087    548.847    549.512    548.847
 23.670    587.000    552.773     34.227    548.528    552.098    548.528    549.203    548.528
 23.770    557.000    552.874      4.126    548.206    552.189    548.206    548.893    548.206
 23.870    553.000    553.086     -0.086    547.882    552.390    547.882    548.581    547.882
 23.970    550.663    553.461     -2.798    547.557    552.753    547.557    548.268    547.557
 24.070    560.000    554.116      5.884    547.229    553.396    547.229    547.953    547.229
 24.170    550.000    555.326     -5.326    546.899    554.593    546.899    547.637    546.899
 24.270    573.648    557.745     15.903    546.568    557.000    546.568    547.319    546.568
 24.370    531.938    562.685    -30.747    546.234    561.929    546.234    547.001    546.234
 24.470    586.000    572.121     13.879    545.899    571.356    545.899    546.681    545.899
 24.570    549.529    587.799    -38.270    545.562    587.030    545.562    546.359    545.562
 24.670    628.000    609.079     18.921    545.223    608.309    545.223    546.037    545.223
 24.770    627.000    630.047     -3.047    544.882    629.275    544.882    545.714    544.882
 24.870    613.000    638.882    -25.882    544.539    638.098    544.539    545.391    544.539
 24.970    622.000    628.218     -6.218    544.195    627.407    544.195    545.066    544.195
 25.070    652.000    606.241     45.759    543.850    605.394    543.850    544.741    543.850
 25.170    544.713    584.674    -39.961    543.503    583.789    543.503    544.416    543.503
 25.270    592.000    568.960     23.040    543.154    568.040    543.154    544.090    543.154
 25.370    581.459    559.435     22.024    542.804    558.485    542.804    543.764    542.804
 25.470    530.947    554.261    -23.314    542.452    553.281    542.452    543.438    542.452
 25.570    583.962    551.479     32.483    542.099    550.470    542.099    543.112    542.099
 25.670    529.000    549.834    -20.834    541.744    548.795    541.744    542.786    541.744
 25.770    576.000    548.716     27.284    541.389    547.646    541.389    542.461    541.389
 25.870    529.508    547.877    -18.369    541.031    546.774    541.031    542.137    541.031
 25.970    569.000    547.213     21.787    540.673    546.075    540.673    541.813    540.673
 26.070    562.000    546.674     15.326    540.314    545.499    540.314    541.490    540.314
 26.170    557.000    546.234     10.766    539.953    545.019    539.953    541.169    539.953
 26.270    582.479    545.875     36.604    539.591    544.617    539.591    540.849    539.591
 26.370    542.239    545.588     -3.349    539.228    544.286    539.228    540.532    539.228
 26.470    574.000    545.369     28.631    538.864    544.018    538.864    540.216    538.864
 26.570    567.000    545.216     21.784    538.499    543.813    538.499    539.903    538.499
 26.670    552.000    545.133      6.867    538.133    543.674    538.133    539.593    538.133
 26.770    554.000    545.129      8.871    537.766    543.609    537.766    539.286    537.766
 26.870    567.000    545.215     21.785    537.398    543.630    537.398    538.983    537.398
 26.970    595.000    545.409     49.591    537.030    543.755    537.030    538.684    537.030
 27.070    549.000    545.739      3.261    536.660    544.009    536.660    538.390    536.660
 27.170    508.641    546.240    -37.598    536.290    544.428    536.290    538.101    536.290
 27.270    596.000    546.969     49.031    535.918    545.069    535.918    537.818    535.918
 27.370    540.000    548.013     -8.013    535.547    546.017    535.547    537.542    535.547
 27.470    580.000    549.530     30.470    535.174    547.429    535.174    537.273    535.174
 27.570    547.000    551.912     -4.912    534.801    549.697    534.801    537.013    534.801
 27.670    595.000    556.382     38.618    534.427    554.044    534.427    536.761    534.427
 27.770    589.000    566.588     22.412    534.052    564.113    534.052    536.520    534.052
 27.870    547.000    590.975    -43.975    533.677    588.347    533.677    536.289    533.677
 27.970    696.000    642.541     53.459    533.302    639.740    533.302    536.069    533.302
 28.070    716.933    729.630    -12.697    532.925    726.635    532.925    535.862    532.925
 28.170    812.490    837.586    -25.097    532.549    834.386    532.549    535.668    532.549
 28.270    871.000    918.033    -47.033    532.172    914.634    532.172    535.487    532.172
 28.370    918.556    919.270     -0.714    531.794    915.684    531.794    535.321    531.794
 28.470    830.000    847.087    -17.087    531.417    843.303    531.417    535.168    531.417
 28.570    765.000    761.807      3.193    531.039    757.800    531.039    535.029    531.039
 28.670    724.000    717.530      6.470    530.660    713.274    530.660    534.901    530.660
 28.770    758.000    729.959     28.041    530.282    725.438    530.282    534.784    530.282
 28.870    805.000    778.707     26.293    529.903    773.918    529.903    534.673    529.903
 28.970    816.000    819.892     -3.892    529.523    814.841    529.523    534.564    529.523
 29.070    817.000    812.941      4.059    529.144    807.638    529.144    534.451    529.144
 29.170    751.410    756.681     -5.271    528.765    751.132    528.765    534.327    528.765
 29.270    707.000    683.757     23.243    528.385    677.972    528.385    534.184    528.385
 29.370    667.615    623.217     44.397    528.005    617.221    528.005    534.012    528.005
 29.470    638.000    584.636     53.364    527.626    578.465    527.626    533.803    527.626
 29.570    567.768    564.198      3.569    527.246    557.899    527.246    533.547    527.246
 29.670    608.000    554.363     53.637    526.866    547.990    526.866    533.240    526.866
 29.770    571.000    549.449     21.551    526.486    543.059    526.486    532.877    526.486
 29.870    563.000    546.575     16.425    526.107    540.225    526.107    532.457    526.107
 29.970    564.000    544.606     19.394    525.727    538.351    525.727    531.982    525.727
 30.070    558.000    543.160     14.840    525.348    537.048    525.348    531.459    525.348
 30.170    611.000    542.133     68.867    524.968    536.207    524.968    530.894    524.968
 30.270    498.295    541.595    -43.299    524.589    535.886    524.589    530.297    524.589
 30.370    538.000    541.868     -3.868    524.210    536.399    524.210    529.676    524.210
 30.470    585.248    543.731     41.517    523.831    538.516    523.831    529.041    523.831
 30.570    603.000    548.535     54.465    523.453    543.579    523.453    528.399    523.453
 30.670    587.000    557.815     29.185    523.074    553.115    523.074    527.758    523.074
 30.770    592.000    572.025     19.975    522.696    567.574    522.696    527.121    522.696
 30.870    596.000    588.631      7.369    522.319    584.419    522.319    526.494    522.319
 30.970    634.000    600.927     33.073    521.942    596.947    521.942    525.878    521.942
 31.070    606.000    601.283      4.717    521.565    597.531    521.565    525.276    521.565
 31.170    603.000    588.915     14.085    521.188    585.383    521.188    524.688    521.188
 31.270    590.000    570.983     19.017    520.812    567.659    520.812    524.115    520.812
 31.370    594.012    554.762     39.250    520.437    551.629    520.437    523.557    520.437
 31.470    582.000    543.348     38.652    520.062    540.389    520.062    523.013    520.062
 31.570    587.000    536.566     50.434    519.687    533.766    519.687    522.483    519.687
 31.670    552.000    532.911     19.089    519.313    530.256    519.313    521.966    519.313
 31.770    487.294    530.940    -43.646    518.939    528.418    518.939    521.461    518.939
 31.870    511.078    529.771    -18.693    518.566    527.369    518.566    520.967    518.566
 31.970    545.000    528.989     16.011    518.194    526.698    518.194    520.484    518.194
 32.070    544.210    528.434     15.776    517.822    526.245    517.822    520.011    517.822
 32.170    545.000    528.048     16.952    517.451    525.952    517.451    519.547    517.451
 32.270    540.000    527.809     12.191    517.081    525.798    517.081    519.091    517.081
 32.370    600.000    527.712     72.288    516.711    525.780    516.711    518.643    516.711
 32.470    547.000    527.766     19.234    516.342    525.906    516.342    518.202    516.342
 32.570    559.000    527.986     31.014    515.974    526.191    515.974    517.768    515.974
 32.670    520.000    528.400     -8.400    515.607    526.665    515.607    517.340    515.607
 32.770    560.721    529.049     31.673    515.240    527.370    515.240    516.918    515.240
 32.870    592.000    529.993     62.007    514.874    528.365    514.874    516.501    514.874
 32.970    550.411    531.321     19.091    514.509    529.740    514.509    516.089    514.509
 33.070    530.000    533.171     -3.171    514.145    531.633    514.145    515.682    514.145
 33.170    575.000    535.788     39.212    513.782    534.290    513.782    515.279    513.782
 33.270    542.147    539.696      2.452    513.419    538.233    513.419    514.880    513.419
 33.370    510.000    546.125    -36.125    513.058    544.696    513.058    514.484    513.058
 33.470    575.000    557.900     17.100    512.697    556.499    512.697    514.093    512.697
 33.570    573.000    580.590     -7.590    512.337    579.214    512.337    513.704    512.337
 33.670    615.000    622.840     -7.840    511.979    621.482    511.979    513.319    511.979
 33.770    656.675    693.715    -37.039    511.621    692.372    511.621    512.937    511.621
 33.870    752.000    795.569    -43.569    511.264    794.240    511.264    512.558    511.264
 33.970    953.785    913.701     40.085    510.909    912.388    510.909    512.182    510.909
 34.070   1007.000   1008.921     -1.921    510.554   1007.636    510.554    511.808    510.554
 34.170   1037.490   1030.998      6.493    510.201   1029.748    510.201    511.437    510.201
 34.270    986.000    964.345     21.655    509.848    963.127    509.848    511.068    509.848
 34.370    850.000    848.967      1.033    509.497    847.771    509.497    510.702    509.497
 34.470    748.000    734.793     13.207    509.147    733.611    509.147    510.338    509.147
 34.570    652.280    647.940      4.340    508.798    646.768    508.798    509.976    508.798
 34.670    618.000    592.547     25.453    508.450    591.384    508.450    509.617    508.450
 34.770    585.499    561.360     24.138    508.103    560.206    508.103    509.260    508.103
 34.870    539.000    544.796     -5.796    507.758    543.650    507.758    508.904    507.758
 34.970    554.884    535.699     19.185    507.413    534.562    507.413    508.551    507.413
 35.070    528.638    530.105     -1.467    507.070    528.975    507.070    508.201    507.070
 35.170    537.000    526.202     10.798    506.728    525.079    506.728    507.852    506.728
 35.270    519.000    523.235     -4.235    506.388    522.118    506.388    507.505    506.388
 35.370    530.000    520.868      9.132    506.049    519.757    506.049    507.160    506.049
 35.470    507.000    518.926    -11.926    505.711    517.820    505.711    506.817    505.711
 35.570    492.000    517.300    -25.300    505.374    516.199    505.374    506.476    505.374
 35.670    554.000    515.915     38.085    505.039    514.818    505.039    506.137    505.039
 35.770    496.000    514.718    -18.718    504.705    513.623    504.705    505.800    504.705
 35.870    468.000    513.669    -45.669    504.372    512.577    504.372    505.464    504.372
 35.970    515.000    512.740      2.260    504.041    511.651    504.041    505.131    504.041
 36.070    510.000    511.909     -1.909    503.711    510.821    503.711    504.799    503.711
 36.170    489.488    511.160    -21.672    503.383    510.073    503.383    504.470    503.383
 36.270    583.000    510.480     72.520    503.056    509.394    503.056    504.142    503.056
 36.370    495.955    509.861    -13.906    502.730    508.775    502.730    503.816    502.730
 36.470    499.000    509.296    -10.296    502.406    508.209    502.406    503.492    502.406
 36.570    515.239    508.781      6.459    502.083    507.694    502.083    503.170    502.083
 36.670    496.000    508.314    -12.314    501.762    507.226    501.762    502.850    501.762
 36.770    506.000    507.900     -1.900    501.442    506.810    501.442    502.532    501.442
 36.870    550.223    507.547     42.676    501.124    506.455    501.124    502.216    501.124
 36.970    511.000    507.284      3.716    500.807    506.190    500.807    501.901    500.807
 37.070    500.000    507.177     -7.177    500.492    506.081    500.492    501.588    500.492
 37.170    515.000    507.357      7.643    500.178    506.259    500.178    501.278    500.178
 37.270    470.358    508.037    -37.678    499.866    506.935    499.866    500.969    499.866
 37.370    506.000    509.464     -3.464    499.556    508.360    499.556    500.662    499.556
 37.470    489.000    511.807    -22.807    499.247    510.699    499.247    500.357    499.247
 37.570    486.000    514.905    -28.905    498.939    513.794    498.939    500.054    498.939
 37.670    494.521    518.043    -23.522    498.634    516.928    498.634    499.753    498.634
 37.770    510.000    519.914     -9.914    498.330    518.796    498.330    499.454    498.330
 37.870    527.000    519.472      7.528    498.027    518.351    498.027    499.157    498.027
 37.970    524.000    517.018      6.982    497.726    515.893    497.726    498.861    497.726
 38.070    508.873    513.682     -4.808    497.427    512.552    497.427    498.568    497.427
 38.170    516.000    510.346      5.654    497.129    509.210    497.129    498.277    497.129
 38.270    511.000    507.448      3.552    496.834    506.304    496.834    497.988    496.834
 38.370    470.707    505.172    -34.465    496.539    504.018    496.539    497.700    496.539
 38.470    510.000    503.510      6.490    496.247    502.347    496.247    497.415    496.247
 38.570    485.000    502.339    -17.339    495.956    501.167    495.956    497.132    495.956
 38.670    487.258    501.509    -14.251    495.667    500.328    495.667    496.851    495.667
 38.770    482.000    500.897    -18.897    495.379    499.707    495.379    496.571    495.379
 38.870    495.952    500.415     -4.463    495.094    499.216    495.094    496.294    495.094
 38.970    475.000    500.010    -25.010    494.810    498.802    494.810    496.019    494.810
 39.070    537.612    499.650     37.962    494.528    498.432    494.528    495.746    494.528
 39.170    476.000    499.319    -23.319    494.247    498.092    494.247    495.476    494.247
 39.270    479.102    499.010    -19.908    493.969    497.773    493.969    495.207    493.969
 39.370    493.000    498.718     -5.718    493.692    497.471    493.692    494.940    493.692
 39.470    475.704    498.441    -22.737    493.417    497.183    493.417    494.676    493.417
 39.570    523.816    498.177     25.639    493.144    496.908    493.144    494.413    493.144
 39.670    519.000    497.925     21.075    492.872    496.644    492.872    494.153    492.872
 39.770    527.598    497.684     29.914    492.602    496.392    492.602    493.895    492.602
 39.870    483.000    497.454    -14.454    492.335    496.150    492.335    493.640    492.335
 39.970    494.410    497.235     -2.826    492.069    495.919    492.069    493.386    492.069
 40.070    464.059    497.028    -32.969    491.804    495.698    491.804    493.135    491.804
 40.170    445.000    496.832    -51.832    491.542    495.489    491.542    492.886    491.542
 40.270    474.558    496.648    -22.090    491.282    495.291    491.282    492.639    491.282
 40.370    511.000    496.477     14.523    491.023    495.107    491.023    492.395    491.023
 40.470    481.000    496.321    -15.321    490.766    494.936    490.766    492.153    490.766
 40.570    480.000    496.181    -16.181    490.511    494.780    490.511    491.913    490.511
 40.670    446.000    496.058    -50.058    490.258    494.642    490.258    491.675    490.258
 40.770    490.495    495.955     -5.460    490.007    494.523    490.007    491.440    490.007
 40.870    471.951    495.876    -23.925    489.758    494.427    489.758    491.208    489.758
 40.970    473.000    495.824    -22.824    489.510    494.359    489.510    490.977    489.510
 41.070    492.372    495.805     -3.433    489.265    494.322    489.265    490.749    489.265
 41.170    486.000    495.825     -9.825    489.021    494.324    489.021    490.524    489.021
 41.270    522.347    495.894     26.453    488.780    494.374    488.780    490.301    488.780
 41.370    473.000    496.022    -23.022    488.540    494.483    488.540    490.081    488.540
 41.470    497.629    496.228      1.402    488.302    494.669    488.302    489.863    488.302
 41.570    492.000    496.535     -4.535    488.066    494.956    488.066    489.648    488.066
 41.670    525.169    496.984     28.186    487.832    495.384    487.832    489.435    487.832
 41.770    458.633    497.654    -39.021    487.600    496.033    487.600    489.225    487.600
 41.870    535.875    498.716     37.160    487.370    497.072    487.370    489.018    487.370
 41.970    539.000    500.527     38.473    487.142    498.861    487.142    488.813    487.142
 42.070    539.000    503.789     35.211    486.916    502.100    486.916    488.611    486.916
 42.170    518.906    509.659      9.248    486.692    507.948    486.692    488.412    486.692
 42.270    506.433    519.665    -13.232    486.470    517.933    486.470    488.215    486.470
 42.370    540.000    535.191      4.809    486.249    533.440    486.249    488.022    486.249
 42.470    523.000    556.472    -33.472    486.031    554.704    486.031    487.831    486.031
 42.570    516.000    581.321    -65.321    485.815    579.538    485.815    487.644    485.815
 42.670    582.000    603.981    -21.981    485.600    602.181    485.600    487.459    485.600
 42.770    591.616    615.752    -24.136    485.388    613.931    485.388    487.277    485.388
 42.870    567.154    610.639    -43.485    485.177    608.786    485.177    487.099    485.177
 42.970    553.000    591.432    -38.432    484.969    589.538    484.969    486.923    484.969
 43.070    531.861    566.479    -34.618    484.762    564.537    484.762    486.751    484.762
 43.170    555.638    542.992     12.646    484.558    541.002    484.558    486.582    484.558
 43.270    548.000    524.621     23.379    484.355    522.582    484.355    486.416    484.355
 43.370    517.000    512.047      4.953    484.155    509.963    484.155    486.254    484.155
 43.470    519.050    504.265     14.785    483.956    502.136    483.956    486.095    483.956
 43.570    540.000    499.735     40.265    483.760    497.561    483.760    485.940    483.760
 43.670    499.703    497.115      2.588    483.565    494.897    483.565    485.789    483.565
 43.770    496.733    495.515      1.218    483.373    493.250    483.373    485.641    483.373
 43.870    465.689    494.441    -28.753    483.182    492.130    483.182    485.497    483.182
 43.970    496.760    493.656      3.104    482.994    491.295    482.994    485.358    482.994
 44.070    516.000    493.046     22.954    482.807    490.634    482.807    485.222    482.807
 44.170    439.000    492.558    -53.558    482.623    490.092    482.623    485.090    482.623
 44.270    465.342    492.160    -26.818    482.440    489.639    482.440    484.963    482.440
 44.370    445.000    491.835    -46.835    482.260    489.256    482.260    484.841    482.260
 44.470    500.000    491.568      8.432    482.081    488.928    482.081    484.723    482.081
 44.570    492.000    491.350      0.650    481.905    488.646    481.905    484.610    481.905
 44.670    493.000    491.173      1.827    481.730    488.403    481.730    484.502    481.730
 44.770    453.000    491.033    -38.033    481.558    488.194    481.558    484.399    481.558
 44.870    482.000    490.926     -8.926    481.387    488.013    481.387    484.301    481.387
 44.970    498.693    490.849      7.844    481.219    487.859    481.219    484.210    481.219
 45.070    489.068    490.800     -1.732    481.053    487.729    481.053    484.124    481.053
 45.170    489.000    490.778     -1.778    480.888    487.622    480.888    484.045    480.888
 45.270    491.324    490.782      0.542    480.726    487.536    480.726    483.972    480.726
 45.370    498.000    490.812      7.188    480.565    487.471    480.565    483.907    480.565
 45.470    493.000    490.868      2.132    480.407    487.427    480.407    483.848    480.407
 45.570    479.000    490.950    -11.950    480.250    487.404    480.250    483.798    480.250
 45.670    477.000    491.061    -14.061    480.096    487.402    480.096    483.756    480.096
 45.770    518.000    491.202     26.798    479.944    487.424    479.944    483.722    479.944
 45.870    498.994    491.374      7.620    479.793    487.469    479.793    483.698    479.793
 45.970    516.007    491.580     24.426    479.645    487.541    479.645    483.684    479.645
 46.070    491.060    491.825     -0.764    479.498    487.643    479.498    483.681    479.498
 46.170    456.541    492.111    -35.570    479.354    487.776    479.354    483.689    479.354
 46.270    487.000    492.444     -5.444    479.211    487.946    479.211    483.710    479.211
 46.370    486.917    492.832     -5.915    479.071    488.159    479.071    483.744    479.071
 46.470    510.778    493.281     17.496    478.933    488.422    478.933    483.792    478.933
 46.570    487.000    493.804     -6.804    478.796    488.744    478.796    483.856    478.796
 46.670    518.411    494.416     23.995    478.662    489.140    478.662    483.937    478.662
 46.770    524.000    495.141     28.859    478.529    489.633    478.529    484.037    478.529
 46.870    455.457    496.021    -40.564    478.399    490.263    478.399    484.156    478.399
 46.970    535.586    497.140     38.446    478.270    491.112    478.270    484.297    478.270
 47.070    489.000    498.665     -9.665    478.144    492.345    478.144    484.462    478.144
 47.170    527.829    500.909     26.921    478.019    494.273    478.019    484.652    478.019
 47.270    537.000    504.395     32.605    477.896    497.416    477.896    484.870    477.896
 47.370    509.000    509.857     -0.857    477.776    502.506    477.776    485.119    477.776
 47.470    512.000    518.096     -6.096    477.657    510.340    477.657    485.400    477.657
 47.570    523.610    529.633     -6.023    477.540    521.435    477.540    485.717    477.540
 47.670    576.000    544.202     31.798    477.426    535.524    477.426    486.073    477.426
 47.770    603.815    560.204     43.611    477.313    551.006    477.313    486.470    477.313
 47.870    564.107    574.313    -10.207    477.202    564.554    477.202    486.912    477.202
 47.970    575.403    582.058     -6.656    477.093    571.699    477.093    487.401    477.093
 48.070    607.826    580.598     27.228    476.986    569.596    476.986    487.940    476.986
 48.170    606.718    571.372     35.346    476.881    559.682    476.881    488.532    476.881
 48.270    562.000    558.621      3.379    476.778    546.192    476.778    489.177    476.778
 48.370    518.404    546.278    -27.874    476.677    533.057    476.677    489.878    476.677
 48.470    540.000    536.650      3.350    476.577    522.583    476.577    490.633    476.577
 48.570    563.626    530.531     33.095    476.480    515.566    476.480    491.439    476.480
 48.670    467.000    527.718    -60.718    476.385    511.808    476.385    492.291    476.385
 48.770    499.187    527.551    -28.364    476.291    510.659    476.291    493.182    476.291
 48.870    520.000    529.345     -9.345    476.200    511.448    476.200    494.097    476.200
 48.970    503.000    532.629    -29.629    476.110    513.720    476.110    495.020    476.110
 49.070    562.000    537.248     24.752    476.022    517.344    476.022    495.927    476.022
 49.170    538.000    543.472     -5.472    475.936    522.617    475.936    496.792    475.936
 49.270    516.359    552.357    -35.998    475.852    530.628    475.852    497.582    475.852
 49.370    562.724    566.611     -3.887    475.770    544.119    475.770    498.261    475.770
 49.470    632.975    592.243     40.731    475.690    569.131    475.690    498.796    475.690
 49.570    629.021    640.771    -11.751    475.611    617.210    475.611    499.156    475.611
 49.670    726.000    730.553     -4.553    475.535    706.736    475.535    499.318    475.535
 49.770    851.209    884.408    -33.199    475.460    860.538    475.460    499.270    475.460
 49.870   1074.000   1120.685    -46.685    475.387   1096.969    475.387    499.013    475.387
 49.970   1402.262   1438.155    -35.894    475.316   1414.798    475.316    498.561    475.316
 50.070   1850.890   1800.543     50.347    475.247   1777.742    475.247    497.939    475.247
 50.170   2042.000   2130.090    -88.090    475.179   2108.024    475.179    497.178    475.179
 50.270   2317.000   2323.474     -6.474    475.114   2302.292    475.114    496.312    475.114
 50.370   2266.729   2304.504    -37.775    475.050   2284.293    475.050    495.378    475.050
 50.470   2074.000   2082.158     -8.158    474.988   2062.929    474.988    494.405    474.988
 50.570   1838.000   1742.548     95.452    474.928   1724.263    474.928    493.421    474.928
 50.670   1347.900   1387.364    -39.464    474.870   1369.974    474.870    492.450    474.870
 50.770   1026.000   1088.036    -62.036    474.813   1071.494    474.813    491.506    474.813
 50.870    904.000    874.262     29.738    474.759    858.528    474.759    490.602    474.759
 50.970    733.610    742.331     -8.721    474.706    727.368    474.706    489.747    474.706
 51.070    695.629    670.816     24.813    474.654    656.586    474.654    488.945    474.654
 51.170    633.000    634.804     -1.804    474.605    621.260    474.605    488.199    474.605
 51.270    657.041    614.380     42.661    474.557    601.472    474.557    487.509    474.557
 51.370    590.000    598.042     -8.042    474.511    585.717    474.511    486.875    474.511
 51.470    592.000    582.074      9.926    474.467    570.279    474.467    486.295    474.467
 51.570    553.000    566.893    -13.893    474.425    555.577    474.425    485.766    474.425
 51.670    564.963    553.754     11.209    474.384    542.872    474.384    485.286    474.384
 51.770    541.000    543.453     -2.453    474.345    532.960    474.345    484.853    474.345
 51.870    557.000    536.131     20.869    474.308    525.987    474.308    484.463    474.308
 51.970    497.000    531.458    -34.458    474.272    521.625    474.272    484.113    474.272
 52.070    497.508    528.898    -31.390    474.238    519.341    474.238    483.802    474.238
 52.170    546.108    527.960     18.148    474.206    518.646    474.206    483.526    474.206
 52.270    530.275    528.330      1.944    474.175    519.228    474.175    483.283    474.175
 52.370    595.000    529.931     65.069    474.146    521.012    474.146    483.071    474.146
 52.470    540.000    533.008      6.992    474.119    524.244    474.119    482.888    474.119
 52.570    556.000    538.275     17.725    474.093    529.641    474.093    482.733    474.093
 52.670    528.802    547.196    -18.395    474.069    538.669    474.069    482.602    474.069
 52.770    586.568    562.346     24.222    474.047    553.902    474.047    482.496    474.047
 52.870    578.000    587.660     -9.660    474.026    579.279    474.026    482.413    474.026
 52.970    603.512    628.221    -24.710    474.007    619.884    474.007    482.352    474.007
 53.070    651.568    689.176    -37.608    473.990    680.863    473.990    482.311    473.990
 53.170    842.000    773.600     68.400    473.974    765.296    473.974    482.290    473.974
 53.270    904.000    879.627     24.373    473.960    871.317    473.960    482.289    473.960
 53.370    946.836    997.479    -50.644    473.947    989.150    473.947    482.307    473.947
 53.470   1130.000   1107.348     22.652    473.936   1098.985    473.936    482.343    473.936
 53.570   1132.278   1181.092    -48.814    473.926   1172.681    473.926    482.398    473.926
 53.670   1162.375   1193.380    -31.005    473.918   1184.901    473.918    482.470    473.918
 53.770   1100.000   1139.317    -39.317    473.911   1130.744    473.911    482.561    473.911
 53.870   1067.000   1038.935     28.065    473.906   1030.244    473.906    482.670    473.906
 53.970    924.537    921.633      2.904    473.903    912.799    473.903    482.797    473.903
 54.070    769.000    810.757    -41.757    473.901    801.763    473.901    482.943    473.901
 54.170    744.109    719.331     24.777    473.900    710.159    473.900    483.108    473.900
 54.270    609.528    651.558    -42.030    473.901    642.192    473.901    483.292    473.901
 54.370    594.000    605.667    -11.667    473.904    596.092    473.904    483.497    473.904
 54.470    560.000    576.901    -16.901    473.908    567.098    473.908    483.723    473.908
 54.570    547.000    559.959    -12.959    473.913    549.911    473.913    483.971    473.913
 54.670    553.000    550.448      2.552    473.920    540.134    473.920    484.243    473.920
 54.770    520.833    545.348    -24.514    473.928    534.746    473.928    484.538    473.928
 54.870    544.000    542.855      1.145    473.938    531.940    473.938    484.859    473.938
 54.970    559.000    542.012     16.988    473.949    530.759    473.949    485.208    473.949
 55.070    577.000    542.360     34.640    473.962    530.742    473.962    485.586    473.962
 55.170    531.000    543.708    -12.708    473.976    531.695    473.976    485.995    473.976
 55.270    558.000    546.006     11.994    473.991    533.565    473.991    486.438    473.991
 55.370    571.000    549.293     21.707    474.008    536.390    474.008    486.917    474.008
 55.470    536.000    553.696    -17.696    474.026    540.293    474.026    487.435    474.026
 55.570    548.000    559.469    -11.469    474.045    545.526    474.045    487.996    474.045
 55.670    600.685    567.116     33.568    474.066    552.588    474.066    488.601    474.066
 55.770    549.000    577.648    -28.648    474.088    562.487    474.088    489.257    474.088
 55.870    567.000    593.061    -26.061    474.111    577.214    474.111    489.966    474.111
 55.970    589.843    617.101    -27.259    474.136    600.510    474.136    490.734    474.136
 56.070    638.000    656.209    -18.209    474.162    638.810    474.162    491.566    474.162
 56.170    684.000    720.263    -36.263    474.189    701.987    474.189    492.467    474.189
 56.270    787.106    822.343    -35.237    474.218    803.116    474.218    493.443    474.218
 56.370    920.000    976.548    -56.548    474.247    956.290    474.247    494.502    474.247
 56.470   1136.533   1193.316    -56.784    474.278   1171.944    474.278    495.650    474.278
 56.570   1427.000   1472.766    -45.766    474.311   1450.193    474.311    496.894    474.311
 56.670   1759.000   1797.728    -38.728    474.344   1773.867    474.344    498.243    474.344
 56.770   2089.344   2128.458    -39.114    474.379   2103.215    474.379    499.705    474.379
 56.870   2370.000   2402.195    -32.195    474.415   2375.470    474.415    501.290    474.415
 56.970   2542.982   2546.667     -3.686    474.452   2518.343    474.452    503.006    474.452
 57.070   2514.000   2515.586     -1.586    474.490   2485.513    474.490    504.862    474.490
 57.170   2353.000   2321.131     31.869    474.530   2289.128    474.530    506.868    474.530
 57.270   1996.238   2024.022    -27.784    474.570   1989.888    474.570    509.033    474.570
 57.370   1745.790   1695.361     50.428    474.612   1658.899    474.612    511.364    474.612
 57.470   1373.545   1389.839    -16.293    474.655   1350.861    474.655    513.868    474.655
 57.570   1158.202   1138.632     19.571    474.699   1096.960    474.699    516.549    474.699
 57.670    971.647    952.074     19.573    474.744    907.538    474.744    519.408    474.744
 57.770    822.000    825.871     -3.871    474.791    778.306    474.791    522.442    474.791
 57.870    769.000    748.323     20.677    474.838    697.577    474.838    525.641    474.838
 57.970    711.000    706.555      4.445    474.886    652.489    474.886    528.989    474.886
 58.070    694.122    690.396      3.726    474.936    632.897    474.936    532.459    474.936
 58.170    680.000    693.762    -13.762    474.986    632.748    474.986    536.013    474.986
 58.270    728.000    714.168     13.832    475.038    649.612    475.038    539.598    475.038
 58.370    704.184    751.263    -47.079    475.090    683.200    475.090    543.148    475.090
 58.470    852.207    805.035     47.172    475.144    733.584    475.144    546.582    475.144
 58.570    840.000    874.126    -34.126    475.198    799.500    475.198    549.807    475.198
 58.670    988.654    954.528     34.125    475.254    877.046    475.254    552.718    475.254
 58.770   1051.000   1039.193     11.807    475.310    959.281    475.310    555.209    475.310
 58.870   1083.321   1119.449    -36.129    475.368   1037.634    475.368    557.180    475.368
 58.970   1167.941   1187.528    -19.587    475.426   1104.421    475.426    558.545    475.426
 59.070   1299.000   1237.190     61.810    475.485   1153.462    475.485    559.240    475.485
 59.170   1365.000   1262.635    102.365    475.546   1178.986    475.546    559.235    475.546
 59.270   1286.534   1260.544     25.990    475.607   1177.667    475.607    558.535    475.607
 59.370   1282.023   1234.894     47.129    475.669   1153.437    475.669    557.177    475.669
 59.470   1194.396   1197.356     -2.960    475.732   1117.895    475.732    555.230    475.732
 59.570   1224.000   1161.802     62.198    475.795   1084.823    475.795    552.786    475.795
 59.670   1110.000   1139.803    -29.803    475.860   1065.695    475.860    549.946    475.860
 59.770   1149.110   1140.631      8.479    475.926   1069.676    475.926    546.817    475.926
 59.870   1216.000   1171.684     44.316    475.992   1104.067    475.992    543.501    475.992
 59.970   1209.000   1235.393    -26.393    476.059   1171.208    476.059    540.089    476.059
 60.070   1393.000   1324.958     68.042    476.127   1264.229    476.127    536.659    476.127
 60.170   1431.000   1422.565      8.435    476.195   1365.260    476.195    533.275    476.195
 60.270   1530.000   1501.084     28.916    476.265   1447.132    476.265    529.985    476.265
 60.370   1600.000   1531.131     68.869    476.335   1480.429    476.335    526.825    476.335
 60.470   1479.618   1494.717    -15.099    476.406   1447.134    476.406    523.819    476.406
 60.570   1335.000   1396.085    -61.085    476.478   1351.461    476.478    520.983    476.478
 60.670   1265.328   1257.581      7.747    476.550   1215.736    476.550    518.323    476.550
 60.770   1070.409   1106.350    -35.941    476.623   1067.094    476.623    515.843    476.623
 60.870   1013.924    964.628     49.296    476.697    927.773    476.697    513.539    476.697
 60.970    844.000    846.386     -2.386    476.772    811.749    476.772    511.407    476.772
 61.070    767.238    757.624      9.614    476.847    725.035    476.847    509.439    476.847
 61.170    738.000    698.474     39.526    476.923    667.771    476.923    507.626    476.923
 61.270    646.000    666.119    -20.119    476.999    637.153    476.999    505.959    476.999
 61.370    702.000    657.551     44.449    477.076    630.185    477.076    504.427    477.076
 61.470    668.000    671.358     -3.358    477.154    645.465    477.154    503.021    477.154
 61.570    714.000    708.125      5.875    477.232    683.587    477.232    501.730    477.232
 61.670    810.000    769.394     40.606    477.311    746.103    477.311    500.543    477.311
 61.770    818.000    855.738    -37.738    477.391    833.596    477.391    499.452    477.391
 61.870    984.000    964.372     19.628    477.471    943.293    477.471    498.448    477.471
 61.970   1057.000   1087.072    -30.072    477.551   1066.981    477.551    497.522    477.551
 62.070   1236.000   1208.961     27.039    477.632   1189.799    477.632    496.668    477.632
 62.170   1300.879   1309.014     -8.135    477.714   1290.730    477.714    495.877    477.714
 62.270   1297.311   1364.282    -66.971    477.796   1346.833    477.796    495.145    477.796
 62.370   1369.209   1359.261      9.948    477.878   1342.606    477.878    494.467    477.878
 62.470   1218.000   1294.922    -76.922    477.961   1279.013    477.961    493.838    477.961
 62.570   1087.000   1188.003   -101.003    478.045   1172.788    478.045    493.254    478.045
 62.670   1008.872   1061.457    -52.585    478.129   1046.885    478.129    492.714    478.129
 62.770    977.947    935.601     42.346    478.213    921.622    478.213    492.212    478.213
 62.870    777.000    824.336    -47.336    478.298    810.908    478.298    491.748    478.298
 62.970    670.000    734.763    -64.763    478.383    721.847    478.383    491.319    478.383
 63.070    625.000    668.291    -43.291    478.469    655.852    478.469    490.922    478.469
 63.170    620.000    622.482     -2.482    478.555    610.491    478.555    490.556    478.555
 63.270    604.000    593.059     10.941    478.641    581.487    478.641    490.219    478.641
 63.370    580.000    575.571      4.429    478.728    564.391    478.728    489.909    478.728
 63.470    555.000    566.441    -11.441    478.815    555.630    478.815    489.624    478.815
 63.570    551.000    563.418    -12.418    478.902    552.953    478.902    489.364    478.902
 63.670    592.000    565.622     26.378    478.990    555.480    478.990    489.126    478.990
 63.770    619.000    573.376     45.624    479.078    563.534    479.078    488.908    479.078
 63.870    613.000    587.929     25.071    479.166    578.367    479.166    488.711    479.166
 63.970    653.000    611.074     41.926    479.254    601.770    479.254    488.532    479.254
 64.070    673.000    644.606     28.394    479.343    635.542    479.343    488.370    479.343
 64.170    671.000    689.624    -18.624    479.432    680.780    479.432    488.225    479.432
 64.270    771.000    745.722     25.278    479.521    737.082    479.521    488.095    479.521
 64.370    819.000    810.211      8.789    479.610    801.762    479.610    487.979    479.610
 64.470    840.000    877.518    -37.518    479.700    869.249    479.700    487.877    479.700
 64.570    941.000    939.117      1.883    479.790    931.022    479.790    487.788    479.790
 64.670   1013.600    984.827     28.774    479.879    976.902    479.879    487.711    479.879
 64.770    952.000   1006.091    -54.091    479.970    998.335    479.970    487.646    479.970
 64.870   1069.000    999.642     69.358    480.060    992.050    480.060    487.591    480.060
 64.970   1005.000    968.552     36.448    480.150    961.117    480.150    487.547    480.150
 65.070    903.000    920.312    -17.312    480.240    913.024    480.240    487.513    480.240
 65.170    844.000    863.946    -19.946    480.331    856.793    480.331    487.488    480.331
 65.270    825.000    807.385     17.615    480.421    800.355    480.421    487.472    480.421
 65.370    737.000    755.824    -18.824    480.512    748.903    480.512    487.465    480.512
 65.470    666.000    711.465    -45.465    480.603    704.639    480.603    487.466    480.603
 65.570    655.000    674.398    -19.398    480.693    667.655    480.693    487.475    480.693
 65.670    677.000    643.886     33.114    480.784    637.215    480.784    487.492    480.784
 65.770    621.000    619.182      1.818    480.875    612.573    480.875    487.516    480.875
 65.870    592.000    599.652     -7.652    480.966    593.096    480.966    487.547    480.966
 65.970    548.000    584.668    -36.668    481.056    578.158    481.056    487.585    481.056
 66.070    565.000    573.597     -8.597    481.147    567.127    481.147    487.631    481.147
 66.170    519.000    565.855    -46.855    481.238    559.420    481.238    487.683    481.238
 66.270    555.000    560.941     -5.941    481.328    554.536    481.328    487.741    481.328
 66.370    576.000    558.447     17.553    481.419    552.066    481.419    487.806    481.419
 66.470    519.000    558.067    -39.067    481.509    551.704    481.509    487.878    481.509
 66.570    569.000    559.635      9.365    481.599    553.285    481.599    487.956    481.599
 66.670    560.000    563.213     -3.213    481.689    556.869    481.689    488.040    481.689
 66.770    591.000    569.217     21.783    481.779    562.872    481.779    488.131    481.779
 66.870    567.000    578.617    -11.617    481.869    572.266    481.869    488.228    481.869
 66.970    610.000    593.213     16.787    481.959    586.847    481.959    488.332    481.959
 67.070    645.000    615.963     29.037    482.048    609.576    482.048    488.443    482.048
 67.170    648.000    651.279     -3.279    482.138    644.865    482.138    488.560    482.138
 67.270    704.000    705.115     -1.115    482.227    698.665    482.227    488.684    482.227
 67.370    776.000    784.598     -8.598    482.316    778.109    482.316    488.815    482.316
 67.470    899.812    896.999      2.813    482.404    890.466    482.404    488.953    482.404
 67.570   1030.000   1047.925    -17.925    482.493   1041.348    482.493    489.099    482.493
 67.670   1285.000   1238.948     46.052    482.581   1232.329    482.581    489.252    482.581
 67.770   1508.000   1465.100     42.900    482.669   1458.443    482.669    489.413    482.669
 67.870   1644.608   1712.789    -68.181    482.756   1706.102    482.756    489.583    482.756
 67.970   1958.131   1958.641     -0.511    482.844   1951.928    482.844    489.761    482.844
 68.070   2179.000   2170.046      8.954    482.931   2163.309    482.931    489.949    482.931
 68.170   2296.000   2309.692    -13.692    483.017   2302.922    483.017    490.147    483.017
 68.270   2380.274   2346.908     33.366    483.104   2340.080    483.104    490.354    483.104
 68.370   2259.982   2272.450    -12.468    483.189   2265.523    483.189    490.573    483.189
 68.470   2058.000   2104.125    -46.125    483.275   2097.049    483.275    490.803    483.275
 68.570   1875.000   1876.789     -1.789    483.360   1869.520    483.360    491.046    483.360
 68.670   1680.000   1627.273     52.727    483.445   1619.777    483.445    491.302    483.445
 68.770   1427.000   1385.302     41.698    483.529   1377.557    483.529    491.572    483.529
 68.870   1179.344   1170.795      8.550    483.613   1162.783    483.613    491.858    483.613
 68.970   1032.000    994.135     37.865    483.697    985.846    483.697    492.160    483.697
 69.070    849.000    857.728     -8.728    483.780    849.154    483.780    492.481    483.780
 69.170    746.000    758.281    -12.281    483.862    749.412    483.862    492.822    483.862
 69.270    639.958    689.329    -49.371    483.944    680.152    483.944    493.184    483.944
 69.370    635.000    643.451     -8.451    484.026    633.951    484.026    493.571    484.026
 69.470    640.000    613.814     26.186    484.107    603.971    484.107    493.983    484.107
 69.570    607.000    594.957     12.043    484.187    584.744    484.187    494.424    484.187
 69.670    558.000    582.955    -24.955    484.267    572.344    484.267    494.898    484.267
 69.770    542.000    575.227    -33.227    484.347    564.183    484.347    495.407    484.347
 69.870    577.111    570.197      6.913    484.426    558.683    484.426    495.954    484.426
 69.970    537.000    566.962    -29.962    484.504    554.932    484.504    496.545    484.504
 70.070    564.000    565.031     -1.031    484.582    552.438    484.582    497.185    484.582
 70.170    592.000    564.159     27.841    484.659    550.949    484.659    497.877    484.659
 70.270    557.670    564.248     -6.577    484.735    550.362    484.735    498.629    484.735
 70.370    614.000    565.309     48.691    484.811    550.681    484.811    499.446    484.811
 70.470    588.000    567.466     20.534    484.886    552.022    484.886    500.336    484.886
 70.570    645.000    571.000     74.000    484.961    554.659    484.961    501.307    484.961
 70.670    597.230    576.436     20.794    485.035    559.108    485.035    502.365    485.035
 70.770    561.000    584.673    -23.673    485.108    566.261    485.108    503.521    485.108
 70.870    604.810    597.154      7.656    485.180    577.550    485.180    504.783    485.180
 70.970    623.000    616.038      6.962    485.252    595.124    485.252    506.161    485.252
 71.070    640.000    644.323     -4.323    485.323    621.970    485.323    507.665    485.323
 71.170    735.137    685.804     49.332    485.393    661.874    485.393    509.304    485.393
 71.270    768.000    744.783     23.217    485.463    719.127    485.463    511.089    485.463
 71.370    758.000    825.413    -67.413    485.532    797.872    485.532    513.029    485.532
 71.470    885.000    930.697    -45.697    485.600    901.106    485.600    515.132    485.600
 71.570   1031.000   1061.239    -30.239    485.667   1029.425    485.667    517.403    485.667
 71.670   1149.000   1213.973    -64.973    485.733   1179.765    485.733    519.848    485.733
 71.770   1419.000   1381.123     37.877    485.799   1344.350    485.799    522.467    485.799
 71.870   1480.656   1549.578    -68.922    485.864   1510.077    485.864    525.253    485.864
 71.970   1696.162   1700.981     -4.819    485.927   1658.605    485.927    528.197    485.927
 72.070   1869.000   1813.526     55.474    485.991   1768.150    485.991    531.276    485.991
 72.170   1891.000   1867.046     23.954    486.053   1818.579    486.053    534.458    486.053
 72.270   1796.000   1850.887    -54.887    486.114   1799.279    486.114    537.696    486.114
 72.370   1814.000   1769.216     44.784    486.174   1714.472    486.174    540.928    486.174
 72.470   1629.000   1638.695     -9.695    486.234   1580.893    486.234    544.072    486.234
 72.570   1523.000   1480.972     42.028    486.293   1420.287    486.293    547.031    486.293
 72.670   1351.901   1316.148     35.754    486.350   1252.866    486.350    549.694    486.350
 72.770   1161.765   1159.668      2.097    486.407   1094.194    486.407    551.943    486.407
 72.870    977.515   1021.591    -44.076    486.463    954.446    486.463    553.666    486.463
 72.970    861.000    906.942    -45.942    486.518    838.743    486.518    554.768    486.518
 73.070    786.000    816.602    -30.602    486.571    748.033    486.571    555.184    486.571
 73.170    702.377    748.522    -46.145    486.624    680.290    486.624    554.892    486.624
 73.270    749.868    699.002     50.866    486.676    631.796    486.676    553.911    486.676
 73.370    623.530    663.827    -40.297    486.727    598.272    486.727    552.306    486.727
 73.470    634.000    639.065     -5.065    486.777    575.694    486.777    550.169    486.777
 73.570    603.000    621.513    -18.513    486.825    560.745    486.825    547.612    486.825
 73.670    644.000    608.820     35.180    486.873    550.957    486.873    544.754    486.873
 73.770    581.396    599.417    -18.021    486.920    544.650    486.920    541.705    486.920
 73.870    607.431    592.342     15.088    486.965    540.763    486.965    538.563    486.965
 73.970    604.398    587.045     17.353    487.010    538.665    487.010    535.411    487.010
 74.070    588.000    583.210      4.790    487.053    537.976    487.053    532.312    487.053
 74.170    617.000    580.626     36.374    487.095    538.437    487.095    529.313    487.095
 74.270    589.000    579.082      9.918    487.137    539.803    487.137    526.448    487.137
 74.370    578.000    578.320     -0.320    487.177    541.797    487.177    523.739    487.177
 74.470    571.125    577.989     -6.864    487.216    544.052    487.216    521.197    487.216
 74.570    642.000    577.640     64.360    487.253    546.114    487.253    518.828    487.253
 74.670    630.000    576.769     53.231    487.290    547.480    487.290    516.632    487.290
 74.770    603.000    574.926     28.074    487.325    547.702    487.325    514.604    487.325
 74.870    609.000    571.881     37.119    487.359    546.556    487.359    512.739    487.359
 74.970    654.000    567.738     86.262    487.392    544.153    487.392    511.029    487.392
 75.070    594.125    562.892     31.233    487.424    540.899    487.424    509.463    487.424
 75.170    601.000    557.892     43.108    487.455    537.354    487.455    508.033    487.455
 75.270    569.225    553.314     15.911    487.484    534.102    487.484    506.729    487.484
 75.370    550.000    549.709      0.291    487.512    531.707    487.512    505.540    487.512
 75.470    574.000    547.606     26.394    487.539    530.707    487.539    504.457    487.539
 75.570    546.000    547.515     -1.515    487.565    531.621    487.565    503.470    487.565
 75.670    562.000    549.933     12.067    487.589    534.955    487.589    502.572    487.589
 75.770    525.913    555.323    -29.410    487.612    541.180    487.612    501.753    487.612
 75.870    545.000    564.061    -19.061    487.634    550.680    487.634    501.006    487.634
 75.970    598.000    576.355     21.645    487.654    563.670    487.654    500.323    487.654
 76.070    630.000    592.138     37.862    487.673    580.088    487.673    499.699    487.673
 76.170    569.000    610.951    -41.951    487.691    599.483    487.691    499.127    487.691
 76.270    663.538    631.849     31.689    487.707    620.915    487.707    498.603    487.707
 76.370    664.000    653.341     10.659    487.722    642.899    487.722    498.120    487.722
 76.470    705.000    673.386     31.614    487.736    663.397    487.736    497.676    487.736
 76.570    724.000    689.517     34.483    487.748    679.949    487.748    497.266    487.748
 76.670    648.000    699.236    -51.236    487.759    690.059    487.759    496.886    487.759
 76.770    721.004    700.716     20.287    487.769    691.905    487.769    496.534    487.769
 76.870    712.000    693.541     18.459    487.777    685.071    487.777    496.206    487.777
 76.970    735.000    678.900     56.100    487.784    670.748    487.784    495.901    487.784
 77.070    609.000    659.056    -50.056    487.789    651.202    487.789    495.616    487.789
 77.170    627.000    636.548     -9.548    487.793    628.971    487.793    495.349    487.793
 77.270    614.000    613.621      0.379    487.796    606.302    487.796    495.099    487.796
 77.370    557.000    591.987    -34.987    487.797    584.909    487.797    494.863    487.797
 77.470    578.000    572.782      5.218    487.797    565.930    487.797    494.642    487.797
 77.570    549.000    556.606     -7.606    487.795    549.963    487.795    494.432    487.795
 77.670    554.805    543.599     11.206    487.791    537.153    487.791    494.234    487.791
 77.770    539.788    533.567      6.221    487.787    527.306    487.787    494.046    487.787
 77.870    519.065    526.105     -7.040    487.780    520.016    487.780    493.868    487.780
 77.970    512.000    520.717     -8.717    487.773    514.791    487.773    493.698    487.773
 78.070    522.693    516.908      5.785    487.763    511.135    487.763    493.537    487.763
 78.170    504.740    514.247     -9.507    487.753    508.617    487.753    493.382    487.753
 78.270    512.000    512.386     -0.386    487.740    506.892    487.740    493.235    487.740
 78.370    517.000    511.070      5.930    487.726    505.703    487.726    493.093    487.726
 78.470    504.000    510.123     -6.123    487.711    504.877    487.711    492.957    487.711
 78.570    506.000    509.431     -3.431    487.694    504.299    487.694    492.827    487.694
 78.670    517.000    508.927      8.073    487.676    503.902    487.676    492.701    487.676
 78.770    464.000    508.573    -44.573    487.656    503.650    487.656    492.579    487.656
 78.870    521.000    508.358     12.642    487.634    503.530    487.634    492.462    487.634
 78.970    482.238    508.280    -26.043    487.611    503.543    487.611    492.349    487.611
 79.070    507.000    508.354     -1.354    487.586    503.702    487.586    492.239    487.586
 79.170    549.000    508.601     40.399    487.559    504.029    487.559    492.132    487.559
 79.270    509.000    509.051     -0.051    487.531    504.555    487.531    492.028    487.531
 79.370    538.436    509.739     28.697    487.502    505.314    487.502    491.927    487.502
 79.470    487.000    510.710    -23.710    487.471    506.352    487.471    491.828    487.471
 79.570    525.000    512.016     12.984    487.438    507.721    487.438    491.732    487.438
 79.670    534.455    513.726     20.729    487.403    509.491    487.403    491.637    487.403
 79.770    544.000    515.934     28.066    487.367    511.755    487.367    491.544    487.367
 79.870    550.681    518.763     31.918    487.329    514.638    487.329    491.453    487.329
 79.970    544.000    522.382     21.618    487.290    518.307    487.290    491.362    487.290
 80.070    543.969    527.007     16.963    487.249    522.980    487.249    491.273    487.249
 80.170    554.000    532.913     21.087    487.206    528.932    487.206    491.184    487.206
 80.270    568.000    540.431     27.569    487.162    536.495    487.162    491.096    487.162
 80.370    532.000    549.917    -17.917    487.116    546.024    487.116    491.008    487.116
 80.470    531.000    561.778    -30.778    487.068    557.928    487.068    490.921    487.068
 80.570    549.000    576.307    -27.307    487.018    572.499    487.018    490.832    487.018
 80.670    544.000    593.561    -49.561    486.967    589.795    486.967    490.744    486.967
 80.770    622.000    613.324      8.676    486.914    609.599    486.914    490.654    486.914
 80.870    638.107    635.030      3.077    486.859    631.346    486.859    490.564    486.859
 80.970    665.000    657.753      7.247    486.803    654.110    486.803    490.473    486.803
 81.070    714.686    680.275     34.412    486.745    676.673    486.745    490.381    486.745
 81.170    699.000    701.242     -2.242    486.685    697.681    486.685    490.287    486.685
 81.270    706.566    719.359    -12.793    486.624    715.838    486.624    490.193    486.624
 81.370    709.000    733.536    -24.536    486.561    730.055    486.561    490.097    486.561
 81.470    780.643    742.977     37.666    486.495    739.534    486.495    490.001    486.495
 81.570    746.000    747.239     -1.239    486.429    743.832    486.429    489.903    486.429
 81.670    771.000    746.260     24.740    486.360    742.889    486.360    489.805    486.360
 81.770    778.652    740.296     38.356    486.290    736.957    486.290    489.706    486.290
 81.870    700.000    729.844    -29.844    486.218    726.535    486.218    489.606    486.218
 81.970    706.000    715.658     -9.658    486.144    712.377    486.144    489.505    486.144
 82.070    671.000    698.761    -27.761    486.068    695.505    486.068    489.404    486.068
 82.170    734.000    680.320     53.680    485.991    677.085    485.991    489.303    485.991
 82.270    689.000    661.398     27.602    485.912    658.182    485.912    489.201    485.912
 82.370    624.000    642.778    -18.778    485.831    639.580    485.831    489.098    485.831
 82.470    576.000    624.941    -48.941    485.748    621.757    485.748    488.995    485.748
 82.570    574.000    608.174    -34.174    485.664    605.003    485.664    488.892    485.664
 82.670    589.000    592.709     -3.709    485.577    589.549    485.577    488.788    485.577
 82.770    553.000    578.794    -25.794    485.489    575.643    485.489    488.684    485.489
 82.870    537.483    566.683    -29.200    485.399    563.540    485.399    488.579    485.399
 82.970    529.000    556.596    -27.596    485.308    553.458    485.308    488.473    485.308
 83.070    505.000    548.689    -43.689    485.214    545.555    485.214    488.367    485.214
 83.170    541.000    543.046     -2.046    485.119    539.915    485.119    488.261    485.119
 83.270    534.000    539.670     -5.670    485.021    536.540    485.021    488.154    485.021
 83.370    504.000    538.476    -34.476    484.922    535.347    484.922    488.046    484.922
 83.470    505.779    539.279    -33.500    484.821    536.149    484.821    487.938    484.821
 83.570    505.174    541.786    -36.612    484.719    538.655    484.719    487.828    484.719
 83.670    553.946    545.590      8.356    484.614    542.456    484.614    487.719    484.614
 83.770    549.000    550.180     -1.180    484.508    547.043    484.508    487.608    484.508
 83.870    552.000    554.949     -2.949    484.399    551.809    484.399    487.497    484.399
 83.970    556.000    559.233     -3.233    484.289    556.091    484.289    487.385    484.289
 84.070    555.000    562.364     -7.364    484.177    559.220    484.177    487.272    484.177
 84.170    590.465    563.775     26.690    484.064    560.631    484.064    487.159    484.064
 84.270    541.000    563.126    -22.126    483.948    559.981    483.948    487.044    483.948
 84.370    593.455    560.391     33.064    483.831    557.247    483.831    486.929    483.831
 84.470    566.118    555.853     10.266    483.711    552.710    483.711    486.813    483.711
 84.570    534.108    549.994    -15.885    483.590    546.852    483.590    486.696    483.590
 84.670    506.449    543.367    -36.918    483.467    540.226    483.467    486.579    483.467
 84.770    532.000    536.497     -4.497    483.342    533.354    483.342    486.460    483.342
 84.870    527.747    529.823     -2.075    483.216    526.678    483.216    486.341    483.216
 84.970    511.000    523.677    -12.677    483.087    520.527    483.087    486.221    483.087
 85.070    468.000    518.277    -50.277    482.956    515.122    482.956    486.100    482.956
 85.170    486.000    513.739    -27.739    482.824    510.576    482.824    485.978    482.824
 85.270    509.227    510.085     -0.858    482.690    506.912    482.690    485.855    482.690
 85.370    517.000    507.273      9.727    482.554    504.090    482.554    485.731    482.554
 85.470    529.348    505.220     24.128    482.416    502.024    482.416    485.607    482.416
 85.570    521.000    503.824     17.176    482.276    500.614    482.276    485.481    482.276
 85.670    502.000    502.990     -0.990    482.135    499.764    482.135    485.355    482.135
 85.770    484.167    502.640    -18.473    481.991    499.397    481.991    485.229    481.991
 85.870    509.427    502.726      6.701    481.846    499.465    481.846    485.101    481.846
 85.970    492.000    503.237    -11.237    481.699    499.956    481.699    484.972    481.699
 86.070    525.486    504.200     21.286    481.549    500.897    481.549    484.843    481.549
 86.170    503.000    505.679     -2.679    481.398    502.353    481.398    484.714    481.398
 86.270    468.898    507.773    -38.875    481.246    504.422    481.246    484.583    481.246
 86.370    508.825    510.608     -1.783    481.091    507.230    481.091    484.452    481.091
 86.470    519.000    514.329      4.671    480.934    510.921    480.934    484.320    480.934
 86.570    497.867    519.074    -21.206    480.776    515.634    480.776    484.188    480.776
 86.670    516.027    524.961     -8.934    480.616    521.488    480.616    484.055    480.616
 86.770    527.495    532.060     -4.565    480.454    528.550    480.454    483.922    480.454
 86.870    493.000    540.359    -47.359    480.290    536.810    480.290    483.788    480.290
 86.970    592.364    549.737     42.627    480.124    546.147    480.124    483.653    480.124
 87.070    565.706    559.935      5.771    479.956    556.302    479.956    483.519    479.956
 87.170    599.000    570.546     28.454    479.787    566.868    479.787    483.384    479.787
 87.270    605.000    581.003     23.997    479.615    577.280    479.615    483.249    479.615
 87.370    570.000    590.603    -20.603    479.442    586.835    479.442    483.114    479.442
 87.470    631.000    598.551     32.449    479.267    594.738    479.267    482.978    479.267
 87.570    615.481    604.077     11.404    479.090    600.221    479.090    482.843    479.090
 87.670    586.000    606.609    -20.609    478.912    602.712    478.912    482.708    478.912
 87.770    608.650    605.939      2.710    478.731    602.003    478.731    482.573    478.731
 87.870    563.937    602.292    -38.354    478.549    598.316    478.549    482.438    478.549
 87.970    598.072    596.247      1.824    478.364    592.233    478.364    482.304    478.364
 88.070    570.079    588.593    -18.514    478.178    584.538    478.178    482.170    478.178
 88.170    589.894    580.179      9.715    477.991    576.082    477.991    482.037    477.991
 88.270    594.000    571.829     22.171    477.801    567.686    477.801    481.905    477.801
 88.370    589.000    564.277     24.723    477.609    560.085    477.609    481.774    477.609
 88.470    525.000    558.124    -33.124    477.416    553.879    477.416    481.644    477.416
 88.570    593.000    553.804     39.196    477.221    549.503    477.221    481.515    477.221
 88.670    511.079    551.569    -40.490    477.024    547.208    477.024    481.387    477.024
 88.770    607.000    551.482     55.518    476.825    547.056    476.825    481.262    476.825
 88.870    579.000    553.422     25.578    476.625    548.928    476.625    481.138    476.625
 88.970    575.000    557.103     17.897    476.423    552.537    476.423    481.016    476.423
 89.070    571.167    562.090      9.077    476.219    557.446    476.219    480.897    476.219
 89.170    590.430    567.820     22.610    476.013    563.095    476.013    480.781    476.013
 89.270    567.000    573.639     -6.639    475.805    568.827    475.805    480.667    475.805
 89.370    585.000    578.833      6.167    475.596    573.929    475.596    480.557    475.596
 89.470    651.000    582.699     68.301    475.385    577.696    475.385    480.450    475.385
 89.570    585.916    584.640      1.276    475.172    579.532    475.172    480.347    475.172
 89.670    550.872    584.285    -33.413    474.957    579.063    474.957    480.248    474.957
 89.770    568.888    581.563    -12.675    474.741    576.220    474.741    480.154    474.741
 89.870    572.187    576.713     -4.526    474.523    571.238    474.523    480.065    474.523
 89.970    554.316    570.191    -15.875    474.303    564.577    474.303    479.981    474.303
 90.070    550.855    562.560    -11.705    474.081    556.796    474.081    479.903    474.081
 90.170    524.000    554.381    -30.381    473.858    548.460    473.858    479.831    473.858
 90.270    527.000    546.157    -19.157    473.633    540.069    473.633    479.766    473.633
 90.370    554.377    538.297     16.080    473.406    532.034    473.406    479.708    473.406
 90.470    509.322    531.108    -21.786    473.178    524.660    473.178    479.658    473.178
 90.570    573.000    524.792     48.208    472.948    518.151    472.948    479.616    472.948
 90.670    551.000    519.448     31.552    472.716    512.603    472.716    479.582    472.716
 90.770    489.130    515.104    -25.973    472.483    508.046    472.483    479.557    472.483
 90.870    531.154    511.745     19.408    472.248    504.464    472.248    479.542    472.248
 90.970    505.298    509.282     -3.985    472.011    501.766    472.011    479.536    472.011
 91.070    484.000    507.617    -23.617    471.772    499.855    471.772    479.541    471.772
 91.170    505.000    506.655     -1.655    471.532    498.635    471.532    479.557    471.532
 91.270    470.000    506.316    -36.316    471.291    498.026    471.291    479.584    471.291
 91.370    465.816    506.549    -40.733    471.047    497.976    471.047    479.622    471.047
 91.470    519.101    507.336     11.765    470.803    498.467    470.803    479.672    470.803
 91.570    471.000    508.701    -37.701    470.556    499.523    470.556    479.733    470.556
 91.670    476.000    510.708    -34.708    470.308    501.207    470.308    479.806    470.308
 91.770    484.000    513.461    -29.461    470.058    503.624    470.058    479.891    470.058
 91.870    536.000    517.098     18.902    469.807    506.912    469.807    479.987    469.807
 91.970    505.000    521.787    -16.787    469.554    511.239    469.554    480.094    469.554
 92.070    496.111    527.711    -31.599    469.300    516.789    469.300    480.210    469.300
 92.170    536.000    535.053      0.947    469.044    523.748    469.044    480.334    469.044
 92.270    524.000    543.985    -19.985    468.787    532.286    468.787    480.466    468.787
 92.370    529.100    554.637    -25.537    468.528    542.538    468.528    480.602    468.528
 92.470    524.000    567.088    -43.088    468.267    554.585    468.267    480.741    468.267
 92.570    563.000    581.337    -18.337    468.005    568.428    468.005    480.879    468.005
 92.670    579.000    597.291    -18.291    467.742    583.978    467.742    481.014    467.742
 92.770    594.159    614.746    -20.587    467.477    601.036    467.477    481.140    467.477
 92.870    627.000    633.381     -6.381    467.210    619.285    467.210    481.255    467.210
 92.970    664.203    652.752     11.451    466.942    638.285    466.942    481.352    466.942
 93.070    673.000    672.307      0.693    466.673    657.491    466.673    481.428    466.673
 93.170    751.000    691.438     59.562    466.402    676.300    466.402    481.476    466.402
 93.270    743.063    709.565     33.498    466.130    694.137    466.130    481.493    466.130
 93.370    721.000    726.252     -5.252    465.856    710.570    465.856    481.473    465.856
 93.470    769.000    741.296     27.704    465.582    725.400    465.582    481.412    465.582
 93.570    752.000    754.739     -2.739    465.305    738.672    465.305    481.308    465.305
 93.670    745.000    766.785    -21.785    465.027    750.594    465.027    481.157    465.027
 93.770    738.874    777.685    -38.811    464.748    761.414    464.748    480.960    464.748
 93.870    795.613    787.637      7.976    464.468    771.334    464.468    480.715    464.468
 93.970    817.168    796.775     20.393    464.186    780.483    464.186    480.425    464.186
 94.070    752.562    805.223    -52.662    463.903    788.985    463.903    480.091    463.903
 94.170    803.000    813.181    -10.181    463.619    797.035    463.619    479.718    463.619
 94.270    782.021    820.917    -38.896    463.333    804.897    463.333    479.310    463.333
 94.370    839.462    828.696     10.766    463.046    812.831    463.046    478.871    463.046
 94.470    872.161    836.624     35.537    462.758    820.938    462.758    478.408    462.758
 94.570    848.000    844.521      3.479    462.469    829.033    462.469    477.925    462.469
 94.670    821.271    851.857    -30.586    462.178    836.581    462.178    477.427    462.178
 94.770    843.000    857.774    -14.774    461.886    842.718    461.886    476.920    461.886
 94.870    865.144    861.155      3.988    461.593    846.324    461.593    476.409    461.593
 94.970    867.000    860.937      6.063    461.299    846.331    461.299    475.897    461.299
 95.070    952.000    856.189     95.811    461.003    841.803    461.003    475.389    461.003
 95.170    866.000    846.400     19.600    460.707    832.226    460.707    474.888    460.707
 95.270    884.906    831.688     53.218    460.409    817.714    460.409    474.396    460.409
 95.370    806.000    812.786     -6.786    460.110    798.998    460.110    473.916    460.110
 95.470    804.000    790.904     13.096    459.811    777.286    459.811    473.451    459.811
 95.570    795.000    767.538     27.462    459.510    754.070    459.510    473.001    459.510
 95.670    778.873    744.287     34.586    459.208    730.950    459.208    472.569    459.208
 95.770    748.000    722.737     25.263    458.905    709.509    458.905    472.155    458.905
 95.870    796.000    704.400     91.600    458.600    691.260    458.600    471.760    458.600
 95.970    714.000    690.667     23.333    458.295    677.592    458.295    471.386    458.295
 96.070    730.511    682.768     47.743    457.989    669.735    457.989    471.032    457.989
 96.170    640.052    681.770    -41.718    457.682    668.756    457.682    470.700    457.682
 96.270    707.084    688.561     18.524    457.374    675.542    457.374    470.391    457.374
 96.370    720.000    703.830     16.170    457.065    690.782    457.065    470.103    457.065
 96.470    749.100    728.051     21.049    456.755    714.950    456.755    469.840    456.755
 96.570    736.000    761.446    -25.446    456.444    748.268    456.444    469.599    456.444
 96.670    829.000    803.936     25.064    456.133    790.656    456.133    469.384    456.133
 96.770    842.087    855.084    -12.997    455.820    841.677    455.820    469.193    455.820
 96.870    954.560    914.026     40.535    455.507    900.467    455.507    469.027    455.507
 96.970    955.150    979.413    -24.264    455.193    965.678    455.193    468.889    455.193
 97.070   1078.000   1049.369     28.631    454.878   1035.430    454.878    468.777    454.878
 97.170   1164.533   1121.463     43.070    454.562   1107.296    454.562    468.693    454.562
 97.270   1173.000   1192.728    -19.728    454.245   1178.306    454.245    468.639    454.245
 97.370   1311.000   1259.721     51.279    453.928   1245.017    453.928    468.614    453.928
 97.470   1339.693   1318.678     21.015    453.610   1303.663    453.610    468.620    453.610
 97.570   1390.000   1365.819     24.181    453.291   1350.463    453.291    468.659    453.291
 97.670   1464.093   1397.816     66.276    452.972   1382.088    452.972    468.731    452.972
 97.770   1391.000   1412.364    -21.364    452.652   1396.228    452.652    468.838    452.652
 97.870   1451.917   1408.638     43.279    452.331   1392.057    452.331    468.980    452.331
 97.970   1324.164   1387.454    -63.289    452.010   1370.387    452.010    469.161    452.010
 98.070   1404.000   1351.031     52.969    451.688   1333.436    451.688    469.380    451.688
 98.170   1238.000   1302.527    -64.527    451.365   1284.358    451.365    469.640    451.365
 98.270   1224.000   1245.533    -21.533    451.042   1226.743    451.042    469.941    451.042
 98.370   1183.000   1183.695     -0.695    450.719   1164.237    450.719    470.286    450.719
 98.470   1128.000   1120.472      7.528    450.395   1100.296    450.395    470.677    450.395
 98.570   1081.000   1058.994     22.006    450.070   1038.051    450.070    471.113    450.070
 98.670    952.000   1002.002    -50.002    449.745    980.241    449.745    471.597    449.745
 98.770    921.109    951.814    -30.705    449.420    929.184    449.420    472.131    449.420
 98.870    903.000    910.397     -7.397    449.094    886.847    449.094    472.714    449.094
 98.970    886.377    879.307      7.070    448.768    854.785    448.768    473.349    448.768
 99.070    840.036    859.738    -19.702    448.442    834.193    448.442    474.036    448.442
 99.170    832.000    852.564    -20.564    448.115    825.945    448.115    474.774    448.115
 99.270    851.000    858.356     -7.356    447.788    830.612    447.788    475.565    447.788
 99.370    874.583    877.410     -2.828    447.460    848.492    447.460    476.407    447.460
 99.470    863.874    909.755    -45.881    447.132    879.613    447.132    477.300    447.132
 99.570    889.000    955.145    -66.145    446.805    923.735    446.805    478.240    446.805
 99.670   1060.000   1013.041     46.959    446.476    980.321    446.476    479.227    446.476
 99.770   1120.672   1082.565     38.107    446.148   1048.496    446.148    480.254    446.148
 99.870   1124.000   1162.448    -38.448    445.820   1126.998    445.820    481.318    445.820
 99.970   1315.879   1250.982     64.897    445.491   1214.125    445.491    482.411    445.491
100.070   1371.000   1345.968     25.032    445.162   1307.686    445.162    483.525    445.162
100.170   1407.000   1444.699    -37.699    444.834   1404.986    444.834    484.651    444.834
100.270   1498.365   1544.000    -45.635    444.505   1502.860    444.505    485.776    444.505
100.370   1704.000   1640.374     63.626    444.176   1597.824    444.176    486.886    444.176
100.470   1785.670   1730.217     55.453    443.847   1686.290    443.847    487.967    443.847
100.570   1825.990   1810.147     15.844    443.519   1764.890    443.519    488.999    443.519
100.670   1856.000   1877.271    -21.271    443.190   1830.751    443.190    489.964    443.190
100.770   1916.000   1929.325    -13.325    442.861   1881.627    442.861    490.842    442.861
100.870   1965.107   1964.631      0.476    442.533   1915.859    442.533    491.612    442.533
100.970   1955.381   1981.990    -26.609    442.205   1932.268    442.205    492.254    442.205
101.070   1965.000   1980.677    -15.677    441.876   1930.148    441.876    492.748    441.876
101.170   1974.827   1960.619     14.208    441.549   1909.443    441.549    493.077    441.549
101.270   1958.000   1922.697     35.303    441.221   1871.047    441.221    493.227    441.221
101.370   1873.000   1868.979      4.021    440.893   1817.038    440.893    493.188    440.893
101.470   1938.000   1802.680    135.320    440.566   1750.639    440.566    492.952    440.566
101.570   1709.000   1727.820    -18.820    440.240   1675.872    440.240    492.519    440.240
101.670   1733.000   1648.703     84.297    439.913   1597.038    439.913    491.892    439.913
101.770   1561.000   1569.403     -8.403    439.587   1518.203    439.587    491.080    439.587
101.870   1473.000   1493.393    -20.393    439.262   1442.832    439.262    490.094    439.262
101.970   1403.708   1423.345    -19.637    438.937   1373.580    438.937    488.950    438.937
102.070   1391.411   1361.045     30.366    438.612   1312.217    438.612    487.667    438.612
102.170   1343.000   1307.396     35.604    438.288   1259.628    438.288    486.265    438.288
102.270   1234.000   1262.469    -28.469    437.964   1215.860    437.964    484.764    437.964
102.370   1290.000   1225.572     64.428    437.641   1180.206    437.641    483.185    437.641
102.470   1144.000   1195.367    -51.367    437.319   1151.304    437.319    481.548    437.319
102.570   1146.000   1170.010    -24.010    436.997   1127.294    436.997    479.872    436.997
102.670   1135.237   1147.342    -12.105    436.676   1105.998    436.676    478.172    436.676
102.770   1146.000   1125.180     20.820    436.356   1085.219    436.356    476.465    436.356
102.870   1048.000   1101.573    -53.573    436.037   1062.992    436.037    474.763    436.037
102.970   1080.000   1075.053      4.947    435.718   1037.836    435.718    473.078    435.718
103.070    969.000   1044.828    -75.828    435.400   1008.949    435.400    471.419    435.400
103.170    987.000   1010.788    -23.788    435.083    976.214    435.083    469.793    435.083
103.270    954.000    973.389    -19.389    434.767    940.081    434.767    468.206    434.767
103.370    886.904    933.463    -46.559    434.452    901.376    434.452    466.664    434.452
103.470    890.000    892.031     -2.031    434.137    861.116    434.137    465.170    434.137
103.570    863.000    850.155     12.845    433.824    820.363    433.824    463.725    433.824
103.670    785.133    808.847    -23.714    433.512    780.127    433.512    462.333    433.512
103.770    855.000    769.005     85.995    433.201    741.303    433.201    460.993    433.201
103.870    775.619    731.379     44.240    432.891    704.644    432.891    459.707    432.891
103.970    719.000    696.552     22.448    432.582    670.732    432.582    458.473    432.582
104.070    627.146    664.930    -37.784    432.274    639.974    432.274    457.292    432.274
104.170    619.000    636.746    -17.746    431.967    612.604    431.967    456.163    431.967
104.270    661.000    612.072     48.928    431.662    588.695    431.662    455.085    431.662
104.370    595.634    590.843      4.792    431.358    568.184    431.358    454.056    431.358
104.470    601.000    572.885     28.115    431.055    550.898    431.055    453.074    431.055
104.570    574.000    557.944     16.056    430.754    536.586    430.754    452.140    430.754
104.670    561.000    545.722     15.278    430.454    524.948    430.454    451.250    430.454
104.770    491.562    535.898    -44.336    430.156    515.669    430.156    450.404    430.156
104.870    534.831    528.160      6.670    429.859    508.435    429.859    449.599    429.859
104.970    502.919    522.217    -19.298    429.563    502.958    429.563    448.835    429.563
105.070    526.000    517.815      8.185    429.269    498.985    429.269    448.108    429.269
105.170    527.000    514.742     12.258    428.977    496.307    428.977    447.419    428.977
105.270    558.000    512.837     45.163    428.687    494.762    428.687    446.766    428.687
105.370    530.000    511.981     18.019    428.398    494.235    428.398    446.146    428.398
105.470    538.000    512.103     25.897    428.110    494.655    428.110    445.559    428.110
105.570    550.000    513.168     36.832    427.825    495.989    427.825    445.002    427.825
105.670    471.311    515.177    -43.867    427.541    498.239    427.541    444.476    427.541
105.770    493.055    518.157    -25.102    427.259    501.432    427.259    443.978    427.259
105.870    564.360    522.151     42.209    426.979    505.615    426.979    443.508    426.979
105.970    566.000    527.215     38.785    426.701    510.843    426.701    443.064    426.701
106.070    499.103    533.401    -34.298    426.425    517.169    426.425    442.645    426.425
106.170    583.000    540.748     42.252    426.151    524.633    426.151    442.251    426.151
106.270    536.000    549.267    -13.267    425.879    533.247    425.879    441.880    425.879
106.370    559.202    558.931      0.271    425.610    542.987    425.610    441.532    425.610
106.470    538.000    569.667    -31.667    425.342    553.778    425.342    441.206    425.342
106.570    593.384    581.348     12.036    425.076    565.494    425.076    440.902    425.076
106.670    622.000    593.790     28.210    424.813    577.954    424.813    440.619    424.813
106.770    607.000    606.753      0.247    424.552    590.916    424.552    440.357    424.552
106.870    612.933    619.942     -7.009    424.293    604.087    424.293    440.114    424.293
106.970    626.000    633.014     -7.014    424.037    617.124    424.037    439.892    424.037
107.070    640.000    645.589     -5.589    423.783    629.646    423.783    439.689    423.783
107.170    687.118    657.266     29.852    423.532    641.255    423.532    439.506    423.532
107.270    662.000    667.653     -5.653    423.283    651.559    423.283    439.342    423.283
107.370    695.166    676.408     18.757    423.036    660.213    423.036    439.197    423.036
107.470    718.755    683.282     35.473    422.792    666.971    422.792    439.073    422.792
107.570    670.442    688.167    -17.725    422.551    671.723    422.551    438.967    422.551
107.670    703.000    691.120     11.880    422.313    674.527    422.313    438.882    422.313
107.770    690.000    692.361     -2.361    422.077    675.602    422.077    438.817    422.077
107.870    684.000    692.239     -8.239    421.844    675.296    421.844    438.772    421.844
107.970    650.763    691.182    -40.420    421.614    674.039    421.614    438.747    421.614
108.070    671.000    689.629    -18.629    421.386    672.266    421.386    438.744    421.386
108.170    638.000    687.983    -49.983    421.162    670.381    421.162    438.763    421.162
108.270    648.000    686.571    -38.571    420.941    668.711    420.941    438.805    420.941
108.370    710.210    685.634     24.576    420.722    667.495    420.722    438.869    420.722
108.470    651.000    685.302    -34.302    420.507    666.864    420.507    438.957    420.507
108.570    658.149    685.578    -27.429    420.295    666.820    420.295    439.069    420.295
108.670    669.000    686.352    -17.352    420.086    667.252    420.086    439.207    420.086
108.770    641.032    687.407    -46.375    419.880    667.940    419.880    439.372    419.880
108.870    649.891    688.428    -38.537    419.678    668.570    419.678    439.564    419.678
108.970    649.000    689.030    -40.030    419.478    668.757    419.478    439.784    419.478
109.070    682.000    688.797     -6.797    419.283    668.081    419.283    440.034    419.283
109.170    657.900    687.332    -29.431    419.090    666.145    419.090    440.315    419.090
109.270    680.000    684.313     -4.313    418.901    662.627    418.901    440.628    418.901
109.370    715.638    679.545     36.093    418.716    657.328    418.716    440.975    418.716
109.470    648.665    672.985    -24.320    418.534    650.205    418.534    441.357    418.534
109.570    665.000    664.743      0.257    418.356    641.367    418.356    441.776    418.356
109.670    641.405    655.058    -13.653    418.181    631.049    418.181    442.233    418.181
109.770    610.000    644.249    -34.249    418.011    619.572    418.011    442.729    418.011
109.870    604.000    632.679    -28.679    417.844    607.294    417.844    443.268    417.844
109.970    635.538    620.713     14.824    417.680    594.581    417.680    443.850    417.680
110.070    654.000    608.701     45.299    417.521    581.779    417.521    444.478    417.521
110.170    557.000    596.956    -39.956    417.366    569.201    417.366    445.153    417.366
110.270    544.443    585.751    -41.308    417.215    557.117    417.215    445.877    417.215
110.370    576.000    575.312      0.688    417.067    545.752    417.067    446.653    417.067
110.470    577.978    565.815     12.163    416.924    535.279    416.924    447.483    416.924
110.570    588.000    557.386     30.614    416.785    525.822    416.785    448.369    416.785
110.670    585.000    550.104     34.896    416.651    517.459    416.651    449.312    416.651
110.770    525.000    544.004    -19.004    416.520    510.222    416.520    450.316    416.520
110.870    554.000    539.082     14.918    416.394    504.105    416.394    451.382    416.394
110.970    530.000    535.301     -5.301    416.273    499.070    416.273    452.513    416.273
111.070    533.000    532.601      0.399    416.155    495.053    416.155    453.711    416.155
111.170    471.000    530.903    -59.903    416.043    491.973    416.043    454.978    416.043
111.270    564.000    530.115     33.885    415.934    489.737    415.934    456.316    415.934
111.370    576.000    530.141     45.859    415.831    488.247    415.831    457.727    415.831
111.470    538.000    530.887      7.113    415.732    487.407    415.732    459.214    415.732
111.570    551.636    532.261     19.374    415.638    487.122    415.638    460.777    415.638
111.670    535.000    534.178      0.822    415.549    487.307    415.549    462.419    415.549
111.770    552.000    536.563     15.437    415.464    487.885    415.464    464.140    415.464
111.870    540.000    539.349      0.651    415.385    488.788    415.385    465.943    415.385
111.970    539.592    542.482     -2.890    415.310    489.961    415.310    467.828    415.310
112.070    557.000    545.919     11.081    415.241    491.361    415.241    469.795    415.241
112.170    556.000    549.629      6.371    415.176    492.957    415.176    471.845    415.176
112.270    562.045    553.594      8.451    415.117    494.730    415.117    473.977    415.117
112.370    512.000    557.806    -45.806    415.063    496.676    415.063    476.189    415.063
112.470    535.000    562.271    -27.271    415.015    498.800    415.015    478.481    415.015
112.570    587.609    567.006     20.604    414.971    501.123    414.971    480.850    414.971
112.670    551.000    572.037    -21.037    414.933    503.675    414.933    483.291    414.933
112.770    615.650    577.405     38.245    414.901    506.500    414.901    485.802    414.901
112.870    543.000    583.162    -40.162    414.874    509.657    414.874    488.375    414.874
112.970    561.000    589.377    -28.377    414.852    513.220    414.852    491.005    414.852
113.070    579.000    596.138    -17.138    414.837    517.288    414.837    493.682    414.837
113.170    571.000    603.561    -32.561    414.827    521.987    414.827    496.396    414.827
113.270    586.000    611.796    -25.796    414.823    527.477    414.823    499.136    414.823
113.370    557.000    621.040    -64.040    414.824    533.970    414.824    501.888    414.824
113.470    637.000    631.543      5.457    414.832    541.731    414.832    504.637    414.832
113.570    621.000    643.632    -22.632    414.845    551.104    414.845    507.365    414.845
113.670    613.000    657.718    -44.718    414.865    562.520    414.865    510.052    414.865
113.770    629.106    674.323    -45.217    414.891    576.522    414.891    512.678    414.891
113.870    631.000    694.082    -63.082    414.923    593.769    414.923    515.219    414.923
113.970    690.000    717.776    -27.776    414.961    615.065    414.961    517.651    414.961
114.070    706.000    746.442    -40.442    415.005    641.472    415.005    519.949    415.005
114.170    742.982    781.196    -38.214    415.056    674.132    415.056    522.087    415.056
114.270    857.000    823.381     33.619    415.113    714.413    415.113    524.039    415.113
114.370    875.000    874.548      0.452    415.177    763.892    415.177    525.781    415.177
114.470    918.000    936.448    -18.448    415.248    824.341    415.248    527.289    415.248
114.570    975.000   1011.007    -36.007    415.325    897.709    415.325    528.543    415.325
114.670   1088.775   1100.298    -11.523    415.408    986.087    415.408    529.523    415.408
114.770   1222.044   1206.489     15.555    415.499   1091.655    415.499    530.217    415.499
114.870   1348.000   1331.767     16.233    415.596   1216.612    415.596    530.614    415.596
114.970   1519.000   1478.251     40.749    415.701   1363.080    415.701    530.710    415.701
115.070   1701.534   1647.877     53.657    415.812   1532.998    415.812    530.504    415.812
115.170   1831.955   1842.277    -10.322    415.930   1727.991    415.930    530.002    415.930
115.270   2140.000   2062.635     77.365    416.056   1949.236    416.056    529.213    416.056
115.370   2393.052   2309.548     83.504    416.189   2197.316    416.189    528.152    416.189
115.470   2663.290   2582.883     80.407    416.329   2472.082    416.329    526.836    416.329
115.570   2815.117   2881.648    -66.530    416.476   2772.520    416.476    525.286    416.476
115.670   3130.762   3203.880    -73.118    416.631   3096.647    416.631    523.527    416.631
115.770   3556.000   3546.564      9.436    416.793   3441.424    416.793    521.582    416.793
115.870   3890.000   3905.587    -15.587    416.963   3802.714    416.963    519.478    416.963
115.970   4298.000   4275.725     22.275    417.140   4175.266    417.140    517.240    417.140
116.070   4568.000   4650.672    -82.672    417.326   4552.755    417.326    514.894    417.326
116.170   5134.094   5023.124    110.970    417.519   4927.849    417.519    512.465    417.519
116.270   5305.000   5384.889    -79.889    417.720   5292.337    417.720    509.976    417.720
116.370   5788.223   5727.077     61.146    417.928   5637.306    417.928    507.447    417.928
116.470   6157.072   6040.343    116.729    418.145   5953.393    418.145    504.899    418.145
116.570   6387.000   6315.242     71.758    418.370   6231.136    418.370    502.349    418.370
116.670   6515.000   6542.693    -27.693    418.603   6461.435    418.603    499.813    418.603
116.770   6699.661   6714.563    -14.902    418.844   6636.143    418.844    497.305    418.844
116.870   6853.000   6824.319     28.681    419.094   6748.712    419.094    494.837    419.094
116.970   6764.000   6867.664   -103.664    419.352   6794.832    419.352    492.419    419.352
117.070   6864.000   6842.998     21.002    419.619   6772.890    419.619    490.059    419.619
117.170   6712.980   6751.600    -38.620    419.894   6684.153    419.894    487.765    419.894
117.270   6477.157   6597.472   -120.315    420.177   6532.613    420.177    485.543    420.177
117.370   6408.000   6386.883     21.117    420.470   6324.533    420.470    483.397    420.470
117.470   6096.000   6127.751    -31.751    420.771   6067.822    420.771    481.331    420.771
117.570   5694.000   5828.977   -134.977    421.081   5771.382    421.081    479.348    421.081
117.670   5418.000   5499.860    -81.860    421.400   5444.507    421.400    477.449    421.400
117.770   5036.212   5149.619   -113.406    421.728   5096.415    421.728    475.636    421.728
117.870   4767.767   4787.032    -19.265    422.065   4735.887    422.065    473.909    422.065
117.970   4375.069   4420.186    -45.116    422.411   4371.009    422.411    472.268    422.411
118.070   4071.000   4056.290     14.710    422.766   4008.995    422.766    470.714    422.766
118.170   3699.000   3701.561     -2.561    423.131   3656.063    423.131    469.245    423.131
118.270   3278.680   3361.153    -82.473    423.506   3317.370    423.506    467.860    423.506
118.370   3073.444   3039.138     34.306    423.889   2996.992    423.889    466.558    423.889
118.470   2787.094   2738.531     48.563    424.283   2697.947    424.283    465.338    424.283
118.570   2543.000   2461.352     81.648    424.686   2422.259    424.686    464.198    424.686
118.670   2170.000   2208.717    -38.717    425.098   2171.048    425.098    463.136    425.098
118.770   1922.000   1980.947    -58.947    425.521   1944.637    425.521    462.151    425.521
118.870   1721.126   1777.691    -56.565    425.953   1742.679    425.953    461.239    425.953
118.970   1589.000   1598.048     -9.048    426.396   1564.274    426.396    460.400    426.396
119.070   1396.000   1440.691    -44.691    426.848   1408.101    426.848    459.631    426.848
119.170   1269.000   1303.990    -34.990    427.311   1272.529    427.311    458.929    427.311
119.270   1177.000   1186.118     -9.118    427.784   1155.736    427.784    458.294    427.784
119.370   1076.000   1085.156     -9.156    428.267   1055.803    428.267    457.723    428.267
119.470   1020.000    999.175     20.825    428.761    970.805    428.761    457.213    428.761
119.570    882.078    926.307    -44.228    429.265    898.874    429.265    456.763    429.265
119.670    907.222    864.794     42.428    429.780    838.254    429.780    456.370    429.780
119.770    885.000    813.024     71.976    430.306    787.336    430.306    456.033    430.306
119.870    812.000    769.552     42.448    430.842    744.675    430.842    455.750    430.842
119.970    698.708    733.105    -34.397    431.389    709.000    431.389    455.518    431.389
120.070    716.000    702.579     13.421    431.947    679.210    431.947    455.337    431.947
120.170    645.000    677.036    -32.036    432.516    654.366    432.516    455.204    432.516
120.270    691.000    655.683     35.317    433.097    633.677    433.097    455.117    433.097
120.370    626.000    637.858    -11.858    433.688    616.485    433.688    455.075    433.688
120.470    609.000    623.018    -14.018    434.291    602.245    434.291    455.076    434.291
120.570    567.486    610.713    -43.227    434.905    590.510    434.905    455.119    434.905
120.670    593.000    600.579     -7.579    435.531    580.919    435.531    455.202    435.531
120.770    570.513    592.321    -21.807    436.168    573.176    436.168    455.325    436.168
120.870    582.000    585.696     -3.696    436.817    567.040    436.817    455.484    436.817
120.970    621.009    580.510     40.499    437.477    562.319    437.477    455.680    437.477
121.070    585.000    576.599      8.401    438.150    558.850    438.150    455.911    438.150
121.170    583.532    573.808      9.724    438.834    556.479    438.834    456.176    438.834
121.270    512.000    572.072    -60.072    439.531    555.143    439.531    456.474    439.531
121.370    540.879    571.289    -30.410    440.239    554.740    440.239    456.804    440.239
121.470    570.000    571.367     -1.367    440.960    555.180    440.960    457.164    440.960
121.570    564.000    572.228     -8.228    441.693    556.386    441.693    457.554    441.693
121.670    582.000    573.801      8.199    442.438    558.287    442.438    457.972    442.438
121.770    578.000    576.014      1.986    443.196    560.814    443.196    458.419    443.196
121.870    604.000    578.796     25.204    443.967    563.895    443.967    458.892    443.967
121.970    595.000    582.069     12.931    444.750    567.455    444.750    459.392    444.750
122.070    601.000    585.755     15.245    445.546    571.415    445.546    459.916    445.546
122.170    585.000    589.768     -4.768    446.355    575.689    446.355    460.466    446.355
122.270    603.000    594.014      8.986    447.177    580.188    447.177    461.038    447.177
122.370    588.833    598.397     -9.563    448.012    584.812    448.012    461.634    448.012
122.470    626.000    602.811     23.189    448.860    589.460    448.860    462.252    448.860
122.570    628.000    607.149     20.851    449.721    594.022    449.721    462.892    449.721
122.670    604.973    611.297     -6.324    450.596    598.388    450.596    463.552    450.596
122.770    613.000    615.144     -2.144    451.484    602.446    451.484    464.233    451.484
122.870    603.000    618.580    -15.580    452.385    606.085    452.385    464.933    452.385
122.970    620.000    621.501     -1.501    453.301    609.206    453.301    465.651    453.301
123.070    639.000    623.821     15.179    454.230    611.720    454.230    466.388    454.230
123.170    647.000    625.467     21.533    455.173    613.556    455.173    467.143    455.173
123.270    618.000    626.393     -8.393    456.130    614.668    456.130    467.915    456.130
123.370    645.861    626.575     19.286    457.101    615.032    457.101    468.704    457.101
123.470    581.944    626.017    -44.073    458.086    614.655    458.086    469.509    458.086
123.570    671.516    624.747     46.769    459.085    613.562    459.085    470.330    459.085
123.670    625.000    622.813      2.187    460.099    611.803    460.099    471.168    460.099
123.770    619.000    620.277     -1.277    461.127    609.441    461.127    472.020    461.127
123.870    644.049    617.213     26.836    462.170    606.550    462.170    472.889    462.170
123.970    622.113    613.700      8.413    463.227    603.208    463.227    473.772    463.227
124.070    654.000    609.819     44.181    464.300    599.497    464.300    474.672    464.300
124.170    609.079    605.652      3.427    465.387    595.499    465.387    475.586    465.387
124.270    562.395    601.276    -38.881    466.489    591.293    466.489    476.516    466.489
124.370    553.000    596.766    -43.766    467.606    586.950    467.606    477.462    467.606
124.470    626.000    592.189     33.811    468.738    582.541    468.738    478.424    468.738
124.570    574.086    587.608    -13.522    469.886    578.126    469.886    479.402    469.886
124.670    565.000    583.074    -18.074    471.049    573.758    471.049    480.396    471.049
124.770    552.000    578.635    -26.635    472.227    569.484    472.227    481.407    472.227
124.870    592.000    574.329     17.671    473.421    565.340    473.421    482.435    473.421
124.970    615.000    570.186     44.814    474.631    561.359    474.631    483.479    474.631
