neutron_powder_diffraction_0219
R_wp: 4.004
Temperature (K): 1074.000
Counts: 83933.00
Wavelength (Ã…): 2.52098
COMMENTS
Test file for demonstrating the .xyy file format in Reel1.0
END OF HEADER
   tth       Y_obs     Y_calc      Y_res    Background    Phase_1_Nuc    Phase_1_Mag    Phase_2_Nuc    Phase_2_Mag
  9.970    620.000    572.980     47.020    572.290    572.952    572.290    572.318    572.290
 10.070    590.000    573.142     16.858    572.394    573.113    572.394    572.422    572.394
 10.170    603.000    573.306     29.694    572.492    573.277    572.492    572.520    572.492
 10.270    586.000    573.473     12.527    572.583    573.444    572.583    572.612    572.583
 10.370    623.000    573.646     49.354    572.669    573.617    572.669    572.698    572.669
 10.470    607.000    573.830     33.170    572.748    573.799    572.748    572.778    572.748
 10.570    566.000    574.025     -8.025    572.821    573.994    572.821    572.852    572.821
 10.670    544.505    574.238    -29.733    572.888    574.206    572.888    572.919    572.888
 10.770    613.000    574.475     38.525    572.949    574.442    572.949    572.980    572.949
 10.870    584.000    574.745      9.255    573.004    574.712    573.004    573.036    573.004
 10.970    629.000    575.060     53.940    573.053    575.027    573.053    573.086    573.053
 11.070    543.204    575.439    -32.235    573.097    575.405    573.097    573.130    573.097
 11.170    570.000    575.908     -5.908    573.135    575.872    573.135    573.169    573.135
 11.270    594.477    576.516     17.961    573.167    576.469    573.167    573.212    573.167
 11.370    554.000    577.312    -23.312    573.193    577.263    573.193    573.240    573.193
 11.470    621.382    578.458     42.924    573.214    578.408    573.214    573.261    573.214
 11.570    579.772    580.374     -0.602    573.229    580.323    573.229    573.276    573.229
 11.670    626.346    584.231     42.116    573.239    584.177    573.239    573.286    573.239
 11.770    579.456    592.699    -13.243    573.243    592.640    573.243    573.291    573.243
 11.870    658.000    610.002     47.998    573.242    609.933    573.242    573.290    573.242
 11.970    628.000    639.327    -11.327    573.235    639.242    573.235    573.284    573.235
 12.070    695.000    676.837     18.163    573.224    676.731    573.224    573.272    573.224
 12.170    657.000    706.252    -49.252    573.207    706.129    573.207    573.256    573.207
 12.270    679.000    707.195    -28.195    573.185    707.065    573.185    573.240    573.185
 12.370    670.000    678.795     -8.795    573.157    678.680    573.157    573.213    573.157
 12.470    575.000    641.082    -66.082    573.125    640.988    573.125    573.181    573.125
 12.570    588.000    611.060    -23.060    573.088    610.983    573.088    573.144    573.088
 12.670    568.000    593.132    -25.132    573.046    593.064    573.046    573.102    573.046
 12.770    631.282    584.288     46.994    572.999    584.225    572.999    573.056    572.999
 12.870    536.000    580.244    -44.244    572.947    580.183    572.947    573.004    572.947
 12.970    623.435    578.232     45.203    572.890    578.172    572.890    572.947    572.890
 13.070    599.193    577.024     22.169    572.828    576.964    572.828    572.886    572.828
 13.170    592.328    576.179     16.150    572.762    576.119    572.762    572.820    572.762
 13.270    540.000    575.537    -35.537    572.691    575.477    572.691    572.750    572.691
 13.370    565.307    575.028     -9.721    572.616    574.968    572.616    572.674    572.616
 13.470    585.459    574.611     10.847    572.536    574.551    572.536    572.595    572.536
 13.570    538.000    574.260    -36.260    572.451    574.200    572.451    572.511    572.451
 13.670    620.847    573.957     46.890    572.362    573.896    572.362    572.422    572.362
 13.770    528.000    573.689    -45.689    572.269    573.628    572.269    572.329    572.269
 13.870    562.935    573.446    -10.512    572.171    573.385    572.171    572.231    572.171
 13.970    610.000    573.224     36.776    572.069    573.163    572.069    572.130    572.069
 14.070    548.000    573.016    -25.016    571.962    572.955    571.962    572.024    571.962
 14.170    605.000    572.820     32.180    571.852    572.758    571.852    571.914    571.852
 14.270    514.000    572.634    -58.634    571.737    572.569    571.737    571.802    571.737
 14.370    551.000    572.452    -21.452    571.619    572.386    571.619    571.684    571.619
 14.470    577.000    572.275      4.725    571.496    572.208    571.496    571.563    571.496
 14.570    593.471    572.101     21.370    571.369    572.033    571.369    571.436    571.369
 14.670    555.000    571.931    -16.931    571.238    571.863    571.238    571.306    571.238
 14.770    540.000    571.761    -31.761    571.103    571.692    571.103    571.172    571.103
 14.870    567.139    571.590     -4.452    570.965    571.521    570.965    571.034    570.965
 14.970    532.000    571.419    -39.419    570.822    571.349    570.822    570.892    570.822
 15.070    533.764    571.247    -37.483    570.676    571.177    570.676    570.746    570.676
 15.170    585.265    571.074     14.191    570.526    571.003    570.526    570.596    570.526
 15.270    604.000    570.900     33.100    570.372    570.829    570.372    570.443    570.372
 15.370    606.317    570.725     35.592    570.215    570.653    570.215    570.286    570.215
 15.470    528.000    570.547    -42.547    570.054    570.475    570.054    570.126    570.054
 15.570    566.000    570.368     -4.368    569.889    570.296    569.889    569.962    569.889
 15.670    572.000    570.187      1.813    569.721    570.114    569.721    569.794    569.721
 15.770    560.000    570.004    -10.004    569.550    569.930    569.550    569.623    569.550
 15.870    529.076    569.818    -40.742    569.375    569.745    569.375    569.449    569.375
 15.970    538.606    569.630    -31.024    569.197    569.556    569.197    569.271    569.197
 16.070    548.000    569.440    -21.440    569.015    569.366    569.015    569.090    569.015
 16.170    540.000    569.248    -29.248    568.830    569.173    568.830    568.905    568.830
 16.270    577.000    569.053      7.947    568.642    568.977    568.642    568.718    568.642
 16.370    594.000    568.856     25.144    568.451    568.780    568.451    568.527    568.451
 16.470    568.212    568.658     -0.447    568.256    568.582    568.256    568.333    568.256
 16.570    549.000    568.456    -19.456    568.059    568.379    568.059    568.136    568.059
 16.670    595.000    568.252     26.748    567.858    568.174    567.858    567.936    567.858
 16.770    544.148    568.045    -23.898    567.654    567.966    567.654    567.734    567.654
 16.870    599.000    567.836     31.164    567.448    567.756    567.448    567.528    567.448
 16.970    590.000    567.623     22.377    567.238    567.543    567.238    567.319    567.238
 17.070    577.000    567.409      9.591    567.025    567.327    567.025    567.106    567.025
 17.170    567.000    567.191     -0.191    566.810    567.110    566.810    566.892    566.810
 17.270    524.341    566.972    -42.631    566.592    566.890    566.592    566.674    566.592
 17.370    542.125    566.752    -24.627    566.371    566.669    566.371    566.453    566.371
 17.470    562.910    566.528     -3.619    566.147    566.445    566.147    566.230    566.147
 17.570    544.232    566.302    -22.070    565.920    566.218    565.920    566.004    565.920
 17.670    521.000    566.073    -45.073    565.691    565.988    565.691    565.776    565.691
 17.770    602.942    565.842     37.100    565.459    565.756    565.459    565.544    565.459
 17.870    567.000    565.608      1.392    565.225    565.522    565.225    565.311    565.225
 17.970    523.877    565.372    -41.495    564.988    565.286    564.988    565.074    564.988
 18.070    573.000    565.134      7.866    564.749    565.047    564.749    564.836    564.749
 18.170    587.168    564.894     22.275    564.507    564.806    564.507    564.594    564.507
 18.270    527.284    564.651    -37.367    564.262    564.563    564.262    564.351    564.262
 18.370    606.296    564.407     41.889    564.016    564.318    564.016    564.105    564.016
 18.470    525.613    564.160    -38.547    563.767    564.070    563.767    563.856    563.767
 18.570    570.000    563.911      6.089    563.515    563.821    563.515    563.606    563.515
 18.670    563.000    563.661     -0.661    563.262    563.570    563.262    563.353    563.262
 18.770    609.337    563.409     45.928    563.006    563.317    563.006    563.098    563.006
 18.870    589.289    563.159     26.130    562.748    563.061    562.748    562.845    562.748
 18.970    561.000    562.905     -1.905    562.488    562.804    562.488    562.588    562.488
 19.070    581.341    562.647     18.694    562.225    562.546    562.225    562.326    562.225
 19.170    536.000    562.387    -26.387    561.961    562.285    561.961    562.063    561.961
 19.270    556.000    562.126     -6.126    561.694    562.024    561.694    561.797    561.694
 19.370    566.941    561.864      5.077    561.426    561.761    561.426    561.529    561.426
 19.470    520.000    561.599    -41.599    561.156    561.495    561.156    561.260    561.156
 19.570    561.000    561.333     -0.333    560.883    561.228    560.883    560.988    560.883
 19.670    539.000    561.065    -22.065    560.609    560.959    560.609    560.715    560.609
 19.770    581.466    560.796     20.670    560.333    560.689    560.333    560.440    560.333
 19.870    576.463    560.525     15.938    560.055    560.417    560.055    560.163    560.055
 19.970    552.000    560.254     -8.254    559.775    560.145    559.775    559.884    559.775
 20.070    564.000    559.994      4.006    559.493    559.884    559.493    559.603    559.493
 20.170    566.000    559.729      6.271    559.210    559.618    559.210    559.321    559.210
 20.270    566.710    559.454      7.256    558.925    559.342    558.925    559.037    558.925
 20.370    582.000    559.177     22.823    558.639    559.064    558.639    558.752    558.639
 20.470    519.000    558.899    -39.899    558.350    558.785    558.350    558.464    558.350
 20.570    563.000    558.619      4.381    558.061    558.504    558.061    558.176    558.061
 20.670    555.000    558.339     -3.339    557.769    558.223    557.769    557.886    557.769
 20.770    523.000    558.058    -35.058    557.476    557.941    557.476    557.594    557.476
 20.870    554.000    557.777     -3.777    557.182    557.658    557.182    557.301    557.182
 20.970    555.690    557.494     -1.804    556.886    557.375    556.886    557.006    556.886
 21.070    551.667    557.212     -5.544    556.589    557.091    556.589    556.710    556.589
 21.170    544.000    556.928    -12.928    556.290    556.806    556.290    556.413    556.290
 21.270    601.876    556.645     45.232    555.990    556.521    555.990    556.114    555.990
 21.370    559.248    556.361      2.888    555.689    556.236    555.689    555.814    555.689
 21.470    578.000    556.077     21.923    555.387    555.950    555.387    555.513    555.387
 21.570    559.000    555.793      3.207    555.083    555.665    555.083    555.211    555.083
 21.670    527.000    555.509    -28.509    554.778    555.380    554.778    554.907    554.778
 21.770    550.727    555.226     -4.499    554.471    555.096    554.471    554.602    554.471
 21.870    562.000    554.944      7.056    554.164    554.812    554.164    554.296    554.164
 21.970    532.000    554.663    -22.663    553.855    554.529    553.855    553.989    553.855
 22.070    555.679    554.383      1.296    553.546    554.247    553.546    553.681    553.546
 22.170    584.482    554.104     30.377    553.235    553.967    553.235    553.372    553.235
 22.270    583.279    553.828     29.451    552.923    553.689    552.923    553.063    552.923
 22.370    545.000    553.556     -8.556    552.611    553.415    552.611    552.752    552.611
 22.470    554.000    553.306      0.694    552.297    553.164    552.297    552.440    552.297
 22.570    530.000    553.081    -23.081    551.982    552.936    551.982    552.127    551.982
 22.670    507.907    552.951    -45.043    551.666    552.804    551.666    551.814    551.666
 22.770    598.502    552.735     45.767    551.350    552.586    551.350    551.499    551.350
 22.870    531.830    552.491    -20.661    551.033    552.338    551.033    551.186    551.033
 22.970    565.000    552.253     12.747    550.714    552.096    550.714    550.871    550.714
 23.070    577.000    552.025     24.975    550.396    551.866    550.396    550.555    550.396
 23.170    603.000    551.810     51.190    550.076    551.649    550.076    550.238    550.076
 23.270    575.000    551.613     23.387    549.755    551.449    549.755    549.920    549.755
 23.370    538.000    551.438    -13.438    549.434    551.271    549.434    549.601    549.434
 23.470    578.000    551.291     26.709    549.112    551.122    549.112    549.282    549.112
 23.570    548.000    551.183     -3.183    548.790    551.011    548.790    548.963    548.790
 23.670    553.000    551.127      1.873    548.467    550.952    548.467    548.643    548.467
 23.770    584.000    551.142     32.858    548.143    550.964    548.143    548.322    548.143
 23.870    563.000    551.260     11.740    547.818    551.079    547.818    548.001    547.818
 23.970    570.000    551.534     18.466    547.494    551.350    547.494    547.680    547.494
 24.070    524.535    552.098    -27.563    547.168    551.911    547.168    547.358    547.168
 24.170    556.000    553.324      2.676    546.842    553.135    546.842    547.036    546.842
 24.270    550.000    556.191     -6.191    546.516    556.000    546.516    546.714    546.516
 24.370    559.000    562.712     -3.712    546.189    562.522    546.189    546.391    546.189
 24.470    605.000    575.631     29.369    545.862    575.445    545.862    546.068    545.862
 24.570    624.000    596.254     27.746    545.534    596.079    545.534    545.745    545.534
 24.670    602.000    620.543    -18.543    545.206    620.381    545.206    545.422    545.206
 24.770    618.000    636.590    -18.590    544.878    636.434    544.878    545.099    544.878
 24.870    614.000    632.618    -18.618    544.550    632.454    544.550    544.776    544.550
 24.970    599.000    611.830    -12.830    544.221    611.646    544.221    544.453    544.221
 25.070    597.000    587.449      9.551    543.892    587.241    543.892    544.130    543.892
 25.170    541.966    568.737    -26.770    543.562    568.508    543.562    543.808    543.562
 25.270    594.000    557.584     36.416    543.233    557.341    543.233    543.485    543.233
 25.370    576.000    551.936     24.064    542.903    551.681    542.903    543.163    542.903
 25.470    521.000    549.190    -28.190    542.573    548.926    542.573    542.841    542.573
 25.570    501.776    547.694    -45.918    542.243    547.420    542.243    542.519    542.243
 25.670    551.066    546.712      4.354    541.913    546.429    541.913    542.198    541.913
 25.770    563.000    545.969     17.031    541.583    545.675    541.583    541.878    541.583
 25.870    578.000    545.372     32.628    541.252    545.068    541.252    541.558    541.252
 25.970    525.339    544.878    -19.539    540.922    544.562    540.922    541.239    540.922
 26.070    540.140    544.460     -4.320    540.592    544.131    540.592    540.921    540.592
 26.170    592.000    544.105     47.895    540.261    543.762    540.261    540.604    540.261
 26.270    572.000    543.806     28.194    539.931    543.449    539.931    540.288    539.931
 26.370    540.000    543.558     -3.558    539.601    543.186    539.601    539.974    539.601
 26.470    544.000    543.359      0.641    539.271    542.969    539.271    539.661    539.271
 26.570    549.000    543.236      5.764    538.941    542.827    538.941    539.350    538.941
 26.670    584.000    543.164     40.836    538.611    542.735    538.611    539.040    538.611
 26.770    564.000    543.134     20.866    538.281    542.682    538.281    538.733    538.281
 26.870    516.296    543.177    -26.881    537.952    542.700    537.952    538.428    537.952
 26.970    532.299    543.312    -11.013    537.622    542.807    537.622    538.126    537.622
 27.070    549.536    543.567      5.969    537.293    543.032    537.293    537.828    537.293
 27.170    587.968    543.979     43.989    536.964    543.409    536.964    537.533    536.964
 27.270    560.000    544.598     15.402    536.635    543.989    536.635    537.243    536.635
 27.370    550.000    545.523      4.477    536.307    544.871    536.307    536.958    536.307
 27.470    590.000    546.885     43.115    535.979    546.184    535.979    536.679    535.979
 27.570    552.255    549.042      3.214    535.651    548.283    535.651    536.407    535.651
 27.670    531.353    553.361    -22.007    535.323    552.537    535.323    536.144    535.323
 27.770    545.000    564.497    -19.497    534.996    563.596    534.996    535.891    534.996
 27.870    641.711    594.447     47.264    534.670    593.450    534.670    535.650    534.670
 27.970    697.000    662.227     34.773    534.343    661.108    534.343    535.424    534.343
 28.070    786.000    776.710      9.290    534.017    775.441    534.017    535.217    534.017
 28.170    918.629    905.554     13.075    533.692    904.116    533.692    535.033    533.692
 28.270    951.317    969.245    -17.927    533.367    967.640    533.367    534.878    533.367
 28.370    894.000    915.049    -21.049    533.042    913.273    533.042    534.761    533.042
 28.470    772.862    798.811    -25.949    532.718    796.813    532.718    534.694    532.718
 28.570    726.000    709.334     16.666    532.395    707.023    532.395    534.697    532.395
 28.670    721.428    691.683     29.745    532.072    688.939    532.072    534.803    532.072
 28.770    735.189    740.172     -4.984    531.749    736.834    531.749    535.071    531.749
 28.870    836.000    812.764     23.236    531.428    808.572    531.428    535.609    531.428
 28.970    792.000    847.217    -55.217    531.106    841.732    531.106    536.598    531.106
 29.070    772.000    806.817    -34.817    530.786    799.318    530.786    538.300    530.786
 29.170    696.000    724.164    -28.164    530.466    713.607    530.466    541.038    530.466
 29.270    694.744    649.188     45.556    530.146    634.248    530.146    545.095    530.146
 29.370    606.000    604.076      1.924    529.828    583.376    529.828    550.531    529.828
 29.470    561.000    585.468    -24.468    529.510    558.131    529.510    556.847    529.510
 29.570    596.000    580.636     15.364    529.192    547.326    529.192    562.501    529.192
 29.670    637.000    578.647     58.353    528.876    542.560    528.876    564.961    528.876
 29.770    566.000    574.060     -8.060    528.560    539.982    528.560    562.637    528.560
 29.870    613.004    566.786     46.217    528.245    538.289    528.245    556.741    528.245
 29.970    556.802    558.951     -2.149    527.931    537.087    527.931    549.793    527.931
 30.070    535.701    552.159    -16.458    527.617    536.251    527.617    543.523    527.617
 30.170    540.594    547.039     -6.445    527.304    535.755    527.304    538.586    527.304
 30.270    548.859    543.714      5.145    526.992    535.707    526.992    534.997    526.992
 30.370    525.000    542.359    -17.359    526.681    536.537    526.681    532.499    526.681
 30.470    565.000    543.815     21.185    526.371    539.409    526.371    530.771    526.371
 30.570    598.315    549.998     48.317    526.062    546.514    526.062    529.534    526.062
 30.670    580.364    563.153     17.211    525.753    560.288    525.753    528.595    525.753
 30.770    570.000    583.151    -13.151    525.446    580.724    525.446    527.836    525.446
 30.870    636.438    604.005     32.433    525.139    601.904    525.139    527.188    525.139
 30.970    582.854    613.524    -30.670    524.833    611.687    524.833    526.615    524.833
 31.070    603.000    603.621     -0.621    524.528    602.008    524.528    526.097    524.528
 31.170    596.830    581.796     15.034    524.225    580.373    524.225    525.618    524.225
 31.270    576.000    560.236     15.764    523.922    558.972    523.922    525.170    523.922
 31.370    532.000    545.180    -13.180    523.620    544.045    523.620    524.748    523.620
 31.470    552.655    536.852     15.803    523.319    535.822    523.319    524.345    523.319
 31.570    558.000    532.860     25.140    523.019    531.919    523.019    523.958    523.019
 31.670    503.812    530.960    -27.148    522.720    530.093    522.720    523.585    522.720
 31.770    562.000    529.917     32.083    522.423    529.114    522.423    523.223    522.423
 31.870    501.819    529.235    -27.415    522.126    528.488    522.126    522.871    522.126
 31.970    501.893    528.745    -26.852    521.830    528.047    521.830    522.527    521.830
 32.070    498.000    528.393    -30.393    521.536    527.738    521.536    522.189    521.536
 32.170    546.000    528.155     17.845    521.242    527.538    521.242    521.858    521.242
 32.270    505.446    528.026    -22.580    520.950    527.442    520.950    521.533    520.950
 32.370    560.580    528.004     32.576    520.659    527.450    520.659    521.212    520.659
 32.470    584.000    528.099     55.901    520.368    527.571    520.368    520.895    520.368
 32.570    571.156    528.327     42.829    520.080    527.823    520.080    520.583    520.080
 32.670    592.000    528.713     63.287    519.792    528.230    519.792    520.273    519.792
 32.770    535.345    529.297      6.048    519.505    528.833    519.505    519.968    519.505
 32.870    526.000    530.132     -4.132    519.220    529.685    519.220    519.665    519.220
 32.970    505.737    531.297    -25.560    518.936    530.866    518.936    519.365    518.936
 33.070    563.000    532.921     30.079    518.653    532.504    518.653    519.068    518.653
 33.170    530.000    535.233     -5.233    518.371    534.829    518.371    518.773    518.371
 33.270    548.000    538.757      9.243    518.090    538.364    518.090    518.481    518.090
 33.370    580.000    544.927     35.073    517.811    544.544    517.811    518.191    517.811
 33.470    585.000    557.541     27.459    517.533    557.165    517.533    517.904    517.533
 33.570    565.000    584.900    -19.900    517.256    584.528    517.256    517.618    517.256
 33.670    661.000    640.250     20.750    516.981    639.876    516.981    517.334    516.981
 33.770    748.000    735.736     12.264    516.707    735.355    516.707    517.053    516.707
 33.870    844.920    867.770    -22.851    516.434    867.380    516.434    516.773    516.434
 33.970   1037.000   1000.457     36.543    516.162   1000.064    516.162    516.495    516.162
 34.070   1066.000   1065.535      0.465    515.892   1065.158    515.892    516.219    515.892
 34.170   1059.160   1016.592     42.567    515.623   1016.247    515.623    515.945    515.623
 34.270    884.000    890.001     -6.001    515.356    889.683    515.356    515.673    515.356
 34.370    746.000    754.478     -8.478    515.090    754.175    515.090    515.402    515.090
 34.470    673.220    651.676     21.544    514.825    651.377    514.825    515.134    514.825
 34.570    561.161    589.613    -28.452    514.561    589.314    514.561    514.867    514.561
 34.670    553.373    557.777     -4.404    514.299    557.478    514.299    514.601    514.299
 34.770    511.153    542.636    -31.483    514.039    542.338    514.039    514.337    514.039
 34.870    527.000    535.045     -8.045    513.779    534.749    513.779    514.075    513.779
 34.970    495.401    530.579    -35.178    513.522    530.285    513.522    513.815    513.522
 35.070    551.000    527.501     23.499    513.265    527.209    513.265    513.557    513.265
 35.170    520.888    525.173     -4.284    513.010    524.883    513.010    513.300    513.010
 35.270    553.295    523.329     29.965    512.757    523.042    512.757    513.044    512.757
 35.370    485.000    521.829    -36.829    512.505    521.543    512.505    512.791    512.505
 35.470    509.000    520.581    -11.581    512.254    520.297    512.254    512.539    512.254
 35.570    536.459    519.526     16.934    512.005    519.242    512.005    512.288    512.005
 35.670    504.624    518.618    -13.994    511.757    518.335    511.757    512.039    511.757
 35.770    510.856    517.826     -6.970    511.511    517.545    511.511    511.792    511.511
 35.870    511.270    517.128     -5.857    511.266    516.847    511.266    511.547    511.266
 35.970    520.758    516.505      4.253    511.023    516.225    511.023    511.303    511.023
 36.070    518.004    515.945      2.059    510.782    515.666    510.782    511.061    510.782
 36.170    543.000    515.439     27.561    510.541    515.159    510.541    510.821    510.541
 36.270    521.000    514.978      6.022    510.303    514.699    510.303    510.582    510.303
 36.370    542.000    514.559     27.441    510.066    514.280    510.066    510.345    510.066
 36.470    488.933    514.177    -25.243    509.830    513.898    509.830    510.109    509.830
 36.570    489.954    513.832    -23.878    509.596    513.553    509.596    509.875    509.596
 36.670    470.000    513.524    -43.524    509.364    513.245    509.364    509.643    509.364
 36.770    516.000    513.260      2.740    509.133    512.980    509.133    509.413    509.133
 36.870    507.000    513.058     -6.058    508.904    512.778    508.904    509.184    508.904
 36.970    494.000    512.970    -18.970    508.676    512.689    508.676    508.957    508.676
 37.070    502.000    513.115    -11.115    508.450    512.833    508.450    508.731    508.450
 37.170    520.000    513.728      6.272    508.225    513.446    508.225    508.507    508.225
 37.270    540.211    515.144     25.067    508.002    514.861    508.002    508.285    508.002
 37.370    559.978    517.643     42.335    507.781    517.360    507.781    508.065    507.781
 37.470    539.000    521.138     17.862    507.561    520.855    507.561    507.846    507.561
 37.570    535.000    524.824     10.176    507.343    524.541    507.343    507.629    507.343
 37.670    560.801    527.134     33.666    507.126    526.851    507.126    507.414    507.126
 37.770    517.000    526.757     -9.757    506.911    526.474    506.911    507.200    506.911
 37.870    523.138    524.028     -0.890    506.698    523.746    506.698    506.988    506.698
 37.970    541.000    520.379     20.621    506.486    520.097    506.486    506.778    506.486
 38.070    480.000    516.920    -36.920    506.276    516.638    506.276    506.570    506.276
 38.170    529.000    514.092     14.908    506.068    513.806    506.068    506.363    506.068
 38.270    532.000    511.990     20.010    505.861    511.700    505.861    506.158    505.861
 38.370    486.881    510.535    -23.654    505.656    510.241    505.656    505.955    505.656
 38.470    518.603    509.563      9.040    505.453    509.265    505.453    505.753    505.453
 38.570    464.096    508.912    -44.817    505.251    508.611    505.251    505.554    505.251
 38.670    510.000    508.457      1.543    505.051    508.153    505.051    505.356    505.051
 38.770    492.067    508.110    -16.043    504.852    507.804    504.852    505.159    504.852
 38.870    498.000    507.822     -9.822    504.656    507.513    504.656    504.965    504.656
 38.970    519.000    507.567     11.433    504.460    507.255    504.460    504.772    504.460
 39.070    467.808    507.332    -39.524    504.267    507.018    504.267    504.581    504.267
 39.170    514.135    507.113      7.022    504.075    506.797    504.075    504.392    504.075
 39.270    488.000    506.907    -18.907    503.885    506.588    503.885    504.205    503.885
 39.370    513.453    506.711      6.742    503.697    506.389    503.697    504.019    503.697
 39.470    510.551    506.525      4.026    503.511    506.200    503.511    503.836    503.511
 39.570    515.000    506.347      8.653    503.326    506.019    503.326    503.654    503.326
 39.670    456.000    506.178    -50.178    503.142    505.847    503.142    503.474    503.142
 39.770    532.407    506.017     26.391    502.961    505.682    502.961    503.295    502.961
 39.870    456.000    505.863    -49.863    502.781    505.526    502.781    503.119    502.781
 39.970    466.462    505.718    -39.256    502.603    505.377    502.603    502.944    502.603
 40.070    516.000    505.581     10.419    502.427    505.237    502.427    502.771    502.427
 40.170    507.000    505.453      1.547    502.252    505.105    502.252    502.600    502.252
 40.270    500.537    505.333     -4.797    502.079    504.982    502.079    502.431    502.079
 40.370    486.298    505.224    -18.927    501.908    504.869    501.908    502.264    501.908
 40.470    495.000    505.126    -10.126    501.739    504.767    501.739    502.098    501.739
 40.570    463.000    505.041    -42.041    501.571    504.678    501.571    501.935    501.571
 40.670    519.000    504.969     14.031    501.405    504.602    501.405    501.773    501.405
 40.770    531.000    504.914     26.086    501.241    504.542    501.241    501.613    501.241
 40.870    531.000    504.877     26.123    501.078    504.501    501.078    501.455    501.078
 40.970    461.000    504.863    -43.863    500.918    504.482    500.918    501.299    500.918
 41.070    501.000    504.876     -3.876    500.759    504.490    500.759    501.145    500.759
 41.170    527.853    504.921     22.932    500.601    504.531    500.601    500.993    500.601
 41.270    496.000    505.008     -9.008    500.446    504.613    500.446    500.842    500.446
 41.370    472.000    505.147    -33.147    500.292    504.747    500.292    500.694    500.292
 41.470    510.964    505.354      5.610    500.140    504.948    500.140    500.547    500.140
 41.570    518.000    505.653     12.347    499.990    505.242    499.990    500.403    499.990
 41.670    502.832    506.090     -3.257    499.841    505.673    499.841    500.260    499.841
 41.770    498.000    506.761     -8.761    499.695    506.339    499.695    500.119    499.695
 41.870    482.220    507.907    -25.687    499.550    507.478    499.550    499.980    499.550
 41.970    502.000    510.076     -8.076    499.406    509.643    499.406    499.844    499.406
 42.070    497.000    514.372    -17.372    499.265    513.933    499.265    499.709    499.265
 42.170    474.000    522.558    -48.558    499.125    522.117    499.125    499.576    499.125
 42.270    499.180    536.665    -37.486    498.987    536.223    498.987    499.445    498.987
 42.370    500.000    557.759    -57.759    498.851    557.320    498.851    499.316    498.851
 42.470    558.000    584.104    -26.104    498.716    583.671    498.716    499.190    498.716
 42.570    578.000    609.561    -31.561    498.584    609.134    498.584    499.065    498.584
 42.670    630.870    624.122      6.748    498.453    623.698    498.453    498.942    498.453
 42.770    596.000    620.143    -24.143    498.323    619.711    498.323    498.822    498.323
 42.870    606.803    599.952      6.851    498.196    599.502    498.196    498.703    498.196
 42.970    553.998    573.083    -19.085    498.070    572.610    498.070    498.587    498.070
 43.070    526.000    548.237    -22.237    497.946    547.741    497.946    498.472    497.946
 43.170    510.000    529.708    -19.708    497.824    529.190    497.824    498.360    497.824
 43.270    520.402    517.928      2.473    497.704    517.392    497.704    498.250    497.704
 43.370    496.000    511.288    -15.288    497.585    510.736    497.585    498.142    497.585
 43.470    493.000    507.786    -14.786    497.468    507.221    497.468    498.037    497.468
 43.570    553.000    505.918     47.082    497.353    505.340    497.353    497.934    497.353
 43.670    532.000    504.821     27.179    497.239    504.230    497.239    497.833    497.239
 43.770    491.489    504.088    -12.599    497.128    503.483    497.128    497.734    497.128
 43.870    487.689    503.547    -15.858    497.018    502.929    497.018    497.638    497.018
 43.970    470.000    503.125    -33.125    496.909    502.492    496.909    497.544    496.909
 44.070    542.000    502.787     39.213    496.803    502.139    496.803    497.452    496.803
 44.170    501.000    502.513     -1.513    496.698    501.849    496.698    497.363    496.698
 44.270    524.000    502.289     21.711    496.595    501.609    496.595    497.276    496.595
 44.370    510.000    502.106      7.894    496.494    501.408    496.494    497.192    496.494
 44.470    526.762    501.957     24.806    496.395    501.241    496.395    497.111    496.395
 44.570    514.000    501.836     12.164    496.297    501.101    496.297    497.032    496.297
 44.670    485.000    501.740    -16.740    496.201    500.985    496.201    496.956    496.201
 44.770    471.047    501.667    -30.620    496.107    500.890    496.107    496.883    496.107
 44.870    513.000    501.613     11.387    496.014    500.814    496.014    496.813    496.014
 44.970    498.209    501.578     -3.369    495.923    500.756    495.923    496.746    495.923
 45.070    549.000    501.561     47.439    495.834    500.713    495.834    496.682    495.834
 45.170    462.199    501.561    -39.362    495.747    500.687    495.747    496.622    495.747
 45.270    529.457    501.578     27.878    495.661    500.675    495.661    496.564    495.661
 45.370    500.945    501.612     -0.667    495.577    500.679    495.577    496.511    495.577
 45.470    546.000    501.664     44.336    495.495    500.698    495.495    496.461    495.495
 45.570    543.000    501.733     41.267    495.415    500.733    495.415    496.414    495.415
 45.670    482.296    501.822    -19.525    495.336    500.785    495.336    496.372    495.336
 45.770    498.777    501.931     -3.153    495.259    500.854    495.259    496.335    495.259
 45.870    540.528    502.062     38.466    495.183    500.943    495.183    496.302    495.183
 45.970    516.000    502.218     13.782    495.110    501.053    495.110    496.274    495.110
 46.070    499.000    502.401     -3.401    495.038    501.187    495.038    496.251    495.038
 46.170    499.000    502.614     -3.614    494.968    501.348    494.968    496.234    494.968
 46.270    490.000    502.864    -12.864    494.899    501.539    494.899    496.223    494.899
 46.370    482.000    503.154    -21.154    494.832    501.767    494.832    496.219    494.832
 46.470    469.000    503.493    -34.493    494.767    502.038    494.767    496.222    494.767
 46.570    527.000    503.892     23.108    494.704    502.362    494.704    496.233    494.704
 46.670    521.453    504.365     17.089    494.642    502.753    494.642    496.252    494.642
 46.770    494.000    504.939    -10.939    494.582    503.237    494.582    496.282    494.582
 46.870    509.000    505.669      3.331    494.523    503.867    494.523    496.323    494.523
 46.970    483.000    506.676    -23.676    494.466    504.764    494.466    496.376    494.466
 47.070    508.000    508.224     -0.224    494.411    506.189    494.411    496.443    494.411
 47.170    542.033    510.825     31.208    494.358    508.652    494.358    496.526    494.358
 47.270    487.000    515.313    -28.313    494.306    512.983    494.306    496.627    494.306
 47.370    554.000    522.738     31.262    494.256    520.231    494.256    496.750    494.256
 47.470    558.000    533.952     24.048    494.207    531.241    494.207    496.897    494.207
 47.570    556.000    548.882      7.118    494.160    545.937    494.160    497.073    494.160
 47.670    556.000    565.722     -9.722    494.115    562.510    494.115    497.283    494.115
 47.770    611.000    580.527     30.473    494.071    577.011    494.071    497.535    494.071
 47.870    598.353    587.985     10.368    494.029    584.122    494.029    497.836    494.029
 47.970    628.000    584.951     43.049    493.989    580.690    493.989    498.199    493.989
 48.070    547.195    573.570    -26.375    493.950    568.839    493.950    498.639    493.950
 48.170    586.290    559.022     27.268    493.913    553.726    493.913    499.180    493.913
 48.270    561.000    545.782     15.218    493.878    539.780    493.878    499.860    493.878
 48.370    563.184    536.258     26.926    493.844    529.348    493.844    500.742    493.844
 48.470    540.000    531.042      8.958    493.812    522.911    493.812    501.936    493.812
 48.570    562.000    529.684     32.316    493.781    519.832    493.781    503.628    493.781
 48.670    503.000    531.500    -28.500    493.752    519.131    493.752    506.117    493.752
 48.770    494.000    536.113    -42.113    493.724    519.992    493.724    509.842    493.724
 48.870    542.589    543.617     -1.028    493.698    521.942    493.698    515.370    493.698
 48.970    528.000    554.482    -26.482    493.674    524.830    493.674    523.323    493.674
 49.070    554.260    569.359    -15.099    493.651    528.799    493.651    534.207    493.651
 49.170    620.988    588.964     32.024    493.630    534.439    493.630    548.150    493.630
 49.270    599.000    614.345    -15.345    493.610    543.394    493.610    564.553    493.610
 49.370    660.000    647.979     12.021    493.592    559.906    493.592    581.653    493.592
 49.470    652.605    696.263    -43.658    493.575    593.645    493.575    596.171    493.575
 49.570    803.000    773.538     29.462    493.560    663.186    493.560    603.871    493.560
 49.670    919.000    905.356     13.644    493.547    796.930    493.547    601.899    493.547
 49.770   1123.473   1123.576     -0.103    493.535   1025.923    493.535    591.072    493.535
 49.870   1422.000   1446.515    -24.515    493.524   1364.765    493.524    575.120    493.524
 49.970   1774.539   1850.376    -75.837    493.515   1785.700    493.515    558.025    493.515
 50.070   2215.000   2250.736    -35.736    493.508   2201.663    493.508    542.454    493.508
 50.170   2556.000   2515.862     40.138    493.502   2479.666    493.502    529.671    493.502
 50.270   2523.000   2530.889     -7.889    493.498   2504.533    493.498    519.953    493.498
 50.370   2355.825   2284.286     71.539    493.495   2264.977    493.495    512.994    493.495
 50.470   1833.863   1879.313    -45.449    493.493   1864.803    493.493    508.221    493.493
 50.570   1515.959   1452.834     63.125    493.493   1441.500    493.493    505.020    493.493
 50.670    986.000   1101.992   -115.992    493.495   1092.761    493.495    502.871    493.495
 50.770    819.000    863.427    -44.427    493.498    855.633    493.498    501.390    493.498
 50.870    676.000    726.468    -50.468    493.502    719.709    493.502    500.327    493.502
 50.970    610.000    658.680    -48.680    493.508    652.709    493.508    499.528    493.508
 51.070    627.000    627.133     -0.133    493.515    621.785    493.515    498.903    493.515
 51.170    598.060    608.925    -10.865    493.524    604.083    493.524    498.401    493.524
 51.270    630.643    593.090     37.553    493.534    588.663    493.534    497.991    493.534
 51.370    531.000    577.234    -46.234    493.546    573.152    493.546    497.651    493.546
 51.470    613.000    562.513     50.487    493.559    558.720    493.559    497.369    493.559
 51.570    551.000    550.361      0.639    493.573    546.813    493.573    497.133    493.573
 51.670    562.000    541.413     20.587    493.589    538.074    493.589    496.936    493.589
 51.770    552.000    535.505     16.495    493.606    532.344    493.606    496.772    493.606
 51.870    535.000    532.017      2.983    493.625    529.011    493.625    496.636    493.625
 51.970    567.000    530.262     36.738    493.645    527.386    493.645    496.523    493.645
 52.070    562.000    529.710     32.290    493.666    526.948    493.666    496.431    493.666
 52.170    594.000    530.079     63.921    493.689    527.412    493.689    496.358    493.689
 52.270    552.000    531.319     20.681    493.713    528.734    493.713    496.300    493.713
 52.370    570.574    533.645     36.929    493.738    531.128    493.738    496.256    493.738
 52.470    552.809    537.687     15.122    493.765    535.228    493.765    496.226    493.765
 52.570    575.000    544.846     30.154    493.793    542.433    493.793    496.206    493.793
 52.670    569.000    557.831     11.169    493.822    555.456    493.822    496.198    493.822
 52.770    589.158    581.189      7.969    493.853    578.843    493.853    496.199    493.853
 52.870    631.000    621.277      9.723    493.885    618.951    493.885    496.209    493.885
 52.970    751.000    684.956     66.044    493.918    682.644    493.918    496.227    493.918
 53.070    749.000    776.559    -27.559    493.953    774.254    493.953    496.254    493.953
 53.170    841.576    893.609    -52.033    493.989    891.308    493.989    496.288    493.989
 53.270    997.843   1022.729    -24.886    494.026   1020.429    494.026    496.329    494.026
 53.370   1183.000   1137.736     45.264    494.064   1135.435    494.064    496.378    494.064
 53.470   1151.000   1204.325    -53.325    494.104   1202.021    494.104    496.433    494.104
 53.570   1184.000   1197.296    -13.296    494.145   1194.984    494.145    496.496    494.145
 53.670   1142.089   1119.833     22.256    494.187   1117.499    494.187    496.565    494.187
 53.770    979.242   1000.512    -21.270    494.231    998.145    494.231    496.641    494.231
 53.870    839.000    872.792    -33.792    494.275    870.380    494.275    496.724    494.275
 53.970    732.000    760.492    -28.492    494.321    758.027    494.321    496.814    494.321
 54.070    676.000    674.743      1.257    494.368    672.221    494.368    496.911    494.368
 54.170    608.659    616.450     -7.791    494.417    613.864    494.417    497.015    494.417
 54.270    617.000    580.543     36.457    494.466    577.891    494.466    497.127    494.466
 54.370    537.000    560.108    -23.108    494.517    557.384    494.517    497.246    494.517
 54.470    587.000    549.089     37.911    494.569    546.287    494.569    497.374    494.569
 54.570    517.462    543.304    -25.842    494.622    540.418    494.622    497.510    494.622
 54.670    603.000    540.323     62.677    494.676    537.345    494.676    497.655    494.676
 54.770    534.000    538.908     -4.908    494.731    535.830    494.731    497.810    494.731
 54.870    604.000    538.492     65.508    494.788    535.306    494.788    497.976    494.788
 54.970    514.000    538.838    -24.838    494.845    535.532    494.845    498.152    494.845
 55.070    583.000    539.857     43.143    494.904    536.422    494.904    498.340    494.904
 55.170    570.000    541.539     28.461    494.964    537.963    494.964    498.541    494.964
 55.270    587.000    543.922     43.078    495.025    540.192    495.025    498.756    495.025
 55.370    552.000    547.095      4.905    495.087    543.196    495.087    498.987    495.087
 55.470    581.159    551.220     29.939    495.150    547.137    495.150    499.234    495.150
 55.570    598.240    556.603     41.636    495.214    552.319    495.214    499.499    495.214
 55.670    606.000    563.885     42.115    495.279    559.379    495.279    499.785    495.279
 55.770    604.267    574.454     29.813    495.346    569.706    495.346    500.094    495.346
 55.870    612.218    591.277     20.941    495.413    586.261    495.413    500.428    495.413
 55.970    634.000    620.224     13.776    495.481    614.911    495.481    500.790    495.481
 56.070    720.067    671.647     48.420    495.551    666.004    495.551    501.185    495.551
 56.170    744.094    761.273    -17.178    495.621    755.260    495.621    501.615    495.621
 56.270    876.000    908.667    -32.667    495.693    902.242    495.693    502.086    495.693
 56.370   1108.000   1131.564    -23.564    495.765   1124.679    495.765    502.605    495.765
 56.470   1380.000   1435.891    -55.891    495.839   1428.499    495.839    503.177    495.839
 56.570   1759.000   1804.217    -45.217    495.913   1796.272    495.913    503.811    495.913
 56.670   2140.000   2187.288    -47.288    495.989   2178.743    495.989    504.518    495.989
 56.770   2440.000   2504.169    -64.169    496.065   2494.968    496.065    505.309    496.065
 56.870   2621.575   2661.969    -40.395    496.142   2652.039    496.142    506.200    496.142
 56.970   2531.000   2604.828    -73.828    496.220   2594.052    496.220    507.210    496.220
 57.070   2401.146   2355.567     45.579    496.300   2343.771    496.300    508.361    496.300
 57.170   2026.000   1996.448     29.552    496.380   1983.413    496.380    509.686    496.380
 57.270   1701.000   1617.366     83.634    496.461   1602.839    496.461    511.227    496.461
 57.370   1361.000   1283.195     77.805    496.543   1266.876    496.543    513.051    496.543
 57.470    966.047   1025.876    -59.830    496.626   1007.379    496.626    515.257    496.626
 57.570    910.000    849.520     60.480    496.709    828.301    496.709    518.016    496.709
 57.670    743.000    741.240      1.760    496.794    716.482    496.794    521.605    496.794
 57.770    635.000    682.524    -47.524    496.879    652.954    496.879    526.479    496.879
 57.870    639.036    657.314    -18.278    496.966    620.951    496.966    533.342    496.966
 57.970    693.000    655.631     37.369    497.053    609.477    497.053    543.209    497.053
 58.070    705.000    673.759     31.241    497.141    613.476    497.141    557.417    497.141
 58.170    716.294    712.561      3.733    497.229    632.252    497.229    577.522    497.229
 58.270    774.528    775.023     -0.495    497.319    667.259    497.319    605.055    497.319
 58.370    917.711    863.592     54.119    497.410    719.853    497.410    641.110    497.410
 58.470    968.000    977.739     -9.739    497.501    789.389    497.501    685.804    497.501
 58.570   1097.718   1111.865    -14.147    497.593    871.754    497.593    737.655    497.593
 58.670   1288.000   1254.356     33.644    497.685    959.138    497.685    792.858    497.685
 58.770   1395.052   1388.668      6.384    497.779   1041.859    497.779    844.555    497.779
 58.870   1521.000   1496.500     24.500    497.873   1111.481    497.873    882.878    497.873
 58.970   1577.376   1561.126     16.250    497.968   1161.391    497.968    897.710    497.968
 59.070   1626.000   1571.269     54.731    498.064   1184.960    498.064    884.401    498.064
 59.170   1477.000   1526.729    -49.729    498.160   1177.703    498.160    847.230    498.160
 59.270   1493.000   1441.065     51.935    498.258   1143.193    498.258    796.177    498.258
 59.370   1380.320   1336.664     43.656    498.355   1093.866    498.355    741.187    498.355
 59.470   1288.000   1236.137     51.863    498.454   1045.321    498.454    689.278    498.454
 59.570   1100.000   1158.171    -58.171    498.553   1012.306    498.553    644.389    498.553
 59.670   1147.832   1118.251     29.581    498.653   1008.725    498.653    608.104    498.653
 59.770   1221.000   1127.957     93.043    498.754   1046.211    498.754    580.371    498.754
 59.870   1213.000   1190.236     22.764    498.855   1128.771    498.855    560.135    498.855
 59.970   1409.000   1294.637    114.363    498.957   1247.479    498.957    545.876    498.957
 60.070   1472.000   1415.866     56.134    499.059   1378.613    499.059    536.034    499.059
 60.170   1636.000   1516.590    119.410    499.162   1486.202    499.162    529.260    499.162
 60.270   1562.000   1557.296      4.704    499.266   1531.772    499.266    524.524    499.266
 60.370   1530.000   1515.000     15.000    499.370   1493.049    499.370    521.109    499.370
 60.470   1443.000   1397.309     45.691    499.475   1378.085    499.475    518.554    499.475
 60.570   1315.000   1234.967     80.033    499.581   1217.884    499.581    516.577    499.581
 60.670   1042.000   1063.229    -21.229    499.686   1047.859    499.686    515.014    499.686
 60.770    917.722    909.278      8.445    499.793    895.284    499.793    513.771    499.793
 60.870    827.297    788.043     39.254    499.900    775.142    499.900    512.798    499.900
 60.970    685.000    703.223    -18.223    500.008    691.163    500.008    512.067    500.008
 61.070    654.008    651.197      2.811    500.116    639.743    500.116    511.566    500.116
 61.170    626.000    625.810      0.190    500.224    614.736    500.224    511.289    500.224
 61.270    605.000    622.278    -17.278    500.334    611.367    500.334    511.226    500.334
 61.370    639.068    639.267     -0.199    500.443    628.322    500.443    511.358    500.443
 61.470    713.151    679.037     34.114    500.553    667.894    500.553    511.650    500.553
 61.570    773.000    745.837     27.163    500.664    734.392    500.664    512.039    500.664
 61.670    866.000    842.900     23.100    500.775    831.149    500.775    512.427    500.775
 61.770    943.000    968.723    -25.723    500.886    956.795    500.886    512.684    500.886
 61.870   1171.112   1113.738     57.374    500.998   1101.899    500.998    512.679    500.998
 61.970   1234.000   1258.608    -24.608    501.110   1247.203    501.110    512.339    501.110
 62.070   1361.000   1375.468    -14.468    501.223   1364.821    501.223    511.697    501.223
 62.170   1390.000   1434.579    -44.579    501.336   1424.906    501.336    510.860    501.336
 62.270   1331.000   1417.868    -86.868    501.450   1409.256    501.450    509.955    501.450
 62.370   1335.208   1330.320      4.888    501.563   1322.743    501.563    509.079    501.563
 62.470   1142.000   1196.397    -54.397    501.678   1189.756    501.678    508.295    501.678
 62.570   1069.037   1046.204     22.833    501.792   1040.363    501.792    507.634    501.792
 62.670    913.000    904.562      8.438    501.907    899.380    501.907    507.103    501.907
 62.770    828.135    786.732     41.402    502.022    782.076    502.022    506.695    502.022
 62.870    707.868    698.400      9.468    502.138    694.158    502.138    506.394    502.138
 62.970    616.000    637.993    -21.993    502.254    634.076    502.254    506.179    502.254
 63.070    561.000    599.950    -38.950    502.370    596.293    502.370    506.031    502.370
 63.170    571.000    577.727     -6.727    502.486    574.282    502.486    505.932    502.486
 63.270    528.628    565.737    -37.109    502.603    562.469    502.603    505.869    502.603
 63.370    569.000    560.160      8.840    502.720    557.043    502.720    505.832    502.720
 63.470    565.000    558.984      6.016    502.837    556.000    502.837    505.815    502.837
 63.570    539.181    561.754    -22.573    502.955    558.887    502.955    505.813    502.955
 63.670    570.000    569.281      0.719    503.073    566.517    503.073    505.823    503.073
 63.770    558.793    583.383    -24.590    503.190    580.711    503.190    505.844    503.190
 63.870    560.412    606.539    -46.127    503.309    603.947    503.309    505.872    503.309
 63.970    602.612    641.288    -38.676    503.427    638.763    503.427    505.909    503.427
 64.070    697.047    689.313      7.735    503.546    686.847    503.546    505.952    503.546
 64.170    690.000    750.318    -60.318    503.664    747.901    503.664    506.002    503.664
 64.270    832.499    820.946     11.554    503.783    818.572    503.783    506.057    503.783
 64.370    918.379    894.067     24.312    503.902    891.736    503.902    506.117    503.902
 64.470    974.617    958.985     15.632    504.021    956.698    504.021    506.182    504.021
 64.570   1011.000   1003.660      7.340    504.141   1001.426    504.141    506.251    504.141
 64.670   1076.000   1019.385     56.615    504.260   1017.211    504.260    506.324    504.260
 64.770    966.370   1004.643    -38.273    504.380   1002.536    504.380    506.401    504.380
 64.870   1008.821    964.733     44.088    504.499    962.693    504.499    506.482    504.499
 64.970    915.000    908.887      6.113    504.619    906.911    504.619    506.565    504.619
 65.070    793.743    847.225    -53.482    504.739    845.305    504.739    506.652    504.739
 65.170    776.460    787.947    -11.487    504.859    786.076    504.859    506.741    504.859
 65.270    731.000    735.742     -4.742    504.978    733.910    504.978    506.834    504.978
 65.370    715.258    692.031     23.227    505.098    690.229    505.098    506.928    505.098
 65.470    654.000    656.409     -2.409    505.218    654.630    505.218    507.026    505.218
 65.570    587.000    627.972    -40.972    505.338    626.210    505.338    507.125    505.338
 65.670    549.000    605.795    -56.795    505.458    604.045    505.458    507.227    505.458
 65.770    569.000    588.961    -19.961    505.578    587.224    505.578    507.329    505.578
 65.870    613.000    576.605     36.395    505.698    574.876    505.698    507.435    505.698
 65.970    580.080    567.947     12.133    505.818    566.226    505.818    507.543    505.818
 66.070    586.000    562.310     23.690    505.938    560.596    505.938    507.654    505.938
 66.170    589.945    559.109     30.836    506.058    557.402    506.058    507.766    506.058
 66.270    575.000    557.861     17.139    506.178    556.159    506.178    507.880    506.178
 66.370    511.504    558.203    -46.699    506.298    556.505    506.298    507.996    506.298
 66.470    577.147    559.935     17.212    506.418    558.239    506.418    508.114    506.418
 66.570    598.000    563.077     34.923    506.537    561.382    506.537    508.233    506.537
 66.670    586.000    567.980     18.020    506.657    566.283    506.657    508.355    506.657
 66.770    560.767    575.521    -14.754    506.776    573.820    506.776    508.478    506.776
 66.870    634.000    587.449     46.551    506.895    585.742    506.895    508.604    506.895
 66.970    628.765    606.861     21.903    507.014    605.144    507.014    508.731    507.014
 67.070    630.000    638.740     -8.740    507.133    637.010    507.133    508.860    507.133
 67.170    660.351    690.295    -29.944    507.252    688.549    507.252    508.991    507.252
 67.270    780.493    770.730      9.764    507.371    768.965    507.371    509.125    507.371
 67.370    879.529    889.966    -10.437    507.489    888.181    507.489    509.260    507.489
 67.470   1049.000   1056.082     -7.082    507.608   1054.277    507.608    509.398    507.608
 67.570   1242.000   1271.667    -29.667    507.726   1269.847    507.726    509.538    507.726
 67.670   1517.312   1529.902    -12.590    507.844   1528.076    507.844    509.680    507.844
 67.770   1779.559   1811.552    -31.993    507.961   1809.733    507.961    509.825    507.961
 67.870   2031.000   2083.988    -52.988    508.079   2082.190    508.079    509.973    508.079
 67.970   2331.000   2303.750     27.250    508.196   2301.986    508.196    510.123    508.196
 68.070   2342.995   2425.723    -82.728    508.313   2423.996    508.313    510.277    508.313
 68.170   2365.348   2420.289    -54.941    508.430   2418.587    508.430    510.433    508.430
 68.270   2384.087   2288.960     95.127    508.546   2287.252    508.546    510.594    508.546
 68.370   2009.537   2063.429    -53.892    508.662   2061.677    508.662    510.758    508.662
 68.470   1862.000   1789.171     72.829    508.778   1787.341    508.778    510.926    508.778
 68.570   1479.000   1508.923    -29.923    508.893   1506.991    508.893    511.098    508.893
 68.670   1295.000   1254.206     40.794    509.009   1252.158    509.009    511.276    509.009
 68.770   1033.000   1043.136    -10.136    509.124   1040.967    509.124    511.458    509.124
 68.870    882.000    881.603      0.397    509.238    879.313    509.238    511.646    509.238
 68.970    740.000    766.408    -26.408    509.352    764.000    509.352    511.840    509.352
 69.070    640.807    689.197    -48.390    509.466    686.674    509.466    512.041    509.466
 69.170    634.000    640.034     -6.034    509.580    637.398    509.580    512.250    509.580
 69.270    685.000    609.853     75.147    509.693    607.101    509.693    512.467    509.693
 69.370    644.000    591.626     52.374    509.805    588.753    509.805    512.693    509.805
 69.470    602.000    580.527     21.473    509.918    577.525    509.918    512.929    509.918
 69.570    609.000    573.558     35.442    510.029    570.417    510.029    513.177    510.029
 69.670    556.000    569.003    -13.003    510.141    565.711    510.141    513.438    510.141
 69.770    553.000    565.942    -12.942    510.252    562.485    510.252    513.713    510.252
 69.870    526.228    563.906    -37.678    510.362    560.266    510.362    514.005    510.362
 69.970    569.000    562.662      6.338    510.472    558.822    510.472    514.315    510.472
 70.070    551.887    562.104    -10.217    510.582    558.042    510.582    514.646    510.582
 70.170    614.000    562.200     51.800    510.691    557.891    510.691    515.001    510.691
 70.270    562.246    562.977     -0.731    510.800    558.394    510.800    515.383    510.800
 70.370    595.170    564.548     30.623    510.908    559.657    510.908    515.797    510.908
 70.470    596.935    567.156     29.779    511.016    561.921    511.016    516.248    511.016
 70.570    555.000    571.285    -16.285    511.123    565.662    511.123    516.741    511.123
 70.670    549.291    577.819    -28.528    511.230    571.757    511.230    517.285    511.230
 70.770    579.000    588.276     -9.276    511.336    581.712    511.336    517.889    511.336
 70.870    567.000    605.087    -38.087    511.441    597.944    511.441    518.568    511.441
 70.970    639.194    631.820      7.374    511.546    623.999    511.546    519.341    511.546
 71.070    668.000    673.230     -5.230    511.651    664.600    511.651    520.241    511.651
 71.170    731.000    734.926     -3.926    511.754    725.306    511.754    521.316    511.754
 71.270    809.000    822.485    -13.485    511.858    811.611    511.858    522.650    511.858
 71.370    897.979    939.973    -41.993    511.960    927.452    511.960    524.371    511.960
 71.470   1098.000   1088.056      9.944    512.062   1073.295    512.062    526.683    512.062
 71.570   1201.000   1262.131    -61.131    512.164   1244.237    512.164    529.888    512.164
 71.670   1331.000   1450.983   -119.983    512.265   1428.644    512.265    534.412    512.265
 71.770   1667.000   1636.439     30.561    512.365   1607.789    512.365    540.813    512.365
 71.870   1870.449   1794.606     75.843    512.464   1757.111    512.464    549.763    512.464
 71.970   1944.000   1900.001     43.999    512.563   1850.404    512.563    561.986    512.563
 72.070   1922.000   1933.598    -11.598    512.661   1867.977    512.661    578.144    512.661
 72.170   1863.000   1891.688    -28.688    512.759   1805.679    512.759    598.672    512.759
 72.270   1849.000   1788.024     60.976    512.856   1677.236    512.856    623.584    512.856
 72.370   1681.000   1646.698     34.302    512.952   1507.341    512.952    652.277    512.952
 72.470   1545.724   1492.446     53.279    513.047   1322.129    513.047    683.353    513.047
 72.570   1408.628   1344.488     64.141    513.142   1143.152    513.142    714.477    513.142
 72.670   1219.927   1214.221      5.706    513.236    985.115    513.236    742.346    513.236
 72.770   1084.000   1105.318    -21.318    513.329    855.677    513.329    762.975    513.329
 72.870    968.229   1015.664    -47.435    513.422    756.454    513.422    772.636    513.422
 72.970    979.496    940.572     38.924    513.513    684.753    513.513    769.335    513.513
 73.070    836.000    875.759    -39.759    513.604    635.544    513.604    753.821    513.604
 73.170    801.000    818.638    -17.638    513.695    603.164    513.695    729.170    513.695
 73.270    800.560    768.083     32.477    513.784    582.487    513.784    699.381    513.784
 73.370    692.000    723.752    -31.752    513.873    569.487    513.873    668.139    513.873
 73.470    730.914    685.631     45.283    513.961    561.339    513.961    638.255    513.961
 73.570    597.000    653.766    -56.766    514.048    556.249    514.048    611.568    514.048
 73.670    585.300    628.091    -42.790    514.134    553.176    514.134    589.054    514.134
 73.770    573.000    608.318    -35.318    514.219    551.570    514.219    570.975    514.219
 73.870    578.000    593.914    -15.914    514.304    551.151    514.304    557.077    514.304
 73.970    598.000    584.145     13.855    514.388    551.757    514.388    546.790    514.388
 74.070    610.708    578.143     32.565    514.471    553.231    514.471    539.402    514.471
 74.170    541.292    574.984    -33.693    514.553    555.354    514.553    534.208    514.553
 74.270    603.517    573.737     29.780    514.634    557.813    514.634    530.589    514.634
 74.370    603.000    573.493     29.507    514.714    560.188    514.714    528.057    514.714
 74.470    615.570    573.403     42.167    514.793    561.989    514.793    526.249    514.793
 74.570    612.000    572.748     39.252    514.872    562.745    514.872    524.920    514.872
 74.670    647.000    571.070     75.930    514.949    562.160    514.949    523.905    514.949
 74.770    654.000    568.278     85.722    515.026    560.246    515.026    523.101    515.026
 74.870    604.000    564.627     39.373    515.102    557.323    515.102    522.445    515.102
 74.970    579.000    560.581     18.419    515.176    553.893    515.176    521.897    515.176
 75.070    573.000    556.661     16.339    515.250    550.506    515.250    521.432    515.250
 75.170    601.967    553.374     48.593    515.323    547.684    515.323    521.033    515.323
 75.270    546.000    551.197     -5.197    515.395    545.917    515.395    520.689    515.395
 75.370    569.000    550.599     18.401    515.466    545.682    515.466    520.391    515.466
 75.470    553.000    552.067      0.933    515.536    547.473    515.536    520.131    515.536
 75.570    551.000    556.116     -5.116    515.605    551.813    515.605    519.905    515.605
 75.670    565.000    563.270      1.730    515.673    559.225    515.673    519.708    515.673
 75.770    547.514    573.972    -26.458    515.740    570.160    515.740    519.536    515.740
 75.870    582.000    588.455     -6.455    515.806    584.852    515.806    519.385    515.806
 75.970    566.457    606.570    -40.113    515.871    603.156    515.871    519.253    515.871
 76.070    607.508    627.620    -20.113    515.935    624.376    515.935    519.138    515.935
 76.170    657.000    650.252      6.748    515.998    647.163    515.998    519.038    515.998
 76.270    705.000    672.425     32.575    516.060    669.478    516.060    518.950    516.060
 76.370    689.425    691.512     -2.086    516.121    688.698    516.121    518.874    516.121
 76.470    683.000    704.634    -21.634    516.181    701.944    516.181    518.807    516.181
 76.570    671.488    709.374    -37.885    516.240    706.803    516.240    518.750    516.240
 76.670    733.243    704.722     28.522    516.297    702.264    516.297    518.700    516.297
 76.770    647.000    691.567    -44.567    516.354    689.216    516.354    518.658    516.354
 76.870    639.000    672.252    -33.252    516.409    670.003    516.409    518.622    516.409
 76.970    638.000    649.635    -11.635    516.464    647.480    516.464    518.591    516.464
 77.070    588.000    626.351    -38.351    516.517    624.282    516.517    518.565    516.517
 77.170    604.000    604.453     -0.453    516.569    602.464    516.569    518.544    516.569
 77.270    572.262    585.295    -13.033    516.621    583.380    516.621    518.526    516.621
 77.370    553.000    569.552    -16.552    516.671    567.704    516.671    518.512    516.671
 77.470    484.000    557.320    -73.320    516.719    555.534    516.719    518.501    516.719
 77.570    533.000    548.284    -15.284    516.767    546.556    516.767    518.493    516.767
 77.670    527.754    541.901    -14.147    516.814    540.226    516.814    518.487    516.814
 77.770    502.000    537.556    -35.556    516.859    535.930    516.859    518.484    516.859
 77.870    533.156    534.678     -1.522    516.903    533.097    516.903    518.483    516.903
 77.970    542.035    532.780      9.255    516.947    531.243    516.947    518.483    516.947
 78.070    512.492    531.528    -19.036    516.989    530.031    516.989    518.485    516.989
 78.170    541.000    530.715     10.285    517.029    529.256    517.029    518.488    517.029
 78.270    514.000    530.168    -16.168    517.069    528.744    517.069    518.492    517.069
 78.370    553.144    529.793     23.351    517.107    528.402    517.107    518.498    517.107
 78.470    498.424    529.540    -31.117    517.144    528.180    517.144    518.504    517.144
 78.570    492.436    529.393    -36.957    517.180    528.061    517.180    518.512    517.180
 78.670    530.000    529.344      0.656    517.215    528.039    517.215    518.520    517.215
 78.770    512.000    529.403    -17.403    517.249    528.122    517.249    518.529    517.249
 78.870    534.739    529.586      5.153    517.281    528.327    517.281    518.540    517.281
 78.970    559.000    529.918     29.082    517.312    528.678    517.312    518.552    517.312
 79.070    501.582    530.430    -28.849    517.342    529.206    517.342    518.565    517.342
 79.170    527.418    531.152     -3.734    517.371    529.940    517.371    518.581    517.371
 79.270    485.000    532.114    -47.114    517.398    530.910    517.398    518.601    517.398
 79.370    473.000    533.343    -60.343    517.424    532.141    517.424    518.624    517.424
 79.470    497.612    534.865    -37.253    517.449    533.659    517.449    518.652    517.449
 79.570    522.932    536.709    -13.777    517.473    535.491    517.473    518.686    517.473
 79.670    529.000    538.923     -9.923    517.495    537.685    517.495    518.728    517.495
 79.770    511.000    541.589    -30.589    517.516    540.322    517.516    518.778    517.516
 79.870    539.000    544.847     -5.847    517.536    543.541    517.536    518.837    517.536
 79.970    549.941    548.923      1.017    517.555    547.570    517.555    518.903    517.555
 80.070    529.000    554.157    -25.157    517.572    552.747    517.572    518.978    517.572
 80.170    580.000    560.998     19.002    517.588    559.526    517.588    519.057    517.588
 80.270    548.000    569.960    -21.960    517.603    568.424    517.603    519.138    517.603
 80.370    624.588    581.516     43.072    517.616    579.919    517.616    519.215    517.616
 80.470    589.000    595.977     -6.977    517.628    594.327    517.628    519.282    517.628
 80.570    636.000    613.373     22.627    517.639    611.688    517.639    519.333    517.639
 80.670    669.408    633.366     36.042    517.648    631.669    517.648    519.359    517.648
 80.770    626.110    655.201    -29.091    517.656    653.520    517.656    519.358    517.656
 80.870    726.776    677.731     49.044    517.663    676.093    517.663    519.328    517.663
 80.970    684.000    699.539    -15.539    517.668    697.966    517.668    519.275    517.668
 81.070    727.000    719.148      7.852    517.672    717.657    517.672    519.203    517.672
 81.170    775.000    735.220     39.780    517.675    733.821    517.675    519.122    517.675
 81.270    769.465    746.684     22.781    517.676    745.378    517.676    519.037    517.676
 81.370    775.000    752.822     22.178    517.676    751.606    517.676    518.953    517.676
 81.470    785.000    753.352     31.648    517.675    752.218    517.675    518.873    517.675
 81.570    790.450    748.438     42.012    517.672    747.378    517.672    518.801    517.672
 81.670    706.669    738.634    -31.965    517.668    737.636    517.668    518.736    517.668
 81.770    728.000    724.834      3.166    517.662    723.888    517.662    518.679    517.662
 81.870    710.225    708.242      1.982    517.656    707.337    517.656    518.630    517.656
 81.970    728.000    690.196     37.804    517.647    689.322    517.647    518.588    517.647
 82.070    707.000    671.890     35.110    517.638    671.041    517.638    518.551    517.638
 82.170    660.000    654.163      5.837    517.627    653.333    517.627    518.518    517.627
 82.270    644.704    637.454      7.250    517.614    636.636    517.614    518.489    517.614
 82.370    633.000    621.920     11.080    517.600    621.111    517.600    518.461    517.600
 82.470    629.636    607.626     22.010    517.585    606.822    517.585    518.435    517.585
 82.570    632.000    594.677     37.323    517.569    593.876    517.569    518.410    517.569
 82.670    593.000    583.241      9.759    517.551    582.441    517.551    518.385    517.551
 82.770    576.000    573.508      2.492    517.531    572.707    517.531    518.359    517.531
 82.870    556.415    565.650     -9.235    517.510    564.847    517.510    518.333    517.510
 82.970    629.000    559.797     69.203    517.488    558.992    517.488    518.306    517.488
 83.070    554.000    556.027     -2.027    517.465    555.218    517.465    518.279    517.465
 83.170    520.979    554.344    -33.365    517.439    553.531    517.439    518.250    517.439
 83.270    538.000    554.653    -16.653    517.413    553.836    517.413    518.221    517.413
 83.370    534.000    556.748    -22.748    517.385    555.925    517.385    518.190    517.385
 83.470    562.000    560.295      1.705    517.356    559.467    517.356    518.159    517.356
 83.570    552.000    564.838    -12.838    517.325    564.005    517.325    518.127    517.325
 83.670    604.835    569.807     35.027    517.293    568.970    517.293    518.093    517.293
 83.770    598.146    574.550     23.595    517.259    573.709    517.259    518.059    517.259
 83.870    554.236    578.382    -24.146    517.224    577.539    517.224    518.023    517.224
 83.970    606.000    580.677     25.323    517.187    579.832    517.187    517.986    517.187
 84.070    560.000    580.993    -20.993    517.149    580.149    517.149    517.948    517.149
 84.170    544.000    579.198    -35.198    517.110    578.357    517.110    517.909    517.110
 84.270    524.000    575.503    -51.503    517.069    574.665    517.069    517.869    517.069
 84.370    571.000    570.369      0.631    517.027    569.536    517.027    517.828    517.027
 84.470    555.000    564.372     -9.372    516.983    563.542    516.983    517.785    516.983
 84.570    560.000    558.075      1.925    516.938    557.249    516.938    517.742    516.938
 84.670    551.985    551.956      0.029    516.891    551.133    516.891    517.697    516.891
 84.770    506.097    546.374    -40.278    516.843    545.553    516.843    517.651    516.843
 84.870    551.000    541.557      9.443    516.793    540.736    516.793    517.604    516.793
 84.970    505.000    537.607    -32.607    516.742    536.786    516.742    517.555    516.742
 85.070    574.102    534.525     39.577    516.690    533.703    516.690    517.506    516.690
 85.170    561.812    532.241     29.571    516.636    531.417    516.636    517.455    516.636
 85.270    479.000    530.644    -51.644    516.580    529.817    516.580    517.403    516.580
 85.370    530.000    529.613      0.387    516.524    528.783    516.524    517.350    516.524
 85.470    550.004    529.041     20.964    516.465    528.206    516.465    517.296    516.465
 85.570    565.000    528.846     36.154    516.405    528.006    516.405    517.241    516.405
 85.670    526.000    528.984     -2.984    516.344    528.138    516.344    517.184    516.344
 85.770    522.000    529.452     -7.452    516.281    528.600    516.281    517.127    516.281
 85.870    554.000    530.290     23.710    516.217    529.432    516.217    517.068    516.217
 85.970    514.000    531.582    -17.582    516.152    530.717    516.152    517.008    516.152
 86.070    518.000    533.456    -15.456    516.084    532.581    516.084    516.947    516.084
 86.170    537.000    536.073      0.927    516.016    535.188    516.016    516.885    516.016
 86.270    575.000    539.621     35.379    515.946    538.725    515.946    516.822    515.946
 86.370    543.000    544.295     -1.295    515.874    543.385    515.874    516.758    515.874
 86.470    552.000    550.263      1.737    515.801    549.339    515.801    516.692    515.801
 86.570    549.000    557.636     -8.636    515.727    556.695    515.727    516.626    515.727
 86.670    523.790    566.422    -42.631    515.651    565.462    515.651    516.559    515.651
 86.770    600.000    576.485     23.515    515.573    575.505    515.573    516.490    515.573
 86.870    589.000    587.512      1.488    515.495    586.510    515.495    516.421    515.495
 86.970    578.000    598.987    -20.987    515.414    597.964    515.414    516.350    515.414
 87.070    647.000    610.231     36.769    515.332    609.186    515.332    516.279    515.332
 87.170    619.000    620.394     -1.394    515.249    619.330    515.249    516.206    515.249
 87.270    645.587    628.534     17.052    515.164    627.453    515.164    516.133    515.164
 87.370    641.000    633.781      7.219    515.078    632.686    515.078    516.059    515.078
 87.470    666.348    635.533     30.814    514.991    634.428    514.991    515.984    514.991
 87.570    646.000    633.635     12.365    514.902    632.524    514.902    515.908    514.902
 87.670    659.904    628.425     31.479    514.811    627.310    514.811    515.831    514.811
 87.770    631.000    620.627     10.373    514.719    619.510    514.719    515.754    514.719
 87.870    582.571    611.173    -28.601    514.626    610.053    514.626    515.676    514.626
 87.970    634.000    601.041     32.959    514.531    599.920    514.531    515.597    514.531
 88.070    601.115    591.159      9.956    514.434    590.033    514.434    515.518    514.434
 88.170    615.000    582.325     32.675    514.337    581.193    514.337    515.438    514.337
 88.270    534.000    575.167    -41.167    514.237    574.027    514.237    515.357    514.237
 88.370    560.000    570.120    -10.120    514.137    568.970    514.137    515.276    514.137
 88.470    598.671    567.415     31.257    514.035    566.252    514.035    515.195    514.035
 88.570    601.312    567.082     34.230    513.931    565.905    513.931    515.114    513.931
 88.670    559.686    568.969     -9.284    513.826    567.777    513.826    515.032    513.826
 88.770    610.000    572.755     37.245    513.720    571.547    513.720    514.949    513.720
 88.870    596.000    577.970     18.030    513.612    576.745    513.612    514.866    513.612
 88.970    583.000    584.026     -1.026    513.503    582.781    513.503    514.784    513.503
 89.070    547.605    590.235    -42.631    513.392    588.969    513.392    514.703    513.392
 89.170    626.010    595.861     30.149    513.280    594.570    513.280    514.622    513.280
 89.270    639.000    600.171     38.829    513.166    598.854    513.166    514.541    513.166
 89.370    627.100    602.542     24.559    513.051    601.194    513.051    514.461    513.051
 89.470    608.000    602.572      5.428    512.935    601.189    512.935    514.382    512.935
 89.570    574.992    600.177    -25.185    512.817    598.755    512.817    514.304    512.817
 89.670    580.165    595.602    -15.438    512.698    594.136    512.698    514.227    512.698
 89.770    557.000    589.330    -32.330    512.578    587.814    512.578    514.152    512.578
 89.870    589.000    581.958      7.042    512.456    580.388    512.456    514.078    512.456
 89.970    526.476    574.085    -47.610    512.332    572.456    512.332    514.007    512.332
 90.070    575.771    566.243      9.528    512.208    564.551    512.208    513.939    512.208
 90.170    550.000    558.857     -8.857    512.082    557.098    512.082    513.873    512.082
 90.270    532.000    552.232    -20.232    511.954    550.400    511.954    513.812    511.954
 90.370    550.510    546.549      3.960    511.825    544.641    511.825    513.754    511.825
 90.470    529.000    541.882    -12.882    511.695    539.890    511.695    513.702    511.695
 90.570    504.000    538.212    -34.212    511.564    536.130    511.564    513.656    511.564
 90.670    552.000    535.459     16.541    511.431    533.279    511.431    513.619    511.431
 90.770    547.939    533.511     14.429    511.296    531.221    511.296    513.591    511.296
 90.870    527.000    532.242     -5.242    511.161    529.830    511.161    513.576    511.161
 90.970    531.043    531.541     -0.498    511.024    528.988    511.024    513.578    511.024
 91.070    538.749    531.316      7.433    510.886    528.599    510.886    513.603    510.886
 91.170    494.000    531.478    -37.478    510.746    528.565    510.746    513.658    510.746
 91.270    532.000    532.084     -0.084    510.605    528.935    510.605    513.753    510.605
 91.370    521.000    533.164    -12.164    510.463    529.723    510.463    513.901    510.463
 91.470    520.518    534.783    -14.265    510.319    530.977    510.319    514.121    510.319
 91.570    497.006    537.069    -40.064    510.174    532.806    510.174    514.433    510.174
 91.670    572.000    540.201     31.799    510.028    535.359    510.028    514.863    510.028
 91.770    500.000    544.395    -44.395    509.881    538.823    509.881    515.443    509.881
 91.870    601.000    549.900     51.100    509.732    543.414    509.732    516.206    509.732
 91.970    527.000    556.981    -29.981    509.582    549.358    509.582    517.189    509.582
 92.070    558.000    565.892     -7.892    509.430    556.873    509.430    518.429    509.430
 92.170    594.000    576.853     17.147    509.278    566.144    509.278    519.961    509.278
 92.270    586.000    590.014     -4.014    509.124    577.297    509.124    521.809    509.124
 92.370    602.992    605.426     -2.434    508.969    590.365    508.969    523.992    508.969
 92.470    593.000    623.011    -30.011    508.813    605.270    508.813    526.509    508.813
 92.570    677.558    642.534     35.025    508.655    621.797    508.655    529.340    508.655
 92.670    656.000    663.587     -7.587    508.496    639.583    508.496    532.442    508.496
 92.770    673.000    685.596    -12.596    508.336    658.124    508.336    535.742    508.336
 92.870    698.000    707.830     -9.830    508.175    676.796    508.175    539.139    508.175
 92.970    709.000    729.446    -20.446    508.012    694.891    508.012    542.493    508.012
 93.070    749.000    749.601     -0.601    507.849    711.739    507.849    545.634    507.849
 93.170    712.903    767.587    -54.684    507.684    726.834    507.684    548.360    507.684
 93.270    828.000    782.948     45.052    507.518    739.937    507.518    550.452    507.518
 93.370    782.000    795.538    -13.538    507.351    751.098    507.351    551.715    507.351
 93.470    850.165    805.478     44.687    507.182    760.580    507.182    552.007    507.182
 93.570    846.999    813.086     33.913    507.013    768.748    507.013    551.280    507.013
 93.670    828.939    818.820     10.120    506.842    775.999    506.842    549.595    506.842
 93.770    806.000    823.253    -17.253    506.670    782.752    506.670    547.106    506.670
 93.870    874.000    827.078     46.922    506.497    789.497    506.497    544.016    506.497
 93.970    774.885    831.071    -56.186    506.323    796.793    506.323    540.540    506.323
 94.070    896.000    835.988     60.012    506.148    805.199    506.148    536.879    506.148
 94.170    831.000    842.386    -11.386    505.972    815.103    505.972    533.198    505.972
 94.270    864.000    850.440     13.560    505.794    826.549    505.794    529.631    505.794
 94.370    917.888    859.835     58.054    505.616    839.123    505.616    526.275    505.616
 94.470    841.000    869.735    -28.735    505.436    851.923    505.436    523.200    505.436
 94.570    905.000    878.858     26.142    505.256    863.625    505.256    520.444    505.256
 94.670    909.928    885.615     24.312    505.074    872.627    505.074    518.024    505.074
 94.770    925.809    888.351     37.457    504.891    877.273    504.891    515.938    504.891
 94.870    897.000    885.648     11.352    504.707    876.165    504.707    514.168    504.707
 94.970    897.000    876.663     20.337    504.523    868.486    504.523    512.686    504.523
 95.070    804.390    861.350    -56.960    504.337    854.224    504.337    511.457    504.337
 95.170    846.000    840.479      5.521    504.150    834.185    504.150    510.446    504.150
 95.270    856.478    815.453     41.025    503.962    809.808    503.962    509.614    503.962
 95.370    807.000    788.099     18.901    503.774    782.954    503.774    508.930    503.774
 95.470    793.119    760.355     32.763    503.584    755.590    503.584    508.362    503.584
 95.570    754.000    734.139     19.861    503.393    729.659    503.393    507.886    503.393
 95.670    726.592    711.243     15.349    503.202    706.974    503.202    507.481    503.202
 95.770    726.112    693.272     32.840    503.009    689.157    503.009    507.130    503.009
 95.870    685.000    681.619      3.381    502.816    677.614    502.816    506.821    502.816
 95.970    686.000    677.461      8.539    502.621    673.532    502.621    506.544    502.621
 96.070    633.953    681.772    -47.819    502.426    677.891    502.426    506.293    502.426
 96.170    660.655    695.329    -34.674    502.230    691.474    502.230    506.062    502.230
 96.270    725.000    718.708      6.292    502.033    714.860    502.033    505.848    502.033
 96.370    773.000    752.240     20.760    501.835    748.383    501.835    505.648    501.835
 96.470    814.507    795.941     18.565    501.636    792.061    501.636    505.461    501.636
 96.570    900.000    849.418     50.582    501.437    845.502    501.437    505.286    501.437
 96.670    891.000    911.763    -20.763    501.236    907.800    501.236    505.122    501.236
 96.770    988.000    981.449      6.551    501.035    977.429    501.035    504.969    501.035
 96.870   1046.000   1056.271    -10.271    500.833   1052.185    500.833    504.827    500.833
 96.970   1084.733   1133.328    -48.596    500.631   1129.168    500.631    504.695    500.631
 97.070   1276.300   1209.059     67.241    500.427   1204.816    500.427    504.574    500.427
 97.170   1266.000   1279.361    -13.361    500.223   1275.027    500.223    504.465    500.223
 97.270   1282.000   1339.832    -57.832    500.018   1335.401    500.018    504.367    500.018
 97.370   1370.000   1386.196    -16.196    499.812   1381.657    499.812    504.282    499.812
 97.470   1389.938   1414.894    -24.955    499.606   1410.238    499.606    504.211    499.606
 97.570   1411.000   1423.739    -12.739    499.399   1418.954    499.399    504.155    499.399
 97.670   1450.000   1412.357     37.643    499.191   1407.426    499.191    504.115    499.191
 97.770   1356.508   1382.207    -25.698    498.983   1377.110    498.983    504.093    498.983
 97.870   1378.000   1336.192     41.808    498.773   1330.905    498.773    504.092    498.773
 97.970   1288.308   1278.087     10.221    498.564   1272.581    498.564    504.115    498.564
 98.070   1192.000   1212.009    -20.009    498.353   1206.249    498.353    504.168    498.353
 98.170   1145.289   1142.039      3.250    498.142   1135.986    498.142    504.255    498.142
 98.270   1102.000   1071.982     30.018    497.931   1065.588    497.931    504.387    497.931
 98.370   1010.000   1005.218      4.782    497.719    998.423    497.719    504.573    497.719
 98.470    944.000    944.623     -0.623    497.506    937.353    497.506    504.830    497.506
 98.570    864.000    892.552    -28.552    497.293    884.713    497.293    505.179    497.293
 98.670    832.000    850.861    -18.861    497.079    842.333    497.079    505.646    497.079
 98.770    846.000    820.966     25.034    496.865    811.592    496.865    506.267    496.865
 98.870    775.000    803.908    -28.908    496.650    793.489    496.650    507.087    496.650
 98.970    799.544    800.429     -0.886    496.435    788.712    496.435    508.161    496.435
 99.070    787.000    811.081    -24.081    496.220    797.743    496.220    509.557    496.220
 99.170    878.000    836.199     41.801    496.004    820.842    496.004    511.353    496.004
 99.270    905.000    875.918     29.082    495.787    858.050    495.787    513.640    495.787
 99.370    925.395    930.133     -4.738    495.570    909.165    495.570    516.518    495.570
 99.470   1048.000    998.423     49.577    495.353    973.661    495.353    520.093    495.353
 99.570   1130.000   1079.950     50.050    495.135   1050.594    495.135    524.470    495.135
 99.670   1121.031   1173.358    -52.328    494.917   1138.509    494.917    529.749    494.917
 99.770   1276.000   1276.676     -0.676    494.699   1235.351    494.699    536.014    494.699
 99.870   1434.741   1387.255     47.486    494.480   1338.413    494.480    543.324    494.480
 99.970   1535.515   1501.749     33.766    494.261   1444.327    494.261    551.701    494.261
100.070   1630.535   1616.187     14.347    494.042   1549.145    494.042    561.122    494.042
100.170   1707.000   1726.169    -19.169    493.823   1648.545    493.823    571.508    493.823
100.270   1871.000   1827.192     43.808    493.603   1738.167    493.603    582.714    493.603
100.370   1929.000   1915.058     13.942    493.383   1814.030    493.383    594.525    493.383
100.470   1970.994   1986.219    -15.225    493.163   1872.879    493.163    606.644    493.163
100.570   1983.624   2037.945    -54.321    492.943   1912.356    492.943    618.697    492.943
100.670   2136.000   2068.298     67.702    492.722   1930.983    492.722    630.225    492.722
100.770   2095.000   2076.095     18.905    492.502   1928.104    492.502    640.698    492.502
100.870   2135.438   2060.994     74.443    492.281   1903.955    492.281    649.539    492.281
100.970   2041.000   2023.762     17.238    492.060   1859.875    492.060    656.174    492.060
101.070   1906.702   1966.525    -59.824    491.839   1798.487    491.839    660.107    491.839
101.170   1919.000   1892.801     26.199    491.618   1723.638    491.618    661.008    491.618
101.270   1745.684   1807.188    -61.504    491.397   1640.020    491.397    658.784    491.397
101.370   1692.601   1714.815    -22.214    491.176   1552.597    491.176    653.601    491.176
101.470   1678.660   1620.748     57.911    490.955   1466.050    490.955    645.845    490.955
101.570   1515.000   1529.497    -14.497    490.734   1384.363    490.734    636.043    490.734
101.670   1474.000   1444.697     29.303    490.513   1310.589    490.513    624.778    490.513
101.770   1374.618   1368.940      5.678    490.292   1246.752    490.292    612.620    490.292
101.870   1304.000   1303.725      0.275    490.071   1193.842    490.071    600.078    490.071
101.970   1207.000   1249.491    -42.491    489.851   1151.864    489.851    587.588    489.851
102.070   1137.000   1205.707    -68.707    489.630   1119.934    489.630    575.503    489.630
102.170   1122.000   1171.012    -49.012    489.410   1096.421    489.410    564.092    489.410
102.270   1008.000   1143.392   -135.392    489.189   1079.115    489.189    553.552    489.189
102.370   1058.000   1120.407    -62.407    488.969   1065.452    488.969    544.008    488.969
102.470   1072.118   1099.465    -27.347    488.749   1052.778    488.749    535.520    488.749
102.570   1026.000   1078.140    -52.140    488.530   1038.655    488.530    528.098    488.530
102.670   1014.000   1054.483    -40.483    488.311   1021.171    488.311    521.708    488.311
102.770   1015.000   1027.262    -12.262    488.092    999.157    488.092    516.282    488.092
102.870    948.000    996.036    -48.036    487.873    972.263    487.873    511.731    487.873
102.970    964.000    961.071      2.929    487.654    940.857    487.654    507.952    487.654
103.070    944.000    923.145     20.855    487.436    905.823    487.436    504.840    487.436
103.170    907.665    883.327     24.338    487.219    868.333    487.219    502.290    487.219
103.270    853.000    842.791     10.209    487.001    829.661    487.001    500.204    487.001
103.370    747.450    802.688    -55.238    486.785    791.043    486.785    498.496    486.785
103.470    810.000    764.050     45.950    486.568    753.590    486.568    497.088    486.568
103.570    758.110    727.745     30.365    486.352    718.232    486.352    495.918    486.352
103.670    732.256    694.431     37.824    486.137    685.680    486.137    494.934    486.137
103.770    612.092    664.551    -52.459    485.922    656.419    485.922    494.093    485.922
103.870    637.000    638.332     -1.332    485.708    630.711    485.708    493.362    485.708
103.970    566.208    615.811    -49.603    485.494    608.615    485.494    492.717    485.494
104.070    613.000    596.856     16.144    485.281    590.020    485.281    492.139    485.281
104.170    560.000    581.207    -21.207    485.069    574.680    485.069    491.613    485.069
104.270    577.000    568.543      8.457    484.857    562.285    484.857    491.128    484.857
104.370    572.000    558.486     13.514    484.646    552.464    484.646    490.678    484.646
104.470    571.000    550.651     20.349    484.436    544.838    484.436    490.255    484.436
104.570    589.188    544.672     44.515    484.226    539.046    484.226    489.856    484.226
104.670    584.000    540.222     43.778    484.017    534.764    484.017    489.478    484.017
104.770    543.000    537.023      5.977    483.809    531.715    483.809    489.118    483.809
104.870    561.000    534.850     26.150    483.602    529.676    483.602    488.775    483.602
104.970    510.000    533.533    -23.533    483.395    528.481    483.395    488.446    483.395
105.070    558.220    532.958     25.263    483.190    528.014    483.190    488.130    483.190
105.170    556.000    533.058     22.942    482.985    528.212    482.985    487.827    482.985
105.270    532.000    533.813     -1.813    482.781    529.054    482.781    487.535    482.781
105.370    539.000    535.243      3.757    482.578    530.560    482.578    487.254    482.578
105.470    550.000    537.402     12.598    482.377    532.786    482.377    486.983    482.377
105.570    572.000    540.370     31.630    482.176    535.813    482.176    486.722    482.176
105.670    571.000    544.245     26.755    481.976    539.739    481.976    486.469    481.976
105.770    577.876    549.129     28.747    481.778    544.671    481.778    486.220    481.778
105.870    567.000    555.125     11.875    481.580    550.702    481.580    485.984    481.580
105.970    542.000    562.299    -20.299    481.384    557.905    481.384    485.757    481.384
106.070    559.000    570.684    -11.684    481.188    566.312    481.188    485.537    481.188
106.170    589.000    580.260      8.740    480.994    575.902    480.994    485.325    480.994
106.270    580.770    590.945    -10.175    480.801    586.596    480.801    485.119    480.801
106.370    622.514    602.590     19.924    480.610    598.245    480.610    484.921    480.610
106.470    615.300    614.976      0.324    480.420    610.629    480.420    484.730    480.420
106.570    648.629    627.816     20.813    480.231    623.461    480.231    484.546    480.231
106.670    683.000    640.758     42.242    480.043    636.392    480.043    484.367    480.043
106.770    625.000    653.395    -28.395    479.857    649.024    479.857    484.185    479.857
106.870    645.000    665.316    -20.316    479.672    660.925    479.672    484.020    479.672
106.970    699.000    676.079     22.921    479.488    671.662    479.488    483.862    479.488
107.070    715.911    685.281     30.630    479.306    680.834    479.306    483.711    479.306
107.170    652.045    692.607    -40.561    479.126    688.125    479.126    483.567    479.126
107.270    635.000    697.877    -62.877    478.947    693.357    478.947    483.429    478.947
107.370    750.011    701.088     48.923    478.769    696.525    478.769    483.298    478.769
107.470    687.608    702.424    -14.816    478.594    697.813    478.594    483.174    478.594
107.570    690.811    702.223    -11.412    478.419    697.559    478.419    483.058    478.419
107.670    730.908    700.925     29.983    478.247    696.202    478.247    482.948    478.247
107.770    736.375    699.003     37.371    478.076    694.216    478.076    482.846    478.076
107.870    645.722    696.903    -51.181    477.907    692.045    477.907    482.751    477.907
107.970    678.979    694.998    -16.019    477.740    690.064    477.740    482.664    477.740
108.070    667.000    693.557    -26.557    477.574    688.540    477.574    482.585    477.574
108.170    675.000    692.729    -17.729    477.410    687.623    477.410    482.514    477.410
108.270    675.000    692.532    -17.532    477.248    687.330    477.248    482.452    477.248
108.370    678.000    692.852    -14.852    477.088    687.547    477.088    482.399    477.088
108.470    713.000    693.456     19.544    476.930    688.041    476.930    482.354    476.930
108.570    684.000    694.011    -10.011    476.774    688.477    476.774    482.320    476.774
108.670    661.000    694.113    -33.113    476.620    688.452    476.620    482.295    476.620
108.770    728.940    693.336     35.604    476.468    687.540    476.468    482.281    476.468
108.870    679.000    691.288    -12.288    476.318    685.348    476.318    482.277    476.318
108.970    665.000    687.669    -22.669    476.170    681.574    476.170    482.286    476.170
109.070    682.000    682.318     -0.318    476.024    676.060    476.024    482.306    476.024
109.170    670.000    675.237     -5.237    475.881    668.803    475.881    482.339    475.881
109.270    653.000    666.573    -13.573    475.739    659.951    475.739    482.385    475.739
109.370    704.838    656.589     48.248    475.600    649.768    475.600    482.446    475.600
109.470    624.544    645.621    -21.076    475.463    638.586    475.463    482.521    475.463
109.570    594.551    634.028    -39.477    475.329    626.766    475.329    482.613    475.329
109.670    642.000    622.154     19.846    475.196    614.649    475.196    482.722    475.196
109.770    640.000    610.366     29.634    475.067    602.603    475.067    482.849    475.067
109.870    622.000    598.986     23.014    474.939    590.947    474.939    482.996    474.939
109.970    567.918    588.252    -20.333    474.814    579.917    474.814    483.164    474.814
110.070    558.000    578.364    -20.364    474.692    569.713    474.692    483.356    474.692
110.170    599.997    569.473     30.524    474.572    560.482    474.572    483.573    474.572
110.270    523.460    561.674    -38.214    474.455    552.318    474.455    483.819    474.455
110.370    563.000    555.012      7.988    474.340    545.260    474.340    484.098    474.340
110.470    576.000    549.487     26.513    474.228    539.308    474.228    484.413    474.228
110.570    549.759    545.067      4.692    474.119    534.419    474.119    484.769    474.119
110.670    524.729    541.687    -16.959    474.012    530.526    474.012    485.175    474.012
110.770    513.109    539.270    -26.161    473.908    527.539    473.908    485.639    473.908
110.870    535.970    537.724     -1.754    473.807    525.359    473.807    486.171    473.807
110.970    545.000    536.960      8.040    473.709    523.880    473.709    486.786    473.709
111.070    539.000    536.890      2.110    473.614    522.998    473.614    487.503    473.614
111.170    506.592    537.440    -30.848    473.521    522.616    473.521    488.341    473.521
111.270    565.629    538.545     27.084    473.432    522.642    473.432    489.330    473.432
111.370    574.896    540.160     34.736    473.346    522.996    473.346    490.504    473.346
111.470    534.044    542.255     -8.211    473.262    523.609    473.262    491.902    473.262
111.570    541.000    544.821     -3.821    473.182    524.422    473.182    493.574    473.182
111.670    580.000    547.870     32.130    473.105    525.388    473.105    495.580    473.105
111.770    528.000    551.434    -23.434    473.031    526.470    473.031    497.987    473.031
111.870    555.000    555.564     -0.564    472.960    527.644    472.960    500.873    472.960
111.970    588.743    560.335     28.408    472.893    528.893    472.893    504.327    472.893
112.070    555.000    565.842    -10.842    472.829    530.215    472.829    508.448    472.829
112.170    560.000    572.197    -12.197    472.768    531.615    472.768    513.342    472.768
112.270    564.061    579.528    -15.467    472.710    533.108    472.710    519.122    472.710
112.370    573.000    587.974    -14.974    472.656    534.717    472.656    525.904    472.656
112.470    579.000    597.681    -18.681    472.606    536.473    472.606    533.805    472.606
112.570    617.000    608.799      8.201    472.559    538.414    472.559    542.934    472.559
112.670    652.446    621.473     30.973    472.515    540.586    472.515    553.392    472.515
112.770    613.000    635.845    -22.845    472.475    543.050    472.475    565.261    472.475
112.870    691.636    652.050     39.586    472.439    545.880    472.439    578.599    472.439
112.970    641.000    670.212    -29.212    472.407    549.175    472.407    593.434    472.407
113.070    693.000    690.448      2.552    472.378    553.061    472.378    609.754    472.378
113.170    750.000    712.870     37.130    472.353    557.707    472.353    627.503    472.353
113.270    701.000    737.594    -36.594    472.332    563.337    472.332    646.575    472.332
113.370    785.301    764.751     20.550    472.314    570.244    472.314    666.807    472.314
113.470    839.000    794.501     44.499    472.301    578.812    472.301    687.973    472.301
113.570    850.000    827.057     22.943    472.291    589.542    472.291    709.786    472.291
113.670    851.000    862.704    -11.704    472.286    603.076    472.286    731.891    472.286
113.770    943.000    901.831     41.169    472.285    620.224    472.285    753.863    472.285
113.870    949.000    944.958      4.042    472.287    641.999    472.287    775.212    472.287
113.970   1013.000    992.774     20.226    472.294    669.641    472.294    795.386    472.294
114.070   1107.000   1046.171     60.829    472.305    704.640    472.305    813.784    472.305
114.170   1098.000   1106.282     -8.282    472.320    748.759    472.320    829.780    472.320
114.270   1115.000   1174.530    -59.530    472.340    804.031    472.340    842.758    472.340
114.370   1230.000   1252.656    -22.656    472.364    872.754    472.364    852.166    472.364
114.470   1319.000   1342.749    -23.749    472.392    957.451    472.392    857.566    472.392
114.570   1402.329   1447.240    -44.911    472.424   1060.817    472.424    858.697    472.424
114.670   1618.000   1568.849     49.151    472.462   1185.627    472.462    855.501    472.462
114.770   1698.772   1710.476    -11.703    472.503   1334.619    472.503    848.140    472.503
114.870   1944.440   1875.024     69.416    472.549   1510.344    472.549    836.967    472.549
114.970   2155.928   2065.184     90.744    472.600   1714.991    472.600    822.485    472.600
115.070   2397.000   2283.174    113.826    472.656   1950.187    472.656    805.285    472.656
115.170   2600.000   2530.479     69.521    472.716   2216.793    472.716    785.993    472.716
115.270   2812.812   2807.604      5.208    472.781   2514.696    472.781    765.227    472.781
115.370   3010.380   3113.849   -103.469    472.851   2842.620    472.851    743.567    472.851
115.470   3350.000   3447.139    -97.139    472.925   3197.968    472.925    721.536    472.925
115.570   3687.000   3803.901   -116.901    473.005   3576.711    473.005    699.591    473.005
115.670   4059.000   4179.006   -120.006    473.089   3973.333    473.089    678.122    473.089
115.770   4430.000   4565.787   -135.787    473.179   4380.847    473.179    657.453    473.179
115.870   4799.000   4956.118   -157.118    473.273   4790.874    473.273    637.838    473.273
115.970   5106.000   5340.587   -234.587    473.373   5193.810    473.373    619.473    473.373
116.070   5590.000   5708.736   -118.736    473.478   5579.062    473.478    602.491    473.478
116.170   6118.475   6049.396     69.080    473.588   5935.383    473.588    586.974    473.588
116.270   6305.000   6351.138    -46.138    473.703   6251.311    473.703    572.955    473.703
116.370   6649.000   6602.848     46.152    473.824   6515.742    473.824    560.426    473.824
116.470   6933.000   6794.439    138.561    473.950   6718.629    473.950    549.341    473.950
116.570   7082.000   6917.656    164.344    474.081   6851.785    474.081    539.632    474.081
116.670   7038.000   6966.857     71.143    474.218   6909.657    474.218    531.206    474.218
116.770   6943.000   6939.642      3.358    474.361   6889.946    474.361    523.957    474.361
116.870   6807.652   6837.150    -29.498    474.509   6793.899    474.509    517.771    474.509
116.970   6725.000   6663.816     61.184    474.663   6626.063    474.663    512.533    474.663
117.070   6357.000   6426.919    -69.919    474.822   6393.827    474.822    508.126    474.822
117.170   6082.000   6135.818    -53.818    474.987   6106.657    474.987    504.441    474.987
117.270   5914.804   5801.140    113.664    475.158   5775.282    475.158    501.376    475.158
117.370   5385.699   5434.051    -48.352    475.335   5410.959    475.335    498.836    475.335
117.470   4941.614   5045.648   -104.033    475.518   5024.869    475.518    496.739    475.518
117.570   4556.000   4646.484    -90.484    475.706   4627.641    475.706    495.010    475.706
117.670   4341.000   4246.217     94.783    475.901   4228.995    475.901    493.587    475.901
117.770   3953.108   3853.347     99.761    476.102   3837.487    476.102    492.415    476.102
117.870   3546.062   3475.042     71.020    476.309   3460.333    476.309    491.451    476.309
117.970   3208.000   3117.045     90.955    476.522   3103.316    476.522    490.656    476.522
118.070   2985.000   2783.659    201.341    476.741   2770.770    476.741    490.001    476.741
118.170   2406.143   2477.794    -71.650    476.967   2465.633    476.967    489.460    476.967
118.270   2300.000   2201.078     98.922    477.199   2189.554    477.199    489.014    477.199
118.370   1879.215   1954.006    -74.791    477.437   1943.047    477.437    488.648    477.437
118.470   1742.000   1736.116      5.884    477.682   1725.663    477.682    488.348    477.682
118.570   1562.000   1546.179     15.821    477.933   1536.183    477.933    488.106    477.933
118.670   1293.000   1382.385    -89.385    478.191   1372.808    478.191    487.912    478.191
118.770   1209.000   1242.532    -33.532    478.456   1233.340    478.456    487.763    478.456
118.870   1072.000   1124.188    -52.188    478.727   1115.352    478.727    487.652    478.727
118.970   1075.689   1024.835     50.853    479.005   1016.332    479.005    487.576    479.005
119.070    926.000    941.993    -15.993    479.290    933.801    479.290    487.533    479.290
119.170    865.789    873.304     -7.515    479.582    865.403    479.582    487.519    479.582
119.270    784.000    816.600    -32.600    479.881    808.973    479.881    487.534    479.881
119.370    754.041    769.938    -15.897    480.187    762.566    480.187    487.575    480.187
119.470    678.518    731.614    -53.096    480.499    724.483    480.499    487.642    480.499
119.570    716.000    700.169     15.831    480.819    693.262    480.819    487.734    480.819
119.670    678.000    674.372      3.628    481.146    667.673    481.146    487.850    481.146
119.770    654.733    653.200      1.533    481.481    646.693    481.481    487.990    481.481
119.870    629.811    635.817     -6.006    481.822    629.487    481.822    488.155    481.822
119.970    608.000    621.546    -13.546    482.171    615.377    482.171    488.343    482.171
120.070    647.776    609.844     37.932    482.528    603.819    482.528    488.555    482.528
120.170    561.000    600.280    -39.280    482.891    594.382    482.891    488.791    482.891
120.270    605.000    592.514     12.486    483.263    586.727    483.263    489.053    483.263
120.370    567.000    586.280    -19.280    483.642    580.584    483.642    489.341    483.642
120.470    608.013    581.368     26.644    484.029    575.745    484.029    489.655    484.029
120.570    624.591    577.618     46.973    484.423    572.048    484.423    489.997    484.423
120.670    580.000    574.903      5.097    484.825    569.365    484.825    490.367    484.825
120.770    554.000    573.126    -19.126    485.235    567.599    485.235    490.767    485.235
120.870    576.000    572.210      3.790    485.653    566.673    485.653    491.197    485.653
120.970    528.089    572.095    -44.006    486.079    566.523    486.079    491.658    486.079
121.070    568.000    572.728     -4.728    486.513    567.098    486.513    492.151    486.513
121.170    552.000    574.065    -22.065    486.955    568.352    486.955    492.677    486.955
121.270    569.210    576.063     -6.853    487.406    570.243    487.406    493.236    487.406
121.370    595.000    578.678     16.322    487.864    572.726    487.864    493.828    487.864
121.470    596.191    581.861     14.330    488.331    575.753    488.331    494.453    488.331
121.570    577.578    585.558     -7.980    488.806    579.270    488.806    495.110    488.806
121.670    583.000    589.707     -6.707    489.290    583.217    489.290    495.798    489.290
121.770    581.000    594.236    -13.236    489.782    587.524    489.782    496.515    489.782
121.870    586.317    599.067    -12.750    490.283    592.113    490.283    497.260    490.283
121.970    557.864    604.107    -46.243    490.792    596.897    490.792    498.029    490.792
122.070    632.149    609.258     22.892    491.310    601.778    491.310    498.820    491.310
122.170    649.871    614.411     35.460    491.837    606.653    491.837    499.627    491.837
122.270    639.000    619.453     19.547    492.373    611.413    492.373    500.448    492.373
122.370    657.000    624.265     32.735    492.918    615.945    492.918    501.276    492.918
122.470    619.000    628.729     -9.729    493.471    620.135    493.471    502.105    493.471
122.570    615.000    632.729    -17.729    494.034    623.875    494.034    502.930    494.034
122.670    646.645    636.161     10.485    494.605    627.067    494.605    503.744    494.605
122.770    682.361    638.934     43.427    495.186    629.628    495.186    504.539    495.186
122.870    634.000    640.981     -6.981    495.777    631.496    495.777    505.309    495.777
122.970    676.000    642.256     33.744    496.376    632.636    496.376    506.044    496.376
123.070    655.000    642.749     12.251    496.985    633.040    496.985    506.743    496.985
123.170    673.000    642.474     30.526    497.603    632.727    497.603    507.398    497.603
123.270    618.000    641.470    -23.470    498.231    631.740    498.231    508.008    498.231
123.370    596.000    639.796    -43.796    498.868    630.140    498.868    508.571    498.868
123.470    662.000    637.529     24.471    499.515    628.002    499.515    509.087    499.515
123.570    621.000    634.754    -13.754    500.172    625.410    500.172    509.559    500.172
123.670    596.000    631.562    -35.562    500.839    622.449    500.839    509.992    500.839
123.770    604.000    628.046    -24.046    501.515    619.207    501.515    510.392    501.515
123.870    619.000    624.293     -5.293    502.202    615.764    502.202    510.765    502.202
123.970    664.000    620.389     43.611    502.898    612.199    502.898    511.119    502.898
124.070    613.000    616.407     -3.407    503.605    608.579    503.605    511.460    503.605
124.170    656.000    612.413     43.587    504.321    604.963    504.321    511.796    504.321
124.270    605.000    608.460     -3.460    505.048    601.398    505.048    512.133    505.048
124.370    636.000    604.591     31.409    505.786    597.920    505.786    512.476    505.786
124.470    637.000    600.835     36.165    506.533    594.555    506.533    512.831    506.533
124.570    568.000    597.213    -29.213    507.291    591.317    507.291    513.202    507.291
124.670    607.000    593.733     13.267    508.060    588.212    508.060    513.594    508.060
124.770    614.000    590.399     23.601    508.839    585.239    508.839    514.009    508.839
124.870    587.000    587.207     -0.207    509.629    582.393    509.629    514.451    509.629
124.970    569.000    584.146    -15.146    510.430    579.661    510.430    514.922    510.430
