neutron_powder_diffraction_0166
R_wp: 3.836
Temperature (K): 1074.000
Counts: 83929.00
Wavelength (Ã…): 2.52098
COMMENTS
Test file for demonstrating the .xyy file format in Reel1.0
END OF HEADER
   tth       Y_obs     Y_calc      Y_res    Background    Phase_1_Nuc    Phase_1_Mag    Phase_2_Nuc    Phase_2_Mag
  9.970    616.000    576.914     39.086    576.194    576.891    576.194    576.216    576.194
 10.070    587.000    576.956     10.044    576.176    576.933    576.176    576.198    576.176
 10.170    590.000    577.003     12.997    576.153    576.980    576.153    576.176    576.153
 10.270    619.360    577.056     42.304    576.126    577.032    576.126    576.149    576.126
 10.370    614.000    577.117     36.883    576.093    577.093    576.093    576.117    576.093
 10.470    571.000    577.190     -6.190    576.057    577.165    576.057    576.081    576.057
 10.570    617.000    577.278     39.722    576.015    577.252    576.015    576.040    576.015
 10.670    622.735    577.386     45.350    575.969    577.359    575.969    575.994    575.969
 10.770    602.000    577.520     24.480    575.918    577.494    575.918    575.944    575.918
 10.870    549.000    577.693    -28.693    575.863    577.666    575.863    575.889    575.863
 10.970    577.000    577.915     -0.915    575.804    577.888    575.804    575.830    575.804
 11.070    615.000    578.214     36.786    575.740    578.177    575.740    575.775    575.740
 11.170    540.000    578.600    -38.600    575.672    578.562    575.672    575.708    575.672
 11.270    613.000    579.123     33.877    575.599    579.084    575.599    575.636    575.599
 11.370    612.314    579.858     32.456    575.522    579.819    575.522    575.559    575.522
 11.470    572.000    580.969     -8.969    575.441    580.929    575.441    575.478    575.441
 11.570    599.000    582.903     16.097    575.356    582.861    575.356    575.393    575.356
 11.670    559.369    586.868    -27.499    575.267    586.824    575.267    575.304    575.267
 11.770    590.794    595.513     -4.719    575.174    595.464    575.174    575.211    575.174
 11.870    587.747    612.868    -25.121    575.076    612.808    575.076    575.114    575.076
 11.970    674.997    641.787     33.210    574.975    641.706    574.975    575.017    574.975
 12.070    651.000    678.324    -27.324    574.870    678.221    574.870    574.913    574.870
 12.170    702.000    706.752     -4.752    574.761    706.633    574.761    574.804    574.761
 12.270    742.096    707.566     34.530    574.648    707.445    574.648    574.691    574.648
 12.370    690.809    679.944     10.865    574.531    679.839    574.531    574.575    574.531
 12.470    659.000    643.047     15.953    574.410    642.963    574.410    574.454    574.410
 12.570    643.350    613.287     30.063    574.286    613.221    574.286    574.330    574.286
 12.670    637.680    595.140     42.540    574.158    595.084    574.158    574.202    574.158
 12.770    560.962    585.934    -24.972    574.026    585.883    574.026    574.071    574.026
 12.870    551.705    581.594    -29.889    573.891    581.545    573.891    573.936    573.891
 12.970    567.000    579.378    -12.378    573.753    579.329    573.753    573.798    573.753
 13.070    578.295    578.020      0.275    573.610    577.972    573.610    573.656    573.610
 13.170    594.000    577.051     16.949    573.465    577.004    573.465    573.510    573.465
 13.270    565.000    576.300    -11.300    573.316    576.253    573.316    573.361    573.316
 13.370    565.000    575.690    -10.690    573.163    575.643    573.163    573.209    573.163
 13.470    588.000    575.179     12.821    573.007    575.132    573.007    573.054    573.007
 13.570    568.651    574.739     -6.088    572.848    574.691    572.848    572.895    572.848
 13.670    598.000    574.351     23.649    572.686    574.303    572.686    572.733    572.686
 13.770    560.000    574.003    -14.003    572.520    573.955    572.520    572.567    572.520
 13.870    599.000    573.682     25.318    572.351    573.633    572.351    572.399    572.351
 13.970    578.000    573.385      4.615    572.180    573.334    572.180    572.230    572.180
 14.070    580.000    573.103      6.897    572.005    573.052    572.005    572.055    572.005
 14.170    589.000    572.837     16.163    571.827    572.785    571.827    571.878    571.827
 14.270    520.000    572.580    -52.580    571.645    572.527    571.645    571.698    571.645
 14.370    557.228    572.329    -15.101    571.461    572.276    571.461    571.514    571.461
 14.470    588.066    572.084     15.982    571.274    572.030    571.274    571.328    571.274
 14.570    548.000    571.843    -23.843    571.085    571.789    571.085    571.138    571.085
 14.670    520.000    571.606    -51.606    570.892    571.552    570.892    570.946    570.892
 14.770    562.000    571.371     -9.371    570.696    571.317    570.696    570.750    570.696
 14.870    581.000    571.138      9.862    570.498    571.084    570.498    570.552    570.498
 14.970    548.157    570.906    -22.749    570.297    570.852    570.297    570.352    570.297
 15.070    591.000    570.675     20.325    570.093    570.620    570.093    570.148    570.093
 15.170    526.928    570.445    -43.516    569.887    570.389    569.887    569.942    569.887
 15.270    581.000    570.214     10.786    569.678    570.158    569.678    569.733    569.678
 15.370    553.613    569.983    -16.370    569.466    569.926    569.466    569.522    569.466
 15.470    558.092    569.751    -11.659    569.252    569.694    569.252    569.308    569.252
 15.570    537.339    569.518    -32.179    569.035    569.462    569.035    569.091    569.035
 15.670    593.000    569.285     23.715    568.816    569.228    568.816    568.872    568.816
 15.770    553.000    569.051    -16.051    568.594    568.993    568.594    568.651    568.594
 15.870    571.000    568.815      2.185    568.370    568.757    568.370    568.427    568.370
 15.970    578.000    568.578      9.422    568.143    568.520    568.143    568.201    568.143
 16.070    548.847    568.341    -19.493    567.914    568.282    567.914    567.973    567.914
 16.170    548.000    568.101    -20.101    567.683    568.043    567.683    567.742    567.683
 16.270    522.107    567.860    -45.754    567.450    567.801    567.450    567.509    567.450
 16.370    556.000    567.618    -11.618    567.214    567.559    567.214    567.274    567.214
 16.470    586.735    567.376     19.360    566.977    567.315    566.977    567.038    566.977
 16.570    577.000    567.131      9.869    566.737    567.069    566.737    566.798    566.737
 16.670    557.000    566.886     -9.886    566.494    566.824    566.494    566.556    566.494
 16.770    524.000    566.639    -42.639    566.250    566.576    566.250    566.313    566.250
 16.870    570.000    566.389      3.611    566.004    566.326    566.004    566.067    566.004
 16.970    554.000    566.138    -12.138    565.756    566.074    565.756    565.819    565.756
 17.070    564.599    565.885     -1.286    565.506    565.821    565.506    565.569    565.506
 17.170    534.000    565.630    -31.630    565.253    565.566    565.253    565.317    565.253
 17.270    535.000    565.375    -30.375    564.999    565.310    564.999    565.063    564.999
 17.370    520.823    565.117    -44.294    564.743    565.052    564.743    564.808    564.743
 17.470    580.000    564.858     15.142    564.485    564.793    564.485    564.550    564.485
 17.570    549.000    564.599    -15.599    564.226    564.533    564.226    564.291    564.226
 17.670    570.000    564.338      5.662    563.964    564.272    563.964    564.030    563.964
 17.770    566.000    564.076      1.924    563.701    564.010    563.701    563.767    563.701
 17.870    530.000    563.812    -33.812    563.436    563.745    563.436    563.503    563.436
 17.970    591.978    563.546     28.432    563.169    563.479    563.169    563.237    563.169
 18.070    545.000    563.279    -18.279    562.901    563.211    562.901    562.969    562.901
 18.170    550.685    563.010    -12.325    562.631    562.942    562.631    562.699    562.631
 18.270    601.725    562.741     38.985    562.359    562.672    562.359    562.428    562.359
 18.370    570.300    562.469      7.831    562.086    562.400    562.086    562.156    562.086
 18.470    590.392    562.197     28.195    561.812    562.127    561.812    561.882    561.812
 18.570    591.464    561.924     29.540    561.535    561.853    561.535    561.606    561.535
 18.670    544.000    561.653    -17.653    561.258    561.578    561.258    561.333    561.258
 18.770    592.773    561.378     31.394    560.979    561.301    560.979    561.056    560.979
 18.870    563.000    561.101      1.899    560.698    561.024    560.698    560.776    560.698
 18.970    518.095    560.823    -42.729    560.417    560.745    560.417    560.495    560.417
 19.070    544.000    560.546    -16.546    560.133    560.467    560.133    560.212    560.133
 19.170    571.000    560.279     10.721    559.849    560.200    559.849    559.928    559.849
 19.270    595.000    560.009     34.991    559.563    559.928    559.563    559.643    559.563
 19.370    568.000    559.728      8.272    559.276    559.647    559.276    559.357    559.276
 19.470    588.000    559.445     28.555    558.988    559.363    558.988    559.069    558.988
 19.570    553.000    559.161     -6.161    558.698    559.079    558.698    558.780    558.698
 19.670    584.000    558.877     25.123    558.408    558.794    558.408    558.491    558.408
 19.770    522.000    558.592    -36.592    558.116    558.508    558.116    558.199    558.116
 19.870    569.000    558.306     10.694    557.823    558.222    557.823    557.907    557.823
 19.970    588.000    558.020     29.980    557.529    557.935    557.529    557.614    557.529
 20.070    554.000    557.733     -3.733    557.234    557.647    557.234    557.320    557.234
 20.170    559.141    557.445      1.696    556.938    557.359    556.938    557.025    556.938
 20.270    565.000    557.157      7.843    556.641    557.070    556.641    556.728    556.641
 20.370    565.590    556.869      8.721    556.343    556.780    556.343    556.431    556.343
 20.470    527.000    556.580    -29.580    556.044    556.491    556.044    556.133    556.044
 20.570    529.963    556.291    -26.327    555.744    556.201    555.744    555.834    555.744
 20.670    562.271    556.001      6.270    555.443    555.911    555.443    555.534    555.443
 20.770    525.000    555.720    -30.720    555.142    555.628    555.142    555.233    555.142
 20.870    593.658    555.514     38.144    554.839    555.422    554.839    554.932    554.839
 20.970    573.254    555.247     18.008    554.536    555.153    554.536    554.629    554.536
 21.070    538.000    554.959    -16.959    554.232    554.864    554.232    554.326    554.232
 21.170    539.000    554.670    -15.670    553.927    554.575    553.927    554.023    553.927
 21.270    588.000    554.381     33.619    553.622    554.285    553.622    553.718    553.622
 21.370    598.000    554.093     43.907    553.315    553.996    553.315    553.413    553.315
 21.470    539.000    553.808    -14.808    553.008    553.709    553.008    553.107    553.008
 21.570    541.000    553.526    -12.526    552.701    553.426    552.701    552.801    552.701
 21.670    546.000    553.243     -7.243    552.393    553.143    552.393    552.494    552.393
 21.770    562.000    552.959      9.041    552.084    552.857    552.084    552.186    552.084
 21.870    563.000    552.676     10.324    551.775    552.573    551.775    551.878    551.775
 21.970    553.000    552.395      0.605    551.465    552.290    551.465    551.569    551.465
 22.070    600.000    552.117     47.883    551.154    552.011    551.154    551.260    551.154
 22.170    537.000    551.865    -14.865    550.843    551.758    550.843    550.951    550.843
 22.270    590.000    551.663     38.337    550.532    551.555    550.532    550.641    550.532
 22.370    574.741    551.414     23.327    550.220    551.304    550.220    550.330    550.220
 22.470    561.000    551.149      9.851    549.908    551.038    549.908    550.020    549.908
 22.570    592.788    550.888     41.901    549.595    550.775    549.595    549.709    549.595
 22.670    549.000    550.634     -1.634    549.282    550.517    549.282    549.399    549.282
 22.770    536.619    550.385    -13.767    548.969    550.267    548.969    549.088    548.969
 22.870    559.000    550.145      8.855    548.655    550.024    548.655    548.776    548.655
 22.970    532.476    549.914    -17.438    548.341    549.792    548.341    548.464    548.341
 23.070    512.552    549.696    -37.144    548.027    549.572    548.027    548.151    548.027
 23.170    518.000    549.494    -31.494    547.713    549.368    547.713    547.839    547.713
 23.270    543.000    549.310     -6.310    547.398    549.182    547.398    547.526    547.398
 23.370    563.000    549.150     13.850    547.083    549.020    547.083    547.213    547.083
 23.470    538.000    549.022    -11.022    546.768    548.890    546.768    546.900    546.768
 23.570    529.000    548.935    -19.935    546.452    548.801    546.452    546.587    546.452
 23.670    578.738    548.904     29.834    546.137    548.768    546.137    546.274    546.137
 23.770    533.000    548.949    -15.949    545.821    548.811    545.821    545.961    545.821
 23.870    589.000    549.105     39.895    545.506    548.964    545.506    545.648    545.506
 23.970    583.332    549.433     33.900    545.190    549.290    545.190    545.335    545.190
 24.070    523.000    550.085    -27.085    544.874    549.940    544.874    545.022    544.874
 24.170    562.000    551.469     10.531    544.558    551.323    544.558    544.709    544.558
 24.270    549.000    554.596     -5.596    544.242    554.449    544.242    544.396    544.242
 24.370    557.611    561.403     -3.792    543.926    561.257    543.926    544.083    543.926
 24.470    547.287    574.346    -27.059    543.610    574.206    543.610    543.771    543.610
 24.570    606.708    594.338     12.370    543.295    594.209    543.295    543.459    543.295
 24.670    655.536    617.380     38.156    542.979    617.263    542.979    543.147    542.979
 24.770    640.000    632.422      7.578    542.663    632.312    542.663    542.835    542.663
 24.870    622.000    628.731     -6.731    542.348    628.614    542.348    542.524    542.348
 24.970    620.000    609.195     10.805    542.032    609.060    542.032    542.213    542.032
 25.070    605.000    585.919     19.081    541.717    585.763    541.717    541.903    541.717
 25.170    552.000    567.621    -15.621    541.402    567.447    541.402    541.593    541.402
 25.270    574.958    556.354     18.604    541.087    556.167    541.087    541.283    541.087
 25.370    523.000    550.419    -27.419    540.773    550.223    540.773    540.975    540.773
 25.470    573.000    547.450     25.550    540.458    547.245    540.458    540.666    540.458
 25.570    569.489    545.836     23.654    540.144    545.623    540.144    540.359    540.144
 25.670    534.216    544.805    -10.588    539.830    544.585    539.830    540.052    539.830
 25.770    566.591    544.033     22.558    539.516    543.805    539.516    539.746    539.516
 25.870    559.000    543.423     15.577    539.203    543.186    539.203    539.441    539.203
 25.970    568.562    542.928     25.633    538.890    542.683    538.890    539.137    538.890
 26.070    553.000    542.533     10.467    538.577    542.278    538.577    538.833    538.577
 26.170    584.000    542.199     41.801    538.265    541.934    538.265    538.531    538.265
 26.270    546.000    541.900      4.100    537.953    541.623    537.953    538.231    537.953
 26.370    519.611    541.651    -22.039    537.642    541.362    537.642    537.931    537.642
 26.470    589.000    541.451     47.549    537.331    541.148    537.331    537.633    537.331
 26.570    561.000    541.302     19.698    537.020    540.985    537.020    537.337    537.020
 26.670    547.000    541.209      5.791    536.710    540.876    536.710    537.043    536.710
 26.770    538.000    541.189     -3.189    536.400    540.839    536.400    536.750    536.400
 26.870    565.000    541.255     23.745    536.091    540.885    536.091    536.460    536.091
 26.970    553.165    541.389     11.776    535.782    540.998    535.782    536.173    535.782
 27.070    571.214    541.634     29.579    535.474    541.219    535.474    535.889    535.474
 27.170    559.000    542.027     16.973    535.166    541.585    535.166    535.607    535.166
 27.270    557.000    542.619     14.381    534.859    542.147    534.859    535.330    534.859
 27.370    518.689    543.491    -24.802    534.552    542.985    534.552    535.057    534.552
 27.470    578.000    544.792     33.208    534.247    544.247    534.247    534.789    534.247
 27.570    544.000    546.897     -2.897    533.941    546.309    533.941    534.527    533.941
 27.670    559.000    551.191      7.809    533.636    550.552    533.636    534.272    533.636
 27.770    554.000    562.375     -8.375    533.332    561.675    533.332    534.025    533.332
 27.870    585.374    592.414     -7.040    533.029    591.637    533.029    533.788    533.029
 27.970    641.000    659.957    -18.957    532.726    659.081    532.726    533.562    532.726
 28.070    750.000    773.163    -23.163    532.424    772.162    532.424    533.352    532.424
 28.170    835.000    899.643    -64.643    532.122    898.504    532.122    533.160    532.122
 28.270    921.000    961.846    -40.846    531.822    960.578    531.822    532.991    531.822
 28.370    923.000    909.020     13.980    531.522    907.627    531.522    532.851    531.522
 28.470    796.072    795.152      0.920    531.223    793.598    531.223    532.750    531.223
 28.570    753.388    706.982     46.406    530.924    705.189    530.924    532.704    530.924
 28.670    729.580    689.217     40.364    530.626    687.090    530.626    532.738    530.626
 28.770    747.920    736.434     11.486    530.330    733.845    530.330    532.898    530.330
 28.870    834.000    807.111     26.889    530.033    803.863    530.033    533.266    530.033
 28.970    819.000    840.373    -21.373    529.738    836.131    529.738    533.980    529.738
 29.070    755.459    800.578    -45.119    529.444    794.793    529.444    535.239    529.444
 29.170    769.000    718.970     50.030    529.150    710.849    529.150    537.282    529.150
 29.270    603.560    644.038    -40.478    528.857    632.582    528.857    540.320    528.857
 29.370    580.000    597.854    -17.854    528.565    582.027    528.565    544.393    528.565
 29.470    572.000    577.614     -5.614    528.274    556.766    528.274    549.121    528.274
 29.570    554.262    571.290    -17.028    527.984    545.934    527.984    553.337    527.984
 29.670    590.164    568.648     21.516    527.695    541.200    527.695    555.140    527.695
 29.770    564.420    564.617     -0.197    527.407    538.682    527.407    553.339    527.407
 29.870    598.000    558.776     39.224    527.119    537.051    527.119    548.841    527.119
 29.970    559.000    552.615      6.385    526.833    535.907    526.833    543.539    526.833
 30.070    618.000    547.315     70.685    526.548    535.122    526.548    538.738    526.548
 30.170    545.000    543.350      1.650    526.263    534.674    526.263    534.936    526.263
 30.270    567.000    540.851     26.149    525.980    534.677    525.980    532.150    525.980
 30.370    557.000    540.078     16.922    525.697    535.580    525.697    530.191    525.697
 30.470    553.317    541.972     11.345    525.416    538.565    525.416    528.817    525.416
 30.570    555.000    548.513      6.487    525.135    545.815    525.135    527.820    525.135
 30.670    579.000    561.927     17.073    524.856    559.706    524.856    527.054    524.856
 30.770    585.953    582.019      3.934    524.578    580.132    524.578    526.426    524.578
 30.870    604.000    602.801      1.199    524.300    601.164    524.300    525.885    524.300
 30.970    563.593    612.288    -48.694    524.024    610.852    524.024    525.403    524.024
 31.070    616.074    602.589     13.486    523.749    601.329    523.749    524.962    523.749
 31.170    532.000    581.023    -49.023    523.475    579.915    523.475    524.553    523.475
 31.270    560.000    559.583      0.417    523.202    558.599    523.202    524.169    523.202
 31.370    502.263    544.511    -42.248    522.930    543.630    522.930    523.804    522.930
 31.470    543.000    536.132      6.868    522.660    535.333    522.660    523.454    522.660
 31.570    548.000    532.122     15.878    522.390    531.391    522.390    523.118    522.390
 31.670    534.000    530.241      3.759    522.122    529.569    522.122    522.792    522.122
 31.770    518.000    529.235    -11.235    521.855    528.613    521.855    522.475    521.855
 31.870    557.000    528.596     28.404    521.589    528.017    521.589    522.166    521.589
 31.970    503.000    528.151    -25.151    521.324    527.610    521.324    521.863    521.324
 32.070    560.069    527.844     32.225    521.060    527.336    521.060    521.567    521.060
 32.170    505.000    527.650    -22.650    520.797    527.172    520.797    521.275    520.797
 32.270    584.000    527.564     56.436    520.536    527.111    520.536    520.988    520.536
 32.370    501.000    527.586    -26.586    520.276    527.156    520.276    520.705    520.276
 32.470    550.000    527.724     22.276    520.017    527.314    520.017    520.426    520.017
 32.570    552.000    527.995     24.005    519.760    527.604    519.760    520.150    519.760
 32.670    510.000    528.425    -18.425    519.503    528.050    519.503    519.877    519.503
 32.770    528.000    529.052     -1.052    519.248    528.691    519.248    519.607    519.248
 32.870    534.000    529.931      4.069    518.994    529.584    518.994    519.340    518.994
 32.970    512.000    531.146    -19.146    518.742    530.811    518.742    519.075    518.742
 33.070    556.000    532.824     23.176    518.490    532.500    518.490    518.813    518.490
 33.170    547.000    535.200     11.800    518.240    534.886    518.240    518.553    518.240
 33.270    554.000    538.822     15.178    517.992    538.515    517.992    518.296    517.992
 33.370    579.158    545.177     33.981    517.744    544.877    517.744    518.040    517.744
 33.470    574.000    558.157     15.843    517.498    557.862    517.498    517.786    517.498
 33.570    573.252    586.114    -12.862    517.254    585.821    517.254    517.535    517.254
 33.670    674.000    642.108     31.892    517.010    641.810    517.010    517.285    517.010
 33.770    727.000    737.751    -10.751    516.768    737.442    516.768    517.037    516.768
 33.870    917.000    868.917     48.083    516.527    868.595    516.527    516.791    516.527
 33.970   1019.072    999.916     19.156    516.288    999.587    516.288    516.547    516.288
 34.070   1013.000   1063.940    -50.940    516.050   1063.623    516.050    516.305    516.050
 34.170    988.000   1015.875    -27.875    515.813   1015.589    515.813    516.064    515.813
 34.270    870.049    891.045    -20.995    515.578    890.789    515.578    515.825    515.578
 34.370    798.390    756.624     41.766    515.344    756.385    515.344    515.588    515.344
 34.470    634.476    653.875    -19.398    515.112    653.641    515.112    515.352    515.112
 34.570    620.101    591.281     28.821    514.881    591.048    514.881    515.118    514.881
 34.670    563.730    558.892      4.837    514.651    558.659    514.651    514.886    514.651
 34.770    564.000    543.414     20.586    514.423    543.181    514.423    514.655    514.423
 34.870    515.155    535.679    -20.525    514.196    535.448    514.196    514.426    514.196
 34.970    528.000    531.174     -3.174    513.970    530.944    513.970    514.199    513.970
 35.070    515.000    528.096    -13.096    513.746    527.869    513.746    513.973    513.746
 35.170    531.263    525.783      5.480    513.524    525.557    513.524    513.749    513.524
 35.270    554.000    523.959     30.041    513.303    523.735    513.303    513.527    513.303
 35.370    505.000    522.482    -17.482    513.083    522.259    513.083    513.306    513.083
 35.470    481.000    521.259    -40.259    512.865    521.037    512.865    513.087    512.865
 35.570    526.000    520.230      5.770    512.648    520.009    512.648    512.869    512.648
 35.670    498.000    519.350    -21.350    512.433    519.130    512.433    512.653    512.433
 35.770    508.238    518.588    -10.350    512.219    518.368    512.219    512.438    512.219
 35.870    550.000    517.919     32.081    512.007    517.700    512.007    512.225    512.007
 35.970    520.000    517.327      2.673    511.796    517.109    511.796    512.014    511.796
 36.070    535.000    516.799     18.201    511.587    516.581    511.587    511.804    511.587
 36.170    479.665    516.325    -36.661    511.379    516.108    511.379    511.596    511.379
 36.270    531.000    515.898     15.102    511.172    515.681    511.172    511.390    511.172
 36.370    517.000    515.513      1.487    510.968    515.295    510.968    511.185    510.968
 36.470    485.000    515.166    -30.166    510.764    514.949    510.764    510.982    510.764
 36.570    477.000    514.858    -37.858    510.562    514.640    510.562    510.780    510.562
 36.670    538.035    514.589     23.447    510.362    514.371    510.362    510.580    510.362
 36.770    509.000    514.367     -5.367    510.163    514.149    510.163    510.381    510.163
 36.870    539.000    514.215     24.785    509.966    513.997    509.966    510.185    509.966
 36.970    541.025    514.192     26.833    509.770    513.973    509.770    509.989    509.770
 37.070    499.000    514.423    -15.423    509.576    514.204    509.576    509.796    509.576
 37.170    520.190    515.136      5.054    509.383    514.916    509.383    509.604    509.383
 37.270    559.682    516.626     43.055    509.192    516.406    509.192    509.413    509.192
 37.370    477.037    519.112    -42.075    509.003    518.892    509.003    509.224    509.003
 37.470    515.000    522.465     -7.465    508.815    522.244    508.815    509.037    508.815
 37.570    553.000    525.926     27.074    508.628    525.705    508.628    508.852    508.628
 37.670    522.000    528.085     -6.085    508.443    527.864    508.443    508.668    508.443
 37.770    532.000    527.778      4.222    508.260    527.559    508.260    508.485    508.260
 37.870    499.000    525.295    -26.295    508.078    525.077    508.078    508.305    508.078
 37.970    552.267    521.899     30.368    507.898    521.681    507.898    508.126    507.898
 38.070    526.000    518.592      7.408    507.719    518.373    507.719    507.948    507.719
 38.170    559.618    515.810     43.808    507.542    515.589    507.542    507.773    507.542
 38.270    480.351    513.699    -33.348    507.367    513.474    507.367    507.598    507.367
 38.370    511.000    512.225     -1.225    507.193    511.997    507.193    507.426    507.193
 38.470    485.000    511.245    -26.245    507.020    511.013    507.020    507.255    507.020
 38.570    543.337    510.600     32.738    506.850    510.365    506.850    507.086    506.850
 38.670    497.188    510.159    -12.971    506.680    509.922    506.680    506.918    506.680
 38.770    522.000    509.833     12.167    506.513    509.594    506.513    506.753    506.513
 38.870    521.000    509.569     11.431    506.347    509.328    506.347    506.588    506.347
 38.970    515.000    509.339      5.661    506.182    509.096    506.182    506.426    506.182
 39.070    535.824    509.131     26.692    506.020    508.887    506.020    506.265    506.020
 39.170    498.000    508.940    -10.940    505.858    508.693    505.858    506.106    505.858
 39.270    514.000    508.762      5.238    505.699    508.513    505.699    505.948    505.699
 39.370    484.000    508.594    -24.594    505.541    508.343    505.541    505.792    505.541
 39.470    524.298    508.437     15.861    505.384    508.184    505.384    505.638    505.384
 39.570    489.855    508.289    -18.434    505.230    508.033    505.230    505.486    505.230
 39.670    535.435    508.149     27.286    505.076    507.891    505.076    505.335    505.076
 39.770    467.938    508.017    -40.080    504.925    507.757    504.925    505.186    504.925
 39.870    492.000    507.894    -15.894    504.775    507.630    504.775    505.038    504.775
 39.970    533.285    507.778     25.507    504.626    507.512    504.626    504.892    504.626
 40.070    500.000    507.671     -7.671    504.480    507.403    504.480    504.748    504.480
 40.170    536.988    507.573     29.415    504.334    507.302    504.334    504.606    504.334
 40.270    514.000    507.485      6.515    504.191    507.210    504.191    504.465    504.191
 40.370    512.041    507.406      4.635    504.049    507.129    504.049    504.326    504.049
 40.470    492.000    507.339    -15.339    503.909    507.059    503.909    504.189    503.909
 40.570    473.000    507.284    -34.284    503.770    507.001    503.770    504.054    503.770
 40.670    490.995    507.244    -16.249    503.633    506.957    503.633    503.920    503.633
 40.770    497.000    507.220    -10.220    503.497    506.930    503.497    503.788    503.497
 40.870    540.167    507.216     32.951    503.363    506.922    503.363    503.657    503.363
 40.970    526.000    507.234     18.766    503.231    506.937    503.231    503.529    503.231
 41.070    522.000    507.280     14.720    503.100    506.979    503.100    503.402    503.100
 41.170    518.000    507.360     10.640    502.971    507.056    502.971    503.277    502.971
 41.270    528.000    507.482     20.518    502.844    507.174    502.844    503.153    502.844
 41.370    544.000    507.658     36.342    502.718    507.346    502.718    503.031    502.718
 41.470    487.000    507.905    -20.905    502.594    507.588    502.594    502.911    502.594
 41.570    471.000    508.247    -37.247    502.471    507.926    502.471    502.793    502.471
 41.670    507.000    508.732     -1.732    502.350    508.407    502.350    502.677    502.350
 41.770    499.170    509.468    -10.299    502.231    509.139    502.231    502.562    502.231
 41.870    530.797    510.708     20.089    502.113    510.375    502.113    502.449    502.113
 41.970    516.979    513.024      3.955    501.997    512.687    501.997    502.338    501.997
 42.070    490.000    517.527    -27.527    501.882    517.186    501.882    502.229    501.882
 42.170    531.000    525.941      5.059    501.770    525.599    501.770    502.121    501.770
 42.270    495.451    540.182    -44.731    501.658    539.840    501.658    502.016    501.658
 42.370    522.000    561.160    -39.160    501.549    560.822    501.549    501.912    501.549
 42.470    611.000    587.068     23.932    501.440    586.737    501.440    501.810    501.440
 42.570    610.000    611.908     -1.908    501.334    611.585    501.334    501.709    501.334
 42.670    645.517    626.063     19.455    501.229    625.742    501.229    501.611    501.229
 42.770    606.000    622.232    -16.232    501.126    621.906    501.126    501.514    501.126
 42.870    585.000    602.633    -17.633    501.024    602.292    501.024    501.420    501.024
 42.970    527.000    576.389    -49.389    500.924    576.028    500.924    501.327    500.924
 43.070    513.000    551.905    -38.905    500.825    551.524    500.825    501.236    500.825
 43.170    491.690    533.428    -41.738    500.728    533.028    500.728    501.147    500.728
 43.270    512.185    521.513     -9.328    500.633    521.097    500.633    501.060    500.633
 43.370    498.000    514.696    -16.696    500.539    514.267    500.539    500.974    500.539
 43.470    552.461    511.062     41.399    500.447    510.622    500.447    500.891    500.447
 43.570    502.000    509.120     -7.120    500.357    508.669    500.357    500.810    500.357
 43.670    541.622    507.993     33.629    500.268    507.532    500.268    500.731    500.268
 43.770    508.222    507.253      0.969    500.180    506.782    500.180    500.653    500.180
 43.870    506.000    506.716     -0.716    500.095    506.234    500.095    500.578    500.095
 43.970    498.728    506.303     -7.575    500.010    505.810    500.010    500.505    500.010
 44.070    527.000    505.977     21.023    499.928    505.472    499.928    500.434    499.928
 44.170    506.000    505.717      0.283    499.847    505.199    499.847    500.365    499.847
 44.270    481.421    505.508    -24.086    499.767    504.977    499.767    500.298    499.767
 44.370    517.000    505.341     11.659    499.689    504.797    499.689    500.234    499.689
 44.470    489.000    505.208    -16.208    499.613    504.650    499.613    500.171    499.613
 44.570    472.624    505.104    -32.481    499.538    504.531    499.538    500.111    499.538
 44.670    444.000    505.026    -61.026    499.465    504.437    499.465    500.054    499.465
 44.770    494.000    504.970    -10.970    499.393    504.365    499.393    499.999    499.393
 44.870    549.289    504.935     44.354    499.323    504.312    499.323    499.946    499.323
 44.970    491.000    504.918    -13.918    499.254    504.277    499.254    499.896    499.254
 45.070    478.001    504.919    -26.918    499.187    504.258    499.187    499.848    499.187
 45.170    487.000    504.937    -17.937    499.122    504.255    499.122    499.804    499.122
 45.270    517.000    504.972     12.028    499.058    504.268    499.058    499.762    499.058
 45.370    503.786    505.024     -1.238    498.995    504.296    498.995    499.723    498.995
 45.470    505.000    505.093     -0.093    498.935    504.340    498.935    499.687    498.935
 45.570    548.177    505.180     42.997    498.875    504.400    498.875    499.654    498.875
 45.670    497.000    505.286     -8.286    498.817    504.478    498.817    499.625    498.817
 45.770    470.013    505.412    -35.400    498.761    504.573    498.761    499.600    498.761
 45.870    500.000    505.560     -5.560    498.706    504.689    498.706    499.578    498.706
 45.970    521.835    505.733     16.102    498.653    504.826    498.653    499.560    498.653
 46.070    475.000    505.933    -30.933    498.601    504.987    498.601    499.546    498.601
 46.170    542.994    506.163     36.830    498.551    505.176    498.551    499.537    498.551
 46.270    519.000    506.429     12.571    498.502    505.397    498.502    499.534    498.502
 46.370    508.000    506.737      1.263    498.455    505.656    498.455    499.535    498.455
 46.470    517.000    507.093      9.907    498.409    505.959    498.409    499.542    498.409
 46.570    505.000    507.509     -2.509    498.365    506.317    498.365    499.556    498.365
 46.670    521.000    508.002     12.998    498.322    506.746    498.322    499.577    498.322
 46.770    491.006    508.600    -17.594    498.281    507.273    498.281    499.605    498.281
 46.870    519.000    509.363      9.637    498.241    507.959    498.241    499.643    498.241
 46.970    540.817    510.423     30.394    498.202    508.933    498.202    499.690    498.202
 47.070    533.549    512.059     21.489    498.166    510.473    498.166    499.748    498.166
 47.170    496.000    514.792    -18.792    498.130    513.098    498.130    499.818    498.130
 47.270    513.154    519.436     -6.282    498.096    517.620    498.096    499.904    498.096
 47.370    505.499    526.983    -21.484    498.064    525.026    498.064    500.005    498.064
 47.470    507.000    538.183    -31.183    498.032    536.067    498.032    500.126    498.032
 47.570    531.190    552.868    -21.677    498.003    550.567    498.003    500.270    498.003
 47.670    585.000    569.266     15.734    497.975    566.754    497.975    500.441    497.975
 47.770    602.038    583.562     18.476    497.948    580.812    497.948    500.643    497.948
 47.870    633.499    590.725     42.774    497.922    587.704    497.922    500.885    497.922
 47.970    582.000    587.791     -5.791    497.898    584.461    497.898    501.174    497.898
 48.070    615.000    576.777     38.223    497.876    573.085    497.876    501.524    497.876
 48.170    591.000    562.584     28.416    497.855    558.454    497.855    501.953    497.855
 48.270    564.000    549.488     14.512    497.835    544.812    497.835    502.490    497.835
 48.370    544.000    539.840      4.160    497.817    534.458    497.817    503.184    497.817
 48.470    580.435    534.279     46.157    497.800    527.947    497.800    504.122    497.800
 48.570    553.016    532.414     20.602    497.784    524.744    497.784    505.448    497.784
 48.670    523.000    533.566    -10.566    497.770    523.942    497.770    507.390    497.770
 48.770    495.171    537.280    -42.109    497.757    524.750    497.757    510.283    497.757
 48.870    504.000    543.510    -39.510    497.746    526.692    497.746    514.559    497.746
 48.970    523.000    552.568    -29.568    497.736    529.610    497.736    520.688    497.736
 49.070    600.000    564.989     35.011    497.727    533.663    497.727    529.046    497.727
 49.170    542.000    581.518    -39.518    497.720    539.504    497.720    539.725    497.720
 49.270    629.000    603.514     25.486    497.714    548.953    497.714    552.263    497.714
 49.370    655.000    634.202     20.798    497.709    566.578    497.709    565.315    497.709
 49.470    701.000    681.164     19.836    497.706    602.456    497.706    576.385    497.706
 49.570    782.000    759.861     22.139    497.704    675.258    497.704    582.257    497.704
 49.670    875.000    895.645    -20.645    497.703    812.498    497.703    580.766    497.703
 49.770   1079.000   1117.826    -38.826    497.704   1042.871    497.704    572.532    497.704
 49.870   1434.000   1440.724     -6.724    497.706   1377.878    497.706    560.384    497.706
 49.970   1835.000   1838.015     -3.015    497.709   1788.192    497.709    547.349    497.709
 50.070   2257.000   2227.226     29.774    497.714   2189.332    497.714    535.458    497.714
 50.170   2461.000   2483.598    -22.598    497.720   2455.583    497.720    525.677    497.720
 50.270   2515.000   2499.936     15.064    497.727   2479.502    497.727    518.225    497.727
 50.370   2300.000   2265.648     34.352    497.735   2250.664    497.735    512.875    497.735
 50.470   1850.000   1877.055    -27.055    497.745   1865.793    497.745    509.196    497.745
 50.570   1407.026   1463.220    -56.194    497.756   1454.425    497.756    506.726    497.756
 50.670   1061.000   1117.843    -56.843    497.768   1110.680    497.768    505.066    497.768
 50.770    912.000    878.589     33.411    497.782    872.539    497.782    503.924    497.782
 50.870    710.000    737.909    -27.909    497.796    732.660    497.796    503.108    497.796
 50.970    657.000    666.176     -9.176    497.812    661.537    497.812    502.497    497.812
 51.070    621.734    631.948    -10.214    497.829    627.792    497.829    502.023    497.829
 51.170    614.000    612.658      1.342    497.848    608.894    497.848    501.644    497.848
 51.270    620.752    596.958     23.794    497.867    593.516    497.867    501.337    497.867
 51.370    584.000    581.794      2.206    497.888    578.619    497.888    501.085    497.888
 51.470    549.000    567.777    -18.777    497.910    564.827    497.910    500.877    497.910
 51.570    567.632    556.069     11.563    497.933    553.308    497.933    500.706    497.933
 51.670    624.000    547.269     76.731    497.958    544.670    497.958    500.565    497.958
 51.770    520.000    541.316    -21.316    497.983    538.855    497.983    500.449    497.983
 51.870    522.305    537.722    -15.417    498.010    535.380    498.010    500.356    498.010
 51.970    557.000    535.890     21.110    498.038    533.650    498.038    500.281    498.038
 52.070    577.000    535.332     41.668    498.067    533.180    498.067    500.222    498.067
 52.170    573.000    535.773     37.227    498.097    533.695    498.097    500.177    498.097
 52.270    606.000    537.173     68.827    498.128    535.158    498.128    500.145    498.128
 52.370    531.227    539.782     -8.555    498.161    537.820    498.161    500.124    498.161
 52.470    547.958    544.308      3.650    498.194    542.390    498.194    500.113    498.194
 52.570    555.339    552.264      3.075    498.229    550.382    498.229    500.111    498.229
 52.670    565.056    566.473     -1.417    498.265    564.620    498.265    500.117    498.265
 52.770    636.000    591.479     44.521    498.302    589.648    498.302    500.131    498.302
 52.870    625.455    633.373     -7.919    498.340    631.557    498.340    500.152    498.340
 52.970    769.000    698.411     70.589    498.379    696.603    498.379    500.179    498.379
 53.070    794.000    790.125      3.875    498.419    788.321    498.419    500.213    498.419
 53.170    861.000    905.464    -44.464    498.460    903.660    498.460    500.253    498.460
 53.270   1035.000   1031.188      3.812    498.503   1029.382    498.503    500.299    498.503
 53.370   1176.415   1142.241     34.174    498.546   1140.434    498.546    500.351    498.546
 53.470   1194.000   1206.228    -12.228    498.590   1204.419    498.590    500.407    498.590
 53.570   1169.000   1199.519    -30.519    498.636   1197.706    498.636    500.470    498.636
 53.670   1147.972   1125.080     22.892    498.682   1123.254    498.682    500.537    498.682
 53.770   1048.121   1009.748     38.373    498.730   1007.898    498.730    500.610    498.730
 53.870    920.853    885.177     35.675    498.778    883.294    498.778    500.689    498.778
 53.970    725.000    774.250    -49.250    498.828    772.327    498.828    500.773    498.828
 54.070    718.000    688.124     29.876    498.878    686.156    498.878    500.862    498.878
 54.170    677.000    628.357     48.643    498.930    626.340    498.930    500.957    498.930
 54.270    618.000    590.665     27.335    498.982    588.595    498.982    501.058    498.982
 54.370    612.336    568.674     43.662    499.036    566.548    499.036    501.165    499.036
 54.470    567.000    556.535     10.465    499.090    554.348    499.090    501.279    499.090
 54.570    576.000    550.036     25.964    499.145    547.783    499.145    501.400    499.145
 54.670    577.733    546.627     31.106    499.202    544.303    499.202    501.527    499.202
 54.770    542.000    544.958     -2.958    499.259    542.556    499.259    501.662    499.259
 54.870    505.632    544.386    -38.754    499.317    541.898    499.317    501.805    499.317
 54.970    565.600    544.631     20.969    499.376    542.051    499.376    501.957    499.376
 55.070    564.000    545.589     18.411    499.436    542.907    499.436    502.118    499.436
 55.170    585.000    547.239     37.761    499.497    544.447    499.497    502.289    499.497
 55.270    571.000    549.618     21.382    499.559    546.706    499.559    502.472    499.559
 55.370    558.697    552.818      5.879    499.621    549.774    499.621    502.666    499.621
 55.470    562.000    557.011      4.989    499.685    553.823    499.685    502.873    499.685
 55.570    540.179    562.533    -22.354    499.749    559.187    499.749    503.095    499.749
 55.670    585.000    570.087     14.913    499.814    566.569    499.814    503.332    499.814
 55.770    566.000    581.194    -15.194    499.881    577.485    499.881    503.587    499.881
 55.870    564.000    599.034    -35.034    499.947    595.116    499.947    503.863    499.947
 55.970    620.000    629.760     -9.760    500.015    625.608    500.015    504.160    500.015
 56.070    711.189    683.949     27.240    500.084    679.537    500.084    504.482    500.084
 56.170    745.000    777.253    -32.253    500.153    772.548    500.153    504.832    500.153
 56.270    884.544    928.601    -44.056    500.223    923.568    500.223    505.215    500.223
 56.370   1135.000   1154.457    -19.457    500.294   1149.059    500.294    505.634    500.294
 56.470   1455.000   1459.233     -4.233    500.366   1453.433    500.366    506.095    500.366
 56.570   1711.000   1824.538   -113.538    500.439   1818.301    500.439    506.604    500.439
 56.670   2149.000   2201.562    -52.562    500.512   2194.856    500.512    507.171    500.512
 56.770   2508.000   2511.650     -3.650    500.586   2504.438    500.586    507.803    500.586
 56.870   2603.000   2665.483    -62.483    500.661   2657.716    500.661    508.512    500.661
 56.970   2635.115   2609.660     25.455    500.736   2601.250    500.736    509.315    500.736
 57.070   2344.000   2365.942    -21.942    500.813   2356.751    500.813    510.228    500.813
 57.170   2084.734   2013.179     71.555    500.890   2003.031    500.890    511.276    500.890
 57.270   1714.000   1638.255     75.745    500.967   1626.944    500.967    512.494    500.967
 57.370   1326.000   1304.745     21.255    501.046   1292.032    501.046    513.932    501.046
 57.470   1018.000   1044.963    -26.963    501.125   1030.542    501.125    515.671    501.125
 57.570    847.000    864.360    -17.360    501.205    847.806    501.205    517.841    501.205
 57.670    803.000    751.467     51.533    501.285    732.140    501.285    520.661    501.285
 57.770    672.399    688.655    -16.256    501.366    665.563    501.366    524.484    501.366
 57.870    681.000    660.074     20.926    501.448    631.678    501.448    529.854    501.448
 57.970    667.000    655.434     11.566    501.531    619.412    501.531    537.551    501.531
 58.070    680.994    670.421     10.573    501.614    623.426    501.614    548.597    501.614
 58.170    700.000    705.174     -5.174    501.697    642.671    501.697    564.177    501.697
 58.270    762.542    761.957      0.585    501.782    678.255    501.782    585.448    501.782
 58.370    806.000    842.661    -36.661    501.866    731.251    501.866    613.229    501.866
 58.470    925.000    946.494    -21.494    501.952    800.796    501.952    647.592    501.952
 58.570   1026.635   1068.218    -41.583    502.038    882.800    502.038    687.391    502.038
 58.670   1222.000   1197.248     24.752    502.125    969.597    502.125    729.712    502.125
 58.770   1305.254   1318.847    -13.593    502.212   1051.695    502.212    769.309    502.212
 58.870   1431.000   1417.088     13.912    502.300   1120.702    502.300    798.644    502.300
 58.970   1445.175   1477.602    -32.428    502.388   1169.966    502.388    810.002    502.388
 59.070   1547.000   1490.439     56.561    502.477   1193.075    502.477    799.840    502.477
 59.170   1457.000   1454.806      2.194    502.566   1185.969    502.566    771.418    502.566
 59.270   1405.000   1382.040     22.960    502.656   1152.369    502.656    732.346    502.656
 59.370   1314.128   1291.910     22.218    502.747   1104.444    502.747    690.222    502.747
 59.470   1266.000   1205.046     60.954    502.837   1057.459    502.837    650.410    502.837
 59.570   1144.000   1138.919      5.081    502.929   1025.870    502.929    615.930    502.929
 59.670   1154.000   1108.104     45.896    503.021   1023.029    503.021    588.005    503.021
 59.770   1183.000   1123.300     59.700    503.113   1059.658    503.113    566.612    503.113
 59.870   1279.000   1186.872     92.128    503.206   1138.917    503.206    550.962    503.206
 59.970   1245.824   1288.560    -42.736    503.299   1251.703    503.299    539.906    503.299
 60.070   1404.000   1404.386     -0.386    503.393   1375.232    503.393    532.257    503.393
 60.170   1498.000   1499.484     -1.484    503.487   1475.686    503.487    526.984    503.487
 60.270   1603.000   1537.329     65.671    503.581   1517.337    503.581    523.295    503.581
 60.370   1555.000   1496.808     58.192    503.676   1479.622    503.676    520.637    503.676
 60.470   1421.166   1384.893     36.273    503.772   1369.853    503.772    518.650    503.772
 60.570   1271.000   1229.952     41.048    503.867   1216.602    503.867    517.116    503.867
 60.670    997.954   1064.866    -66.912    503.964   1052.870    503.964    515.904    503.964
 60.770    930.000    915.420     14.580    504.060    904.513    504.060    514.941    504.060
 60.870    827.795    796.304     31.491    504.157    786.266    504.157    514.184    504.157
 60.970    738.000    711.834     26.166    504.254    702.468    504.254    513.614    504.254
 61.070    678.000    659.347     18.653    504.352    650.473    504.352    513.217    504.352
 61.170    667.000    633.547     33.453    504.449    624.995    504.449    512.988    504.449
 61.270    668.689    630.174     38.515    504.548    621.782    504.548    512.919    504.548
 61.370    652.000    648.049      3.951    504.646    639.666    504.646    512.994    504.646
 61.470    735.402    689.236     46.166    504.745    680.742    504.745    513.188    504.745
 61.570    803.451    757.507     45.944    504.844    748.821    504.844    513.454    504.844
 61.670    889.000    855.452     33.548    504.943    846.566    504.943    513.722    504.943
 61.770    992.000    980.990     11.010    505.043    971.994    505.043    513.900    505.043
 61.870   1102.000   1124.325    -22.325    505.143   1115.406    505.143    513.892    505.143
 61.970   1228.000   1266.472    -38.472    505.243   1257.880    505.243    513.647    505.243
 62.070   1389.931   1380.549      9.382    505.343   1372.517    505.343    513.188    505.343
 62.170   1417.436   1438.162    -20.726    505.444   1430.850    505.444    512.592    505.444
 62.270   1416.000   1422.151     -6.151    505.545   1415.626    505.545    511.947    505.545
 62.370   1275.190   1337.200    -62.010    505.646   1331.444    505.646    511.324    505.646
 62.470   1259.284   1206.525     52.759    505.747   1201.466    505.747    510.767    505.747
 62.570   1051.659   1058.940     -7.281    505.848   1054.478    505.848    510.299    505.848
 62.670    876.643    918.516    -41.872    505.950    914.545    505.950    509.925    505.950
 62.770    747.745    800.414    -52.669    506.052    796.836    506.052    509.639    506.052
 62.870    661.000    710.723    -49.723    506.154    707.456    506.154    509.431    506.154
 62.970    673.000    648.479     24.521    506.256    645.456    506.256    509.285    506.256
 63.070    578.720    608.660    -29.940    506.358    605.831    506.358    509.188    506.358
 63.170    616.923    585.036     31.887    506.460    582.368    506.460    509.127    506.460
 63.270    613.000    572.121     40.879    506.563    569.586    506.563    509.093    506.563
 63.370    596.739    566.053     30.686    506.665    563.634    506.665    509.078    506.665
 63.470    545.973    564.744    -18.771    506.768    562.426    506.768    509.078    506.768
 63.570    553.462    567.665    -14.204    506.870    565.436    506.870    509.089    506.870
 63.670    559.621    575.569    -15.948    506.973    573.418    506.973    509.109    506.973
 63.770    636.000    590.206     45.794    507.076    588.123    507.076    509.137    507.076
 63.870    650.663    613.935     36.727    507.179    611.911    507.179    509.171    507.179
 63.970    647.000    649.115     -2.115    507.282    647.140    507.282    509.211    507.282
 64.070    647.260    697.205    -49.945    507.385    695.270    507.385    509.256    507.385
 64.170    778.000    757.709     20.291    507.488    755.806    507.488    509.306    507.488
 64.270    804.553    827.181    -22.627    507.591    825.305    507.591    509.360    507.591
 64.370    885.000    898.592    -13.592    507.694    896.744    507.694    509.417    507.694
 64.470    917.044    961.570    -44.526    507.797    959.753    507.797    509.478    507.797
 64.570   1028.000   1004.564     23.436    507.900   1002.788    507.900    509.543    507.900
 64.670    995.000   1019.293    -24.293    508.003   1017.566    508.003    509.610    508.003
 64.770   1074.000   1004.391     69.609    508.106   1002.721    508.106    509.680    508.106
 64.870    918.000    965.015    -47.015    508.209    963.404    508.209    509.752    508.209
 64.970    942.000    910.062     31.938    508.312    908.507    508.312    509.827    508.312
 65.070    797.490    849.259    -51.769    508.415    847.753    508.415    509.904    508.415
 65.170    800.000    790.562      9.438    508.517    789.099    508.517    509.984    508.517
 65.270    693.871    738.669    -44.798    508.620    737.240    508.620    510.065    508.620
 65.370    671.000    695.191    -24.191    508.723    693.787    508.723    510.148    508.723
 65.470    630.000    659.899    -29.899    508.825    658.515    508.825    510.233    508.825
 65.570    677.044    631.925     45.119    508.927    630.553    508.927    510.319    508.927
 65.670    648.205    610.266     37.939    509.030    608.905    509.030    510.407    509.030
 65.770    543.000    593.904    -50.904    509.132    592.550    509.132    510.497    509.132
 65.870    572.430    581.884     -9.455    509.234    580.537    509.234    510.588    509.234
 65.970    587.312    573.396     13.915    509.335    572.056    509.335    510.679    509.335
 66.070    547.000    567.784    -20.784    509.437    566.449    509.437    510.773    509.437
 66.170    537.000    564.517    -27.517    509.538    563.187    509.538    510.869    509.538
 66.270    500.000    563.173    -63.173    509.640    561.847    509.640    510.965    509.640
 66.370    585.710    563.443     22.267    509.741    562.119    509.741    511.063    509.741
 66.470    570.000    565.165      4.835    509.841    563.843    509.841    511.163    509.841
 66.570    566.000    568.396     -2.396    509.942    567.075    509.942    511.264    509.942
 66.670    570.917    573.534     -2.617    510.042    572.211    510.042    511.366    510.042
 66.770    588.000    581.533      6.467    510.143    580.207    510.143    511.469    510.143
 66.870    555.000    594.247    -39.247    510.243    592.915    510.243    511.574    510.243
 66.970    652.829    614.894     37.934    510.342    613.554    510.342    511.680    510.342
 67.070    693.191    648.535     44.657    510.442    647.184    510.442    511.787    510.442
 67.170    701.000    702.330     -1.330    510.541    700.965    510.541    511.896    510.541
 67.270    792.000    785.203      6.797    510.640    783.821    510.640    512.006    510.640
 67.370    891.000    906.513    -15.513    510.738    905.111    510.738    512.118    510.738
 67.470   1103.277   1073.542     29.735    510.836   1072.123    510.836    512.231    510.836
 67.570   1289.000   1288.065      0.935    510.934   1286.633    510.934    512.346    510.934
 67.670   1523.000   1542.764    -19.764    511.032   1541.327    511.032    512.462    511.032
 67.770   1757.000   1818.551    -61.551    511.129   1817.121    511.129    512.581    511.129
 67.870   2120.000   2083.792     36.208    511.226   2082.384    511.226    512.701    511.226
 67.970   2341.333   2296.832     44.501    511.323   2295.459    511.323    512.824    511.323
 68.070   2444.338   2414.743     29.595    511.419   2413.411    511.419    512.948    511.419
 68.170   2464.443   2409.476     54.968    511.515   2408.175    511.515    513.075    511.515
 68.270   2228.347   2282.457    -54.110    511.610   2281.162    511.610    513.205    511.610
 68.370   2097.000   2063.712     33.288    511.705   2062.389    511.705    513.337    511.705
 68.470   1830.000   1796.536     33.464    511.800   1795.153    511.800    513.473    511.800
 68.570   1491.000   1521.918    -30.918    511.894   1520.453    511.894    513.611    511.894
 68.670   1278.000   1270.463      7.537    511.988   1268.902    511.988    513.753    511.988
 68.770   1029.608   1060.201    -30.593    512.082   1058.540    512.082    513.899    512.082
 68.870    848.293    897.565    -49.272    512.175    895.803    512.175    514.049    512.175
 68.970    791.000    780.178     10.822    512.267    778.319    512.267    514.204    512.267
 69.070    689.000    700.466    -11.466    512.359    698.512    512.359    514.364    512.359
 69.170    645.227    649.031     -3.803    512.451    646.985    512.451    514.529    512.451
 69.270    636.580    617.063     19.517    512.542    614.925    512.542    514.701    512.542
 69.370    571.000    597.566    -26.566    512.633    595.332    512.633    514.880    512.633
 69.470    611.000    585.627     25.373    512.723    583.293    512.723    515.067    512.723
 69.570    549.371    578.124    -28.753    512.812    575.681    512.812    515.262    512.812
 69.670    570.000    573.230     -3.230    512.902    570.668    512.902    515.467    512.902
 69.770    549.000    569.944    -20.944    512.990    567.253    512.990    515.684    512.990
 69.870    566.968    567.748     -0.780    513.078    564.916    513.078    515.912    513.078
 69.970    570.067    566.383      3.684    513.166    563.395    513.166    516.155    513.166
 70.070    594.000    565.732     28.268    513.253    562.571    513.253    516.414    513.253
 70.170    589.000    565.757     23.243    513.339    562.404    513.339    516.692    513.339
 70.270    566.955    566.492      0.463    513.425    562.925    513.425    516.990    513.425
 70.370    562.000    568.060     -6.060    513.510    564.255    513.510    517.313    513.510
 70.470    578.000    570.734      7.266    513.595    566.661    513.595    517.664    513.595
 70.570    528.882    575.037    -46.155    513.679    570.662    513.679    518.048    513.679
 70.670    553.063    581.912    -28.849    513.763    577.194    513.763    518.471    513.763
 70.770    582.000    592.947    -10.947    513.846    587.838    513.846    518.941    513.846
 70.870    577.000    610.628    -33.628    513.928    605.067    513.928    519.469    513.928
 70.970    648.536    638.531     10.005    514.010    632.440    514.010    520.070    514.010
 71.070    653.803    681.324    -27.521    514.091    674.601    514.091    520.769    514.091
 71.170    724.000    744.385    -20.385    514.171    736.886    514.171    521.605    514.171
 71.270    849.200    832.904     16.296    514.251    824.422    514.251    522.642    514.251
 71.370    962.000    950.459     11.541    514.330    940.687    514.330    523.980    514.330
 71.470   1148.020   1097.240     50.780    514.408   1085.717    514.408    525.776    514.408
 71.570   1227.000   1268.341    -41.341    514.486   1254.378    514.486    528.264    514.486
 71.670   1389.891   1452.572    -62.681    514.563   1435.155    514.563    531.768    514.563
 71.770   1640.000   1632.181      7.819    514.639   1609.877    514.639    536.717    514.639
 71.870   1829.570   1784.074     45.496    514.714   1754.942    514.714    543.623    514.714
 71.970   1907.662   1883.773     23.889    514.789   1845.323    514.789    553.036    514.789
 72.070   1969.000   1913.060     55.940    514.863   1862.298    514.863    565.455    514.863
 72.170   1877.329   1868.330      8.999    514.937   1801.929    514.937    581.208    514.937
 72.270   1818.731   1762.633     56.098    515.009   1677.250    515.009    600.300    515.009
 72.370   1576.449   1619.036    -42.588    515.081   1511.790    515.081    622.266    515.081
 72.470   1484.798   1461.508     23.289    515.152   1330.586    515.152    646.036    515.152
 72.570   1308.000   1309.082     -1.082    515.223   1154.451    515.223    669.829    515.223
 72.670   1140.000   1173.633    -33.633    515.292    997.783    515.292    691.125    515.292
 72.770   1061.000   1059.876      1.124    515.361    868.339    515.361    706.883    515.361
 72.870    945.330    966.946    -21.616    515.429    768.102    515.429    714.260    515.429
 72.970    848.000    891.100    -43.100    515.496    694.848    515.496    711.736    515.496
 73.070    791.000    828.296    -37.296    515.563    643.965    515.563    699.881    515.563
 73.170    709.000    775.503    -66.503    515.628    610.078    515.628    681.042    515.628
 73.270    707.000    730.783    -23.783    515.693    588.198    515.693    658.269    515.693
 73.370    666.000    692.944    -26.944    515.757    574.320    515.757    634.373    515.757
 73.470    612.411    661.258    -48.847    515.820    565.574    515.820    611.499    515.820
 73.570    635.866    635.266      0.600    515.882    560.092    515.882    591.053    515.882
 73.670    603.000    614.601    -11.601    515.944    556.765    515.944    573.781    515.944
 73.770    588.000    598.864    -10.864    516.004    554.983    516.004    559.889    516.004
 73.870    548.282    587.544    -39.261    516.064    554.424    516.064    549.191    516.064
 73.970    575.000    580.016     -5.016    516.122    554.897    516.122    541.254    516.122
 74.070    582.000    575.568      6.432    516.180    556.226    516.180    535.540    516.180
 74.170    601.000    573.438     27.562    516.237    558.186    516.237    531.512    516.237
 74.270    643.000    572.845     70.155    516.293    560.469    516.293    528.699    516.293
 74.370    586.000    573.009     12.991    516.348    562.669    516.348    526.724    516.348
 74.470    658.000    573.186     84.814    516.403    564.317    516.403    525.311    516.403
 74.570    563.961    572.738     -8.777    516.456    564.967    516.456    524.269    516.456
 74.670    587.540    571.258     16.282    516.508    564.338    516.508    523.471    516.508
 74.770    643.000    568.682     74.318    516.560    562.444    516.560    522.838    516.560
 74.870    561.993    565.263     -3.270    516.610    559.591    516.610    522.320    516.610
 74.970    591.000    561.456     29.544    516.660    556.262    516.660    521.885    516.660
 75.070    616.000    557.770     58.230    516.708    552.988    516.708    521.515    516.708
 75.170    578.000    554.708     23.292    516.756    550.286    516.756    521.196    516.756
 75.270    551.000    552.750     -1.750    516.802    548.645    516.802    520.920    516.802
 75.370    595.036    552.372     42.665    516.848    548.548    516.848    520.679    516.848
 75.470    576.000    554.065     21.935    516.893    550.491    516.893    520.467    516.893
 75.570    561.904    558.340      3.564    516.936    554.990    516.936    520.282    516.936
 75.670    608.000    565.698     42.302    516.979    562.548    516.979    520.118    516.979
 75.770    624.118    576.547     47.571    517.020    573.576    517.020    519.974    517.020
 75.870    569.550    591.074    -21.523    517.061    588.263    517.061    519.846    517.061
 75.970    625.000    609.086     15.914    517.100    606.419    517.100    519.733    517.100
 76.070    664.000    629.868     34.132    517.139    627.332    517.139    519.632    517.139
 76.170    655.000    652.081      2.919    517.176    649.663    517.176    519.543    517.176
 76.270    692.000    673.741     18.259    517.213    671.432    517.213    519.463    517.213
 76.370    662.548    692.317    -29.769    517.248    690.109    517.248    519.392    517.248
 76.470    657.053    705.049    -47.997    517.283    702.937    517.283    519.328    517.283
 76.570    692.066    709.631    -17.566    517.316    707.611    517.316    519.271    517.316
 76.670    714.163    705.102      9.061    517.348    703.172    517.348    519.220    517.348
 76.770    665.000    692.308    -27.308    517.379    690.462    517.379    519.174    517.379
 76.870    656.000    673.482    -17.482    517.409    671.717    517.409    519.132    517.409
 76.970    644.000    651.362     -7.362    517.438    649.672    517.438    519.095    517.438
 77.070    588.583    628.484    -39.901    517.466    626.864    517.466    519.062    517.466
 77.170    600.000    606.841     -6.841    517.492    605.285    517.492    519.031    517.492
 77.270    625.888    587.769     38.118    517.518    586.272    517.518    519.003    517.518
 77.370    483.000    571.961    -88.961    517.543    570.518    517.543    518.978    517.543
 77.470    559.479    559.557     -0.078    517.566    558.162    517.566    518.955    517.566
 77.570    583.141    550.291     32.850    517.588    548.942    517.588    518.934    517.588
 77.670    520.745    543.666    -22.921    517.609    542.358    517.609    518.915    517.609
 77.770    544.000    539.100      4.900    517.629    537.831    517.629    518.897    517.629
 77.870    512.000    536.039    -24.039    517.648    534.805    517.648    518.880    517.648
 77.970    529.000    534.018     -5.018    517.666    532.818    517.666    518.864    517.666
 78.070    509.447    532.687    -23.240    517.682    531.518    517.682    518.850    517.682
 78.170    536.365    531.797      4.568    517.698    530.657    517.698    518.836    517.698
 78.270    533.000    531.174      1.826    517.712    530.061    517.712    518.823    517.712
 78.370    494.752    530.733    -35.981    517.725    529.647    517.725    518.810    517.725
 78.470    512.270    530.454    -18.183    517.736    529.391    517.736    518.798    517.736
 78.570    508.000    530.289    -22.289    517.747    529.248    517.747    518.787    517.747
 78.670    507.533    530.231    -22.697    517.757    529.210    517.757    518.776    517.757
 78.770    539.559    530.287      9.272    517.765    529.285    517.765    518.766    517.765
 78.870    555.376    530.474     24.902    517.772    529.489    517.772    518.756    517.772
 78.970    490.486    530.816    -40.330    517.778    529.845    517.778    518.747    517.778
 79.070    506.000    531.339    -25.339    517.782    530.380    517.782    518.739    517.782
 79.170    491.887    532.071    -40.184    517.786    531.122    517.786    518.733    517.786
 79.270    523.000    533.043    -10.043    517.788    532.099    517.788    518.729    517.788
 79.370    543.000    534.281      8.719    517.789    533.338    517.789    518.729    517.789
 79.470    562.338    535.812     26.526    517.789    534.865    517.789    518.732    517.789
 79.570    533.000    537.671     -4.671    517.787    536.715    517.787    518.739    517.787
 79.670    578.796    539.916     38.880    517.784    538.943    517.784    518.753    517.784
 79.770    536.058    542.637     -6.579    517.780    541.640    517.780    518.772    517.780
 79.870    538.000    545.981     -7.981    517.775    544.952    517.775    518.798    517.775
 79.970    589.978    550.174     39.804    517.769    549.107    517.769    518.831    517.769
 80.070    554.000    555.542     -1.542    517.761    554.429    517.761    518.869    517.761
 80.170    538.000    562.505    -24.505    517.752    561.343    517.752    518.910    517.752
 80.270    597.000    571.534     25.466    517.742    570.321    517.742    518.953    517.742
 80.370    614.683    583.050     31.633    517.730    581.789    517.730    518.993    517.730
 80.470    636.291    597.319     38.973    517.718    596.017    517.718    519.024    517.718
 80.570    645.656    614.339     31.317    517.703    613.009    517.703    519.042    517.703
 80.670    600.000    633.767    -33.767    517.688    632.428    517.688    519.041    517.688
 80.770    609.830    654.877    -45.048    517.672    653.551    517.672    519.017    517.672
 80.870    657.000    676.586    -19.586    517.654    675.294    517.654    518.970    517.654
 80.970    687.000    697.567    -10.567    517.634    696.328    517.634    518.904    517.634
 81.070    687.449    716.440    -28.991    517.614    715.268    517.614    518.824    517.614
 81.170    778.000    731.955     46.045    517.592    730.856    517.592    518.735    517.592
 81.270    739.486    743.101     -3.615    517.569    742.076    517.569    518.644    517.569
 81.370    754.000    749.187      4.813    517.545    748.235    517.545    518.553    517.545
 81.470    741.000    749.915     -8.915    517.519    749.030    517.519    518.465    517.519
 81.570    734.000    745.392    -11.392    517.492    744.565    517.492    518.382    517.492
 81.670    692.379    736.086    -43.708    517.463    735.310    517.463    518.306    517.463
 81.770    759.701    722.811     36.890    517.434    722.076    517.434    518.235    517.434
 81.870    677.250    706.693    -29.442    517.403    705.990    517.403    518.171    517.403
 81.970    702.000    689.012     12.988    517.371    688.335    517.371    518.111    517.371
 82.070    716.000    670.942     45.058    517.337    670.284    517.337    518.055    517.337
 82.170    675.645    653.338     22.307    517.302    652.694    517.302    518.003    517.302
 82.270    677.000    636.684     40.316    517.266    636.049    517.266    517.953    517.266
 82.370    630.962    621.194      9.768    517.228    620.566    517.228    517.905    517.228
 82.470    635.000    606.979     28.021    517.189    606.354    517.189    517.857    517.189
 82.570    583.000    594.159    -11.159    517.149    593.536    517.149    517.810    517.149
 82.670    568.849    582.898    -14.050    517.107    582.275    517.107    517.762    517.107
 82.770    590.000    573.365     16.635    517.064    572.739    517.064    517.715    517.064
 82.870    558.000    565.703     -7.703    517.020    565.075    517.020    517.666    517.020
 82.970    582.000    560.017     21.983    516.974    559.386    516.974    517.617    516.974
 83.070    556.062    556.358     -0.296    516.927    555.722    516.927    517.567    516.927
 83.170    498.000    554.708    -56.708    516.879    554.067    516.879    517.516    516.879
 83.270    587.125    554.962     32.163    516.829    554.316    516.829    517.464    516.829
 83.370    545.013    556.911    -11.897    516.778    556.259    516.778    517.411    516.778
 83.470    542.000    560.229    -18.229    516.725    559.572    516.725    517.357    516.725
 83.570    572.405    564.478      7.927    516.671    563.816    516.671    517.302    516.671
 83.670    601.869    569.119     32.751    516.616    568.452    516.616    517.246    516.616
 83.770    544.122    573.536    -29.415    516.560    572.865    516.560    517.189    516.560
 83.870    615.000    577.089     37.911    516.502    576.415    516.502    517.130    516.502
 83.970    577.000    579.192     -2.192    516.443    578.517    516.443    517.071    516.443
 84.070    613.000    579.436     33.565    516.382    578.762    516.382    517.010    516.382
 84.170    588.000    577.696     10.304    516.320    577.024    516.320    516.949    516.320
 84.270    572.593    574.160     -1.567    516.257    573.492    516.257    516.886    516.257
 84.370    575.000    569.254      5.746    516.192    568.590    516.192    516.822    516.192
 84.470    544.000    563.508    -19.508    516.126    562.848    516.126    516.757    516.126
 84.570    564.000    557.446      6.554    516.058    556.790    516.058    516.691    516.058
 84.670    556.000    551.520      4.480    515.989    550.867    515.989    516.623    515.989
 84.770    558.000    546.072     11.928    515.919    545.421    515.919    516.555    515.919
 84.870    500.770    541.327    -40.557    515.847    540.678    515.847    516.485    515.847
 84.970    542.000    537.395      4.605    515.774    536.745    515.774    516.415    515.774
 85.070    490.760    534.289    -43.529    515.700    533.639    515.700    516.343    515.700
 85.170    536.000    531.954      4.046    515.624    531.303    515.624    516.270    515.624
 85.270    499.000    530.296    -31.296    515.547    529.643    515.547    516.195    515.547
 85.370    494.063    529.205    -35.142    515.469    528.549    515.469    516.120    515.469
 85.470    521.000    528.583     -7.583    515.389    527.924    515.389    516.044    515.389
 85.570    562.323    528.355     33.968    515.308    527.691    515.308    515.966    515.308
 85.670    512.000    528.479    -16.479    515.225    527.811    515.225    515.887    515.225
 85.770    515.000    528.957    -13.957    515.141    528.284    515.141    515.807    515.141
 85.870    572.621    529.830     42.792    515.056    529.151    515.056    515.727    515.056
 85.970    543.000    531.184     11.816    514.969    530.499    514.969    515.644    514.969
 86.070    554.058    533.146     20.912    514.881    532.453    514.881    515.561    514.881
 86.170    536.000    535.875      0.125    514.792    535.173    514.792    515.477    514.792
 86.270    557.000    539.553     17.447    514.701    538.841    514.701    515.392    514.701
 86.370    511.000    544.361    -33.361    514.609    543.637    514.609    515.305    514.609
 86.470    530.875    550.453    -19.578    514.515    549.715    514.515    515.218    514.515
 86.570    575.000    557.919     17.081    514.420    557.165    514.420    515.129    514.420
 86.670    612.000    566.749     45.251    514.324    565.978    514.324    515.040    514.324
 86.770    568.000    576.791     -8.791    514.226    576.002    514.226    514.949    514.226
 86.870    623.000    587.729     35.271    514.127    586.920    514.127    514.858    514.127
 86.970    613.000    599.062     13.938    514.027    598.233    514.027    514.765    514.027
 87.070    617.000    610.112      6.888    513.925    609.263    513.925    514.672    513.925
 87.170    636.845    620.053     16.792    513.822    619.187    513.822    514.577    513.822
 87.270    636.000    627.987      8.013    513.717    627.106    513.717    514.482    513.717
 87.370    650.000    633.084     16.916    513.612    632.192    513.612    514.386    513.612
 87.470    632.000    634.772     -2.772    513.504    633.873    513.504    514.288    513.504
 87.570    655.000    632.911     22.089    513.396    632.008    513.396    514.190    513.396
 87.670    685.000    627.831     57.169    513.286    626.927    513.286    514.092    513.286
 87.770    639.000    620.232     18.768    513.175    619.329    513.175    513.992    513.175
 87.870    625.000    611.003     13.997    513.062    610.101    513.062    513.892    513.062
 87.970    618.000    601.108     16.892    512.948    600.207    512.948    513.790    512.948
 88.070    603.000    591.445     11.555    512.833    590.543    512.833    513.689    512.833
 88.170    534.808    582.779    -47.971    512.716    581.875    512.716    513.586    512.716
 88.270    560.000    575.718    -15.718    512.599    574.810    512.599    513.483    512.599
 88.370    595.129    570.684     24.445    512.479    569.771    512.479    513.380    512.479
 88.470    572.169    567.903      4.266    512.359    566.982    512.359    513.276    512.359
 88.570    590.000    567.408     22.592    512.237    566.479    512.237    513.171    512.237
 88.670    559.000    569.053    -10.053    512.114    568.113    512.114    513.066    512.114
 88.770    587.944    572.527     15.417    511.989    571.575    511.989    512.961    511.989
 88.870    558.000    577.380    -19.380    511.863    576.415    511.863    512.856    511.863
 88.970    576.000    583.041     -7.041    511.736    582.063    511.736    512.750    511.736
 89.070    620.000    588.857     31.143    511.608    587.864    511.608    512.644    511.608
 89.170    563.710    594.123    -30.414    511.478    593.112    511.478    512.538    511.478
 89.270    575.000    598.144    -23.144    511.347    597.112    511.347    512.433    511.347
 89.370    594.933    600.325     -5.393    511.214    599.270    511.214    512.329    511.214
 89.470    572.881    600.287    -27.406    511.081    599.204    511.081    512.224    511.081
 89.570    548.000    597.945    -49.945    510.946    596.831    510.946    512.121    510.946
 89.670    581.000    593.522    -12.522    510.809    592.372    510.809    512.018    510.809
 89.770    569.022    587.468    -18.445    510.672    586.279    510.672    511.917    510.672
 89.870    579.618    580.341     -0.723    510.533    579.108    510.533    511.816    510.533
 89.970    530.000    572.707    -42.707    510.393    571.426    510.393    511.718    510.393
 90.070    578.000    565.068     12.932    510.252    563.737    510.252    511.621    510.252
 90.170    536.000    557.834    -21.834    510.109    556.448    510.109    511.527    510.109
 90.270    579.000    551.301     27.699    509.965    549.857    509.965    511.435    509.965
 90.370    582.666    545.654     37.012    509.820    544.147    509.820    511.346    509.820
 90.470    580.462    540.972     39.490    509.674    539.399    509.674    511.262    509.674
 90.570    537.000    537.253     -0.253    509.526    535.607    509.526    511.182    509.526
 90.670    571.196    534.430     36.766    509.377    532.706    509.377    511.109    509.377
 90.770    527.000    532.402     -5.402    509.227    530.591    509.227    511.044    509.227
 90.870    525.000    531.058     -6.058    509.076    529.149    509.076    510.988    509.076
 90.970    509.000    530.292    -21.292    508.924    528.271    508.924    510.946    508.924
 91.070    560.025    530.023     30.002    508.770    527.871    508.770    510.922    508.770
 91.170    541.000    530.200     10.800    508.615    527.893    508.615    510.921    508.615
 91.270    518.746    530.816    -12.069    508.459    528.320    508.459    510.952    508.459
 91.370    538.000    531.904      6.096    508.302    529.177    508.302    511.025    508.302
 91.470    572.633    533.541     39.092    508.143    530.525    508.143    511.154    508.143
 91.570    516.000    535.815    -19.815    507.983    532.436    507.983    511.356    507.983
 91.670    578.000    538.966     39.034    507.823    535.129    507.823    511.651    507.823
 91.770    536.000    543.193     -7.193    507.661    538.781    507.661    512.062    507.661
 91.870    510.000    548.716    -38.716    507.497    543.582    507.497    512.617    507.497
 91.970    556.000    555.777      0.223    507.333    549.747    507.333    513.345    507.333
 92.070    582.665    564.611     18.054    507.168    557.484    507.168    514.272    507.168
 92.170    545.698    575.417    -29.719    507.001    566.964    507.001    515.426    507.001
 92.270    571.000    588.326    -17.326    506.833    578.298    506.833    516.827    506.833
 92.370    599.617    603.374     -3.757    506.664    591.509    506.664    518.488    506.664
 92.470    653.000    620.473     32.527    506.494    606.512    506.494    520.407    506.494
 92.570    619.981    639.393    -19.413    506.323    623.090    506.323    522.570    506.323
 92.670    703.000    659.746     43.254    506.151    640.891    506.151    524.943    506.151
 92.770    662.000    680.984    -18.984    505.978    659.423    505.978    527.469    505.978
 92.870    728.000    702.414     25.586    505.803    678.074    505.803    530.068    505.803
 92.970    724.000    723.259      0.741    505.628    696.173    505.628    532.633    505.628
 93.070    771.183    742.742     28.441    505.451    713.079    505.451    535.032    505.451
 93.170    780.053    760.233     19.820    505.274    728.317    505.274    537.105    505.274
 93.270    812.000    775.350     36.650    505.095    741.673    505.095    538.687    505.095
 93.370    806.096    787.985     18.111    504.915    753.195    504.915    539.622    504.915
 93.470    848.071    798.278     49.792    504.735    763.133    504.735    539.798    504.735
 93.570    857.000    806.541     50.459    504.553    771.832    504.553    539.182    504.553
 93.670    772.567    813.187    -40.619    504.370    779.659    504.370    537.821    504.370
 93.770    792.000    818.716    -26.716    504.186    786.996    504.186    535.833    504.186
 93.870    783.635    823.724    -40.089    504.001    794.278    504.001    533.376    504.001
 93.970    772.000    828.879    -56.879    503.816    802.006    503.816    530.619    503.816
 94.070    810.000    834.830    -24.830    503.629    810.676    503.629    527.716    503.629
 94.170    824.000    842.045    -18.045    503.441    820.625    503.441    524.797    503.441
 94.270    876.000    850.649     25.351    503.252    831.875    503.252    521.964    503.252
 94.370    925.000    860.313     64.687    503.063    844.021    503.063    519.296    503.063
 94.470    932.000    870.237     61.763    502.872    856.209    502.872    516.844    502.872
 94.570    893.000    879.208     13.792    502.681    867.199    502.681    514.639    502.681
 94.670    898.000    885.744     12.256    502.488    875.492    502.488    512.696    502.488
 94.770    914.066    888.304     25.762    502.295    879.549    502.295    511.012    502.295
 94.870    973.000    885.581     87.419    502.100    878.079    502.100    509.574    502.100
 94.970    911.000    876.809     34.191    501.905    870.334    501.905    508.360    501.905
 95.070    831.274    861.967    -30.693    501.709    856.321    501.709    507.343    501.709
 95.170    841.000    841.804     -0.804    501.512    836.815    501.512    506.497    501.512
 95.270    766.440    817.675    -51.235    501.315    813.200    501.315    505.792    501.315
 95.370    793.000    791.304      1.696    501.116    787.224    501.116    505.201    501.116
 95.470    821.000    764.564     56.436    500.916    760.785    500.916    504.703    500.916
 95.570    781.176    739.326     41.850    500.716    735.773    500.716    504.277    500.716
 95.670    732.000    717.351     14.649    500.515    713.965    500.515    503.906    500.515
 95.770    688.257    700.229    -11.972    500.313    696.965    500.313    503.579    500.313
 95.870    713.749    689.399     24.350    500.110    686.222    500.110    503.285    500.110
 95.970    713.000    686.065     26.935    499.907    682.946    499.907    503.016    499.907
 96.070    725.000    691.225     33.775    499.703    688.143    499.703    502.767    499.703
 96.170    719.000    705.679     13.321    499.498    702.614    499.498    502.535    499.498
 96.270    676.800    729.998    -53.198    499.292    726.936    499.292    502.315    499.292
 96.370    769.000    764.486      4.514    499.086    761.413    499.086    502.107    499.086
 96.470    851.000    809.108     41.892    498.878    806.014    498.878    501.910    498.878
 96.570    839.000    863.403    -24.403    498.671    860.277    498.671    501.721    498.671
 96.670    990.000    926.390     63.610    498.462    923.224    498.462    501.542    498.462
 96.770   1019.209    996.485     22.724    498.253    993.271    498.253    501.371    498.253
 96.870   1008.104   1071.450    -63.346    498.043   1068.180    498.043    501.208    498.043
 96.970   1088.595   1148.378    -59.782    497.832   1145.047    497.832    501.054    497.832
 97.070   1216.546   1223.737     -7.191    497.621   1220.339    497.621    500.908    497.621
 97.170   1245.142   1293.488    -48.346    497.409   1290.018    497.409    500.772    497.409
 97.270   1302.977   1353.322    -50.345    497.197   1349.774    497.197    500.644    497.197
 97.370   1440.000   1399.069     40.931    496.984   1395.439    496.984    500.527    496.984
 97.470   1452.916   1427.280     25.636    496.770   1423.560    496.770    500.421    496.770
 97.570   1475.828   1435.844     39.984    496.556   1432.025    496.556    500.327    496.556
 97.670   1484.461   1424.418     60.043    496.341   1420.488    496.341    500.245    496.341
 97.770   1401.000   1394.448      6.552    496.126   1390.390    496.126    500.178    496.126
 97.870   1348.800   1348.781      0.019    495.910   1344.576    495.910    500.127    495.910
 97.970   1308.000   1291.123     16.877    495.694   1286.748    495.694    500.096    495.694
 98.070   1182.525   1225.528    -43.003    495.477   1220.955    495.477    500.088    495.477
 98.170   1170.691   1156.022     14.669    495.260   1151.219    495.260    500.108    495.260
 98.270   1074.908   1086.373    -11.465    495.042   1081.302    495.042    500.162    495.042
 98.370   1001.000   1019.948    -18.948    494.824   1014.559    494.824    500.261    494.824
 98.470    936.000    959.631    -23.631    494.606    953.865    494.606    500.416    494.606
 98.570    860.789    907.808    -47.020    494.387    901.590    494.387    500.643    494.387
 98.670    880.670    866.375     14.295    494.167    859.608    494.167    500.964    494.167
 98.770    833.641    836.787     -3.145    493.947    829.348    493.947    501.408    493.947
 98.870    852.000    820.117     31.883    493.727    811.849    493.727    502.008    493.727
 98.970    810.000    817.131     -7.131    493.507    807.831    493.507    502.809    493.507
 99.070    799.000    828.337    -29.337    493.286    817.753    493.286    503.863    493.286
 99.170    816.000    854.022    -38.022    493.065    841.839    493.065    505.232    493.065
 99.270    849.000    894.246    -45.246    492.843    880.080    492.843    506.988    492.843
 99.370    923.074    948.806    -25.732    492.621    932.193    492.621    509.206    492.621
 99.470   1014.343   1017.154     -2.811    492.399    997.551    492.399    511.971    492.399
 99.570   1103.000   1098.364      4.636    492.177   1075.147    492.177    515.363    492.177
 99.670   1157.000   1190.984    -33.984    491.954   1163.450    491.954    519.460    491.954
 99.770   1288.000   1292.969     -4.969    491.732   1260.350    491.732    524.326    491.732
 99.870   1369.229   1401.636    -32.407    491.509   1363.124    491.509    530.006    491.509
 99.970   1557.000   1513.661     43.339    491.286   1468.427    491.286    536.518    491.286
100.070   1592.000   1625.143    -33.143    491.062   1572.379    491.062    543.842    491.062
100.170   1770.000   1731.805     38.195    490.839   1670.764    490.839    551.916    490.839
100.270   1789.843   1829.306    -39.463    490.615   1759.355    490.615    560.626    490.615
100.370   1903.000   1913.630    -10.630    490.391   1834.301    490.391    569.805    490.391
100.470   2007.000   1981.402     25.598    490.168   1892.458    490.168    579.221    490.168
100.570   2119.533   2030.049     89.485    489.944   1931.542    489.944    588.583    489.944
100.670   2005.000   2057.775    -52.775    489.720   1950.115    489.720    597.532    489.720
100.770   2076.000   2063.533     12.467    489.496   1947.542    489.496    605.657    489.496
100.870   2078.642   2047.107     31.534    489.272   1924.056    489.272    612.506    489.272
100.970   1951.077   2009.355    -58.278    489.048   1880.961    489.048    617.633    489.048
101.070   1955.000   1952.433      2.567    488.824   1820.802    488.824    620.650    488.824
101.170   1918.000   1879.808     38.192    488.600   1747.299    488.600    621.302    488.600
101.270   1815.000   1795.947     19.053    488.376   1664.995    488.376    619.515    488.376
101.370   1649.616   1705.791    -56.175    488.152   1578.701    488.152    615.419    488.152
101.470   1652.741   1614.186     38.555    487.929   1492.965    487.929    609.314    487.929
101.570   1544.157   1525.424     18.733    487.705   1411.668    487.705    601.612    487.705
101.670   1504.905   1442.946     61.960    487.482   1337.796    487.482    592.767    487.482
101.770   1409.335   1369.191     40.143    487.259   1273.349    487.259    583.222    487.259
101.870   1297.000   1305.564     -8.564    487.036   1219.331    487.036    573.376    487.036
101.970   1208.177   1252.462    -44.285    486.813   1175.803    486.813    563.567    486.813
102.070   1203.000   1209.367     -6.367    486.590   1141.973    486.590    554.071    486.590
102.170   1141.000   1174.973    -33.973    486.368   1116.322    486.368    545.098    486.368
102.270   1166.252   1147.354     18.898    486.146   1096.774    486.146    536.800    486.146
102.370   1073.905   1124.176    -50.272    485.924   1080.896    485.924    529.277    485.924
102.470   1147.000   1102.957     44.043    485.702   1066.155    485.702    522.576    485.702
102.570   1071.000   1081.371    -10.371    485.481   1050.219    485.481    516.706    485.481
102.670   1020.000   1057.545    -37.545    485.260   1031.240    485.260    511.640    485.260
102.770    977.000   1030.287    -53.287    485.040   1008.076    485.040    507.327    485.040
102.870   1049.000    999.161     49.839    484.820    980.360    484.820    503.697    484.820
102.970    977.000    964.410     12.590    484.600    948.412    484.600    500.673    484.600
103.070    970.499    926.767     43.733    484.381    913.051    484.381    498.171    484.381
103.170    897.000    887.251      9.749    484.162    875.374    484.162    496.110    484.162
103.270    808.000    846.988    -38.988    483.944    836.584    483.944    494.414    483.944
103.370    856.520    807.085     49.435    483.726    797.857    483.726    493.015    483.726
103.470    813.000    768.544     44.456    483.509    760.254    483.509    491.854    483.509
103.570    755.615    732.212     23.402    483.292    724.674    483.292    490.880    483.292
103.670    671.995    698.746    -26.751    483.076    691.812    483.076    490.053    483.076
103.770    740.000    668.595     71.405    482.861    662.152    482.861    489.340    482.861
103.870    629.000    642.007    -13.007    482.646    635.968    482.646    488.715    482.646
103.970    606.909    619.039    -12.130    482.432    613.337    482.432    488.158    482.432
104.070    619.682    599.592     20.090    482.218    594.176    482.218    487.654    482.218
104.170    566.000    583.442    -17.442    482.005    578.271    482.005    487.192    482.005
104.270    556.000    570.281    -14.281    481.793    565.323    481.793    486.763    481.793
104.370    535.000    559.754    -24.754    481.582    554.984    481.582    486.362    481.582
104.470    569.000    551.498     17.502    481.371    546.893    481.371    485.983    481.371
104.570    554.731    545.156      9.575    481.162    540.699    481.162    485.623    481.162
104.670    550.000    540.404      9.596    480.953    536.079    480.953    485.279    480.953
104.770    594.000    536.958     57.042    480.745    532.753    480.745    484.951    480.745
104.870    622.000    534.608     87.392    480.537    530.508    480.537    484.635    480.537
104.970    553.769    533.175     20.594    480.331    529.172    480.331    484.331    480.331
105.070    535.000    532.541      2.459    480.126    528.624    480.126    484.039    480.126
105.170    536.000    532.634      3.366    479.921    528.794    479.921    483.756    479.921
105.270    515.717    533.430    -17.713    479.718    529.658    479.718    483.483    479.718
105.370    551.000    534.942     16.058    479.516    531.231    479.516    483.218    479.516
105.470    555.000    537.218     17.782    479.314    533.560    479.314    482.962    479.314
105.570    545.000    540.330      4.670    479.114    536.718    479.114    482.713    479.114
105.670    548.463    544.368      4.096    478.915    540.795    478.915    482.472    478.915
105.770    527.000    549.423    -22.423    478.717    545.884    478.717    482.238    478.717
105.870    557.234    555.578      1.656    478.520    552.067    478.520    482.011    478.520
105.970    565.679    562.892      2.787    478.324    559.403    478.324    481.790    478.324
106.070    565.144    571.381     -6.238    478.129    567.913    478.129    481.571    478.129
106.170    572.000    581.025     -9.025    477.936    577.568    477.936    481.363    477.936
106.270    587.000    591.733     -4.733    477.744    588.283    477.744    481.161    477.744
106.370    638.000    603.355     34.645    477.553    599.907    477.553    480.964    477.553
106.470    626.414    615.674     10.740    477.363    612.224    477.363    480.774    477.363
106.570    638.803    628.413     10.390    477.175    624.956    477.175    480.589    477.175
106.670    652.516    641.234     11.282    476.988    637.767    476.988    480.410    476.988
106.770    635.102    653.756    -18.655    476.803    650.276    476.803    480.237    476.803
106.870    619.000    665.568    -46.568    476.619    662.071    476.619    480.068    476.619
106.970    642.280    676.248    -33.967    476.437    672.739    476.437    479.897    476.437
107.070    715.586    685.429     30.157    476.256    681.898    476.256    479.739    476.256
107.170    702.672    692.804      9.868    476.076    689.247    476.076    479.588    476.076
107.270    713.062    698.199     14.863    475.898    694.612    475.898    479.443    475.898
107.370    661.000    701.607    -40.607    475.722    697.986    475.722    479.303    475.722
107.470    686.000    703.194    -17.194    475.547    699.537    475.547    479.169    475.547
107.570    718.120    703.276     14.844    475.374    699.577    475.374    479.041    475.374
107.670    723.000    702.261     20.739    475.202    698.517    475.202    478.919    475.202
107.770    664.000    700.594    -36.594    475.032    696.800    475.032    478.803    475.032
107.870    699.000    698.691      0.309    474.864    694.843    474.864    478.694    474.864
107.970    703.000    696.904      6.096    474.698    692.997    474.698    478.591    474.698
108.070    642.000    695.487    -53.487    474.534    691.516    474.534    478.495    474.534
108.170    646.000    694.584    -48.584    474.371    690.543    474.371    478.405    474.371
108.270    685.000    694.216     -9.216    474.210    690.100    474.210    478.323    474.210
108.370    603.000    694.283    -91.283    474.051    690.087    474.051    478.248    474.051
108.470    663.631    694.572    -30.941    473.894    690.290    473.894    478.181    473.894
108.570    688.000    694.776     -6.776    473.739    690.401    473.739    478.122    473.739
108.670    737.000    694.521     42.479    473.586    690.047    473.586    478.071    473.586
108.770    676.000    693.411    -17.411    473.435    688.831    473.435    478.029    473.435
108.870    735.000    691.082     43.918    473.286    686.388    473.286    477.995    473.286
108.970    683.000    687.253     -4.253    473.139    682.438    473.139    477.972    473.139
109.070    715.000    681.777     33.223    472.994    676.832    472.994    477.958    472.994
109.170    679.742    674.653      5.089    472.851    669.571    472.851    477.954    472.851
109.270    669.274    666.024      3.251    472.711    660.793    472.711    477.962    472.711
109.370    648.000    656.135     -8.135    472.573    650.747    472.573    477.981    472.573
109.470    633.033    645.303    -12.270    472.437    639.747    472.437    478.013    472.437
109.570    648.538    633.871     14.668    472.303    628.135    472.303    478.058    472.303
109.670    668.532    622.181     46.351    472.171    616.253    472.171    478.116    472.171
109.770    634.513    610.555     23.958    472.042    604.423    472.042    478.190    472.042
109.870    639.000    599.281     39.719    471.916    592.931    471.916    478.280    471.916
109.970    662.000    588.604     73.396    471.791    582.020    471.791    478.387    471.791
110.070    584.000    578.718      5.282    471.670    571.885    471.670    478.514    471.670
110.170    622.000    569.748     52.252    471.550    562.646    471.550    478.661    471.550
110.270    588.000    561.820     26.180    471.434    554.430    471.434    478.831    471.434
110.370    559.000    555.003      3.997    471.319    547.301    471.319    479.027    471.319
110.470    537.281    549.287    -12.006    471.208    541.246    471.208    479.253    471.208
110.570    523.000    544.643    -21.643    471.099    536.231    471.099    479.512    471.099
110.670    496.385    541.017    -44.633    470.992    532.199    470.992    479.811    470.992
110.770    533.000    538.339     -5.339    470.889    529.071    470.889    480.156    470.889
110.870    568.000    536.524     31.476    470.788    526.754    470.788    480.555    470.788
110.970    579.000    535.486     43.514    470.690    525.151    470.690    481.021    470.690
111.070    533.559    535.140     -1.581    470.595    524.163    470.595    481.568    470.595
111.170    535.940    535.409      0.531    470.502    523.694    470.502    482.211    470.502
111.270    536.000    536.225     -0.225    470.413    523.658    470.413    482.974    470.413
111.370    530.000    537.537     -7.537    470.326    523.973    470.326    483.882    470.326
111.470    560.000    539.306     20.694    470.243    524.572    470.243    484.969    470.243
111.570    497.000    541.513    -44.513    470.162    525.395    470.162    486.271    470.162
111.670    553.921    544.156      9.765    470.085    526.395    470.085    487.836    470.085
111.770    561.842    547.249     14.593    470.010    527.534    470.010    489.716    470.010
111.870    545.709    550.829     -5.120    469.939    528.785    469.939    491.972    469.939
111.970    615.000    554.949     60.051    469.871    530.135    469.871    494.674    469.871
112.070    599.865    559.682     40.183    469.806    531.579    469.806    497.897    469.806
112.170    606.000    565.115     40.885    469.744    533.121    469.744    501.726    469.744
112.270    538.000    571.352    -33.352    469.685    534.779    469.685    506.246    469.685
112.370    534.101    578.507    -44.405    469.630    536.577    469.630    511.548    469.630
112.470    565.000    586.702    -21.702    469.579    538.546    469.579    517.721    469.579
112.570    565.000    596.064    -31.064    469.530    540.729    469.530    524.851    469.530
112.670    585.000    606.725    -21.725    469.485    543.180    469.485    533.015    469.485
112.770    618.000    618.813     -0.813    469.444    545.967    469.444    542.275    469.444
112.870    590.000    632.463    -42.463    469.406    549.176    469.406    552.675    469.406
112.970    616.000    647.806    -31.806    469.372    552.922    469.372    564.237    469.372
113.070    619.746    664.981    -45.234    469.341    557.351    469.341    576.951    469.341
113.170    675.000    684.137     -9.137    469.314    562.657    469.314    590.772    469.314
113.270    728.108    705.446     22.662    469.290    569.095    469.290    605.617    469.290
113.370    733.199    729.110      4.089    469.271    576.994    469.271    621.359    469.271
113.470    744.000    755.384    -11.384    469.255    586.784    469.255    637.824    469.255
113.570    749.000    784.591    -35.591    469.243    599.010    469.243    654.787    469.243
113.670    818.000    817.147      0.853    469.234    614.367    469.234    671.974    469.234
113.770    843.000    853.588    -10.588    469.230    633.717    469.230    689.054    469.230
113.870    950.562    894.594     55.968    469.230    658.120    469.230    705.648    469.230
113.970    906.000    941.018    -35.018    469.233    688.858    469.233    721.326    469.233
114.070   1048.000    993.913     54.087    469.241    727.450    469.241    735.624    469.241
114.170   1070.000   1054.560     15.440    469.252    775.664    469.252    748.054    469.252
114.270   1065.240   1124.495    -59.255    469.268    835.511    469.268    758.140    469.268
114.370   1141.000   1205.526    -64.526    469.288    909.229    469.288    765.451    469.288
114.470   1322.000   1299.738     22.262    469.312    999.241    469.312    769.649    469.312
114.570   1405.976   1409.471     -3.494    469.341   1108.091    469.341    770.530    469.341
114.670   1462.008   1537.254    -75.246    469.373   1238.352    469.373    768.051    469.373
114.770   1722.000   1685.702     36.298    469.410   1392.513    469.410    762.336    469.410
114.870   1906.000   1857.348     48.652    469.452   1572.832    469.452    753.660    469.452
114.970   2195.000   2054.443    140.557    469.498   1781.173    469.498    742.413    469.498
115.070   2291.625   2278.738     12.887    469.548   2018.828    469.548    729.053    469.548
115.170   2589.205   2531.249     57.956    469.603   2286.328    469.603    714.067    469.603
115.270   2935.000   2812.046    122.954    469.662   2583.264    469.662    697.934    469.662
115.370   3145.000   3120.070     24.930    469.726   2908.130    469.726    681.104    469.726
115.470   3429.045   3452.985    -23.940    469.795   3258.186    469.795    663.983    469.795
115.570   3790.000   3807.086    -17.086    469.868   3629.373    469.868    646.926    469.868
115.670   4206.000   4177.261     28.739    469.946   4016.279    469.946    630.236    469.946
115.770   4471.000   4557.010    -86.010    470.029   4412.157    470.029    614.163    470.029
115.870   4822.000   4938.536   -116.536    470.117   4809.012    470.117    598.906    470.117
115.970   5190.000   5312.896   -122.896    470.209   5197.753    470.209    584.616    470.209
116.070   5551.000   5670.223   -119.223    470.307   5568.409    470.307    571.398    470.307
116.170   6186.000   6000.036    185.964    470.409   5910.437    470.409    559.315    470.409
116.270   6204.000   6291.649    -87.649    470.517   6213.125    470.517    548.394    470.517
116.370   6479.066   6534.700    -55.634    470.629   6466.117    470.629    538.630    470.629
116.470   6777.174   6719.810     57.364    470.747   6660.066    470.747    529.988    470.747
116.570   6880.000   6839.321     40.679    470.870   6787.365    470.870    522.416    470.870
116.670   6866.000   6888.019    -22.019    470.998   6842.867    470.998    515.843    470.998
116.770   6984.000   6863.692    120.308    471.132   6824.437    471.132    510.187    471.132
116.870   6802.000   6767.374     34.626    471.270   6733.192    471.270    505.360    471.270
116.970   6566.160   6603.204    -37.045    471.414   6573.357    471.414    501.273    471.414
117.070   6495.000   6377.952    117.048    471.564   6351.786    471.564    497.836    471.564
117.170   5871.000   6100.328   -229.328    471.719   6077.270    471.719    494.964    471.719
117.270   5666.000   5780.232   -114.232    471.880   5759.790    471.880    492.578    471.880
117.370   5496.350   5428.099     68.252    472.046   5409.850    472.046    490.605    472.046
117.470   4865.000   5054.364   -189.364    472.217   5037.952    472.217    488.979    472.217
117.570   4542.000   4668.939   -126.939    472.395   4654.064    472.395    487.644    472.395
117.670   4250.000   4280.956    -30.956    472.578   4267.369    472.578    486.550    472.578
117.770   3955.000   3898.518     56.482    472.767   3886.013    472.767    485.655    472.767
117.870   3621.000   3528.531     92.469    472.962   3516.940    472.962    484.925    472.962
117.970   3065.562   3176.617   -111.054    473.162   3165.803    473.162    484.329    473.162
118.070   2900.000   2847.086     52.914    473.369   2836.938    473.369    483.844    473.369
118.170   2635.000   2542.974     92.026    473.581   2533.401    473.581    483.451    473.581
118.270   2229.000   2266.123    -37.123    473.800   2257.053    473.800    483.133    473.800
118.370   2036.000   2017.308     18.692    474.024   2008.682    474.024    482.880    474.024
118.470   1809.000   1796.385     12.615    474.255   1788.155    474.255    482.680    474.255
118.570   1670.588   1602.451     68.137    474.492   1594.580    474.492    482.527    474.492
118.670   1370.000   1434.018    -64.018    474.735   1426.473    474.735    482.414    474.735
118.770   1341.437   1289.171     52.265    474.985   1281.927    474.985    482.336    474.985
118.870   1169.000   1165.730      3.270    475.241   1158.764    475.241    482.290    475.241
118.970   1095.000   1061.379     33.621    475.503   1054.673    475.503    482.273    475.503
119.070   1029.000    973.792     55.208    475.772    967.329    475.772    482.283    475.772
119.170    841.000    900.717    -59.717    476.047    894.481    476.047    482.317    476.047
119.270    804.701    840.049    -35.348    476.329    834.027    476.329    482.375    476.329
119.370    760.000    789.870    -29.870    476.618    784.049    476.618    482.455    476.618
119.470    751.000    748.479      2.521    476.913    742.846    476.913    482.556    476.913
119.570    736.000    714.394     21.606    477.215    708.937    477.215    482.678    477.215
119.670    686.000    686.348     -0.348    477.523    681.054    477.523    482.820    477.523
119.770    675.000    663.278     11.722    477.839    658.135    477.839    482.983    477.839
119.870    653.000    644.301      8.699    478.161    639.298    478.161    483.165    478.161
119.970    628.744    628.697      0.046    478.491    623.821    478.491    483.368    478.491
120.070    598.000    615.882    -17.882    478.827    611.119    478.827    483.590    478.827
120.170    644.041    605.387     38.654    479.171    600.725    479.171    483.834    479.171
120.270    560.919    596.840    -35.922    479.521    592.265    479.521    484.098    479.521
120.370    583.000    589.948     -6.948    479.879    585.444    479.879    484.384    479.879
120.470    570.000    584.477    -14.477    480.244    580.032    480.244    484.692    480.244
120.570    581.000    580.248      0.752    480.617    575.844    480.617    485.023    480.617
120.670    572.930    577.117     -4.187    480.996    572.740    480.996    485.377    480.996
120.770    606.000    574.974     31.026    481.384    570.606    481.384    485.756    481.384
120.870    565.000    573.730     -8.730    481.778    569.353    481.778    486.160    481.778
120.970    547.000    573.312    -26.312    482.181    568.909    482.181    486.590    482.181
121.070    592.000    573.662     18.338    482.590    569.213    482.590    487.046    482.590
121.170    567.000    574.726     -7.726    483.008    570.213    483.008    487.529    483.008
121.270    554.000    576.454    -22.454    483.433    571.857    483.433    488.039    483.433
121.370    590.000    578.796     11.204    483.866    574.097    483.866    488.576    483.866
121.470    570.000    581.701    -11.701    484.307    576.880    484.307    489.141    484.307
121.570    557.000    585.110    -28.110    484.755    580.149    484.755    489.732    484.755
121.670    578.000    588.961    -10.961    485.212    583.842    485.212    490.348    485.212
121.770    586.000    593.183     -7.183    485.677    587.889    485.677    490.989    485.677
121.870    607.000    597.694      9.306    486.149    592.213    486.149    491.653    486.149
121.970    622.000    602.409     19.591    486.630    596.727    486.630    492.337    486.630
122.070    638.000    607.231     30.769    487.119    601.338    487.119    493.039    487.119
122.170    616.947    612.056      4.891    487.616    605.946    487.616    493.756    487.616
122.270    581.000    616.777    -35.777    488.122    610.447    488.122    494.484    488.122
122.370    627.408    621.281      6.127    488.636    614.732    488.636    495.220    488.636
122.470    647.000    625.456     21.544    489.159    618.694    489.159    495.958    489.159
122.570    603.000    629.194    -26.194    489.690    622.229    489.690    496.694    489.690
122.670    611.000    632.394    -21.394    490.229    625.242    490.229    497.423    490.229
122.770    681.000    634.974     46.026    490.777    627.655    490.777    498.139    490.777
122.870    601.552    636.866    -35.314    491.334    629.409    491.334    498.836    491.334
122.970    639.684    638.031      1.653    491.900    630.467    491.900    499.509    491.900
123.070    656.000    638.454     17.546    492.474    630.819    492.474    500.154    492.474
123.170    655.465    638.144     17.320    493.058    630.482    493.058    500.765    493.058
123.270    664.000    637.139     26.861    493.650    629.492    493.650    501.342    493.650
123.370    638.778    635.494      3.284    494.251    627.904    494.251    501.884    494.251
123.470    649.000    633.276     15.724    494.862    625.788    494.862    502.392    494.862
123.570    646.000    630.564     15.436    495.481    623.218    495.481    502.866    495.481
123.670    593.121    627.441    -34.320    496.110    620.276    496.110    503.312    496.110
123.770    620.000    623.992     -3.992    496.748    617.042    496.748    503.733    496.748
123.870    630.000    620.300      9.700    497.396    613.593    497.396    504.135    497.396
123.970    640.703    616.445     24.259    498.052    610.003    498.052    504.523    498.052
124.070    585.681    612.496    -26.814    498.719    606.337    498.719    504.903    498.719
124.170    547.000    608.516    -61.516    499.395    602.654    499.395    505.280    499.395
124.270    617.000    604.559     12.441    500.080    599.000    500.080    505.660    500.080
124.370    590.000    600.665    -10.665    500.775    595.413    500.775    506.046    500.775
124.470    622.000    596.868     25.132    501.480    591.920    501.480    506.443    501.480
124.570    592.000    593.187     -1.187    502.195    588.541    502.195    506.854    502.195
124.670    594.000    589.637      4.363    502.919    585.285    502.919    507.283    502.919
124.770    573.357    586.223    -12.866    503.654    582.154    503.654    507.732    503.654
124.870    575.000    582.946     -7.946    504.398    579.148    504.398    508.203    504.398
124.970    608.000    579.802     28.198    505.153    576.262    505.153    508.698    505.153
