neutron_powder_diffraction_0145
R_wp: 4.006
Temperature (K): 1074.000
Counts: 83534.00
Wavelength (Ã…): 2.52098
COMMENTS
Test file for demonstrating the .xyy file format in Reel1.0
END OF HEADER
   tth       Y_obs     Y_calc      Y_res    Background    Phase_1_Nuc    Phase_1_Mag    Phase_2_Nuc    Phase_2_Mag
  9.970    631.000    569.513     61.487    568.719    569.439    568.719    568.793    568.719
 10.070    571.000    569.610      1.390    568.753    569.535    568.753    568.828    568.753
 10.170    575.473    569.711      5.762    568.782    569.635    568.782    568.857    568.782
 10.270    548.853    569.818    -20.965    568.806    569.743    568.806    568.881    568.806
 10.370    614.000    569.934     44.066    568.824    569.858    568.824    568.900    568.824
 10.470    588.000    570.060     17.940    568.838    569.983    568.838    568.914    568.838
 10.570    576.383    570.201      6.182    568.846    570.124    568.846    568.923    568.846
 10.670    568.000    570.363     -2.363    568.850    570.286    568.850    568.926    568.850
 10.770    523.943    570.553    -46.610    568.849    570.475    568.849    568.925    568.849
 10.870    560.280    570.780    -10.500    568.843    570.702    568.843    568.920    568.843
 10.970    608.000    571.058     36.942    568.832    570.979    568.832    568.909    568.832
 11.070    578.000    571.406      6.594    568.816    571.326    568.816    568.893    568.816
 11.170    533.578    571.852    -38.273    568.795    571.772    568.795    568.873    568.795
 11.270    573.000    572.439      0.561    568.770    572.359    568.770    568.848    568.770
 11.370    604.000    573.245     30.755    568.740    573.164    568.740    568.819    568.740
 11.470    596.000    574.439     21.561    568.706    574.356    568.706    568.785    568.706
 11.570    560.000    576.480    -16.480    568.667    576.396    568.667    568.746    568.667
 11.670    647.000    580.587     66.413    568.624    580.501    568.624    568.703    568.624
 11.770    547.691    589.381    -41.689    568.576    589.289    568.576    568.656    568.576
 11.870    560.911    606.768    -45.856    568.524    606.666    568.524    568.604    568.524
 11.970    693.000    635.429     57.571    568.467    635.312    568.467    568.548    568.467
 12.070    670.796    671.418     -0.622    568.406    671.280    568.406    568.487    568.406
 12.170    720.000    699.345     20.655    568.341    699.192    568.341    568.423    568.341
 12.270    655.000    700.184    -45.184    568.272    700.029    568.272    568.354    568.272
 12.370    610.000    673.134    -63.134    568.198    672.994    568.198    568.281    568.198
 12.470    637.696    636.884      0.812    568.121    636.763    568.121    568.203    568.121
 12.570    630.000    607.483     22.517    568.039    607.378    568.039    568.122    568.039
 12.670    580.000    589.402     -9.402    567.953    589.307    567.953    568.037    567.953
 12.770    582.000    580.138      1.862    567.864    580.047    567.864    567.948    567.864
 12.870    560.498    575.741    -15.243    567.770    575.653    567.770    567.854    567.770
 12.970    559.000    573.504    -14.504    567.673    573.416    567.673    567.758    567.673
 13.070    579.000    572.152      6.848    567.571    572.062    567.571    567.659    567.571
 13.170    545.751    571.201    -25.449    567.466    571.111    567.466    567.555    567.466
 13.270    583.118    570.473     12.645    567.357    570.383    567.357    567.446    567.357
 13.370    526.914    569.892    -42.978    567.245    569.801    567.245    567.334    567.245
 13.470    556.000    569.412    -13.412    567.129    569.321    567.129    567.218    567.129
 13.570    607.145    569.003     38.142    567.009    568.912    567.009    567.099    567.009
 13.670    597.000    568.647     28.353    566.885    568.556    566.885    566.976    566.885
 13.770    537.471    568.333    -30.862    566.758    568.241    566.758    566.849    566.758
 13.870    575.000    568.047      6.953    566.628    567.955    566.628    566.719    566.628
 13.970    557.749    567.782    -10.034    566.494    567.690    566.494    566.586    566.494
 14.070    583.000    567.535     15.465    566.356    567.442    566.356    566.449    566.356
 14.170    569.067    567.300      1.766    566.216    567.207    566.216    566.308    566.216
 14.270    591.675    567.076     24.599    566.072    566.983    566.072    566.165    566.072
 14.370    558.000    566.860     -8.860    565.924    566.766    565.924    566.018    565.924
 14.470    563.000    566.649     -3.649    565.774    566.555    565.774    565.868    565.774
 14.570    612.000    566.443     45.557    565.620    566.348    565.620    565.714    565.620
 14.670    566.000    566.241     -0.241    565.463    566.145    565.463    565.558    565.463
 14.770    588.999    566.041     22.958    565.303    565.945    565.303    565.398    565.303
 14.870    572.284    565.842      6.442    565.139    565.746    565.139    565.235    565.139
 14.970    548.000    565.644    -17.644    564.973    565.547    564.973    565.070    564.973
 15.070    597.565    565.447     32.118    564.804    565.350    564.804    564.901    564.804
 15.170    564.825    565.250     -0.425    564.632    565.152    564.632    564.729    564.632
 15.270    549.875    565.053    -15.177    564.456    564.954    564.456    564.555    564.456
 15.370    552.000    564.855    -12.855    564.278    564.756    564.278    564.377    564.278
 15.470    550.235    564.657    -14.422    564.097    564.557    564.097    564.197    564.097
 15.570    581.077    564.457     16.620    563.914    564.357    563.914    564.013    563.914
 15.670    538.000    564.256    -26.256    563.727    564.156    563.727    563.828    563.727
 15.770    561.000    564.054     -3.054    563.538    563.953    563.538    563.639    563.538
 15.870    562.000    563.851     -1.851    563.346    563.749    563.346    563.447    563.346
 15.970    551.000    563.646    -12.646    563.151    563.544    563.151    563.253    563.151
 16.070    562.443    563.439     -0.996    562.954    563.337    562.954    563.057    562.954
 16.170    558.000    563.232     -5.232    562.754    563.128    562.754    562.858    562.754
 16.270    578.000    563.024     14.976    562.552    562.920    562.552    562.656    562.552
 16.370    533.373    562.813    -29.440    562.347    562.709    562.347    562.452    562.347
 16.470    522.860    562.600    -39.740    562.140    562.495    562.140    562.245    562.140
 16.570    582.000    562.385     19.615    561.930    562.279    561.930    562.036    561.930
 16.670    569.517    562.169      7.349    561.718    562.062    561.718    561.824    561.718
 16.770    507.000    561.950    -54.950    561.503    561.843    561.503    561.611    561.503
 16.870    546.170    561.730    -15.560    561.287    561.623    561.287    561.394    561.287
 16.970    544.000    561.509    -17.509    561.067    561.400    561.067    561.176    561.067
 17.070    568.000    561.285      6.715    560.846    561.176    560.846    560.955    560.846
 17.170    571.000    561.059      9.941    560.622    560.950    560.622    560.732    560.622
 17.270    517.000    560.832    -43.832    560.397    560.722    560.397    560.507    560.397
 17.370    582.000    560.604     21.396    560.169    560.493    560.169    560.280    560.169
 17.470    555.877    560.373     -4.496    559.939    560.261    559.939    560.051    559.939
 17.570    576.000    560.141     15.859    559.707    560.029    559.707    559.819    559.707
 17.670    585.000    559.908     25.092    559.472    559.795    559.472    559.586    559.472
 17.770    530.854    559.673    -28.819    559.236    559.559    559.236    559.350    559.236
 17.870    533.000    559.436    -26.436    558.998    559.321    558.998    559.113    558.998
 17.970    551.259    559.197     -7.938    558.758    559.082    558.758    558.874    558.758
 18.070    584.684    558.957     25.727    558.516    558.840    558.516    558.633    558.516
 18.170    572.000    558.715     13.285    558.272    558.597    558.272    558.390    558.272
 18.270    558.648    558.471      0.177    558.027    558.353    558.027    558.145    558.027
 18.370    530.000    558.226    -28.226    557.779    558.107    557.779    557.898    557.779
 18.470    569.000    557.980     11.020    557.530    557.860    557.530    557.650    557.530
 18.570    581.000    557.732     23.268    557.279    557.611    557.279    557.399    557.279
 18.670    586.184    557.484     28.700    557.026    557.362    557.026    557.148    557.026
 18.770    571.277    557.247     14.030    556.772    557.124    556.772    556.894    556.772
 18.870    534.000    557.005    -23.005    556.516    556.882    556.516    556.639    556.516
 18.970    535.215    556.753    -21.539    556.258    556.629    556.258    556.382    556.258
 19.070    567.124    556.499     10.625    555.999    556.373    555.999    556.124    555.999
 19.170    508.964    556.243    -47.279    555.738    556.117    555.738    555.864    555.738
 19.270    550.000    555.986     -5.986    555.476    555.859    555.476    555.603    555.476
 19.370    592.000    555.728     36.272    555.212    555.600    555.212    555.340    555.212
 19.470    535.000    555.469    -20.469    554.947    555.340    554.947    555.076    554.947
 19.570    517.000    555.209    -38.209    554.680    555.079    554.680    554.811    554.680
 19.670    555.350    554.948      0.402    554.412    554.817    554.412    554.544    554.412
 19.770    510.000    554.686    -44.686    554.143    554.554    554.143    554.275    554.143
 19.870    526.000    554.423    -28.423    553.872    554.290    553.872    554.006    553.872
 19.970    523.000    554.160    -31.160    553.600    554.025    553.600    553.735    553.600
 20.070    566.770    553.895     12.875    553.327    553.759    553.327    553.463    553.327
 20.170    519.000    553.630    -34.630    553.052    553.492    553.052    553.189    553.052
 20.270    594.091    553.364     40.727    552.776    553.225    552.776    552.915    552.776
 20.370    567.000    553.106     13.894    552.499    552.966    552.499    552.639    552.499
 20.470    515.000    552.925    -37.925    552.221    552.784    552.221    552.363    552.221
 20.570    554.000    552.680      1.320    551.942    552.537    551.942    552.085    551.942
 20.670    542.000    552.414    -10.414    551.662    552.270    551.662    551.806    551.662
 20.770    533.000    552.146    -19.146    551.380    552.000    551.380    551.526    551.380
 20.870    541.000    551.877    -10.877    551.098    551.731    551.098    551.245    551.098
 20.970    575.000    551.609     23.391    550.815    551.461    550.815    550.963    550.815
 21.070    549.000    551.341     -2.341    550.530    551.191    550.530    550.680    550.530
 21.170    511.000    551.075    -40.075    550.245    550.923    550.245    550.396    550.245
 21.270    556.000    550.811      5.189    549.959    550.658    549.959    550.112    549.959
 21.370    538.000    550.547    -12.547    549.672    550.392    549.672    549.826    549.672
 21.470    552.000    550.280      1.720    549.384    550.123    549.384    549.540    549.384
 21.570    577.000    550.013     26.987    549.095    549.855    549.095    549.253    549.095
 21.670    549.000    549.754     -0.754    548.805    549.594    548.805    548.965    548.805
 21.770    534.000    549.557    -15.557    548.515    549.395    548.515    548.676    548.515
 21.870    552.193    549.341      2.852    548.223    549.177    548.223    548.387    548.223
 21.970    546.000    549.084     -3.084    547.932    548.918    547.932    548.097    547.932
 22.070    576.859    548.825     28.034    547.639    548.657    547.639    547.807    547.639
 22.170    595.000    548.568     46.432    547.346    548.398    547.346    547.515    547.346
 22.270    547.015    548.314     -1.299    547.052    548.142    547.052    547.224    547.052
 22.370    511.000    548.063    -37.063    546.757    547.889    546.757    546.931    546.757
 22.470    564.000    547.816     16.184    546.462    547.640    546.462    546.638    546.462
 22.570    517.000    547.574    -30.574    546.166    547.396    546.166    546.345    546.166
 22.670    520.484    547.338    -26.854    545.870    547.157    545.870    546.051    545.870
 22.770    534.503    547.108    -12.606    545.573    546.924    545.573    545.757    545.573
 22.870    568.000    546.887     21.113    545.275    546.700    545.275    545.462    545.275
 22.970    558.000    546.675     11.325    544.978    546.486    544.978    545.167    544.978
 23.070    569.000    546.477     22.523    544.679    546.285    544.679    544.872    544.679
 23.170    561.000    546.294     14.706    544.381    546.099    544.381    544.576    544.381
 23.270    537.000    546.131     -9.131    544.081    545.933    544.081    544.280    544.081
 23.370    566.877    545.992     20.885    543.782    545.791    543.782    543.984    543.782
 23.470    507.000    545.885    -38.885    543.482    545.680    543.482    543.687    543.482
 23.570    554.000    545.820      8.180    543.182    545.612    543.182    543.391    543.182
 23.670    576.000    545.811     30.189    542.881    545.600    542.881    543.094    542.881
 23.770    531.351    545.881    -14.530    542.581    545.666    542.581    542.797    542.581
 23.870    587.070    546.067     41.004    542.280    545.848    542.280    542.500    542.280
 23.970    526.925    546.432    -19.507    541.978    546.210    541.978    542.203    541.978
 24.070    544.499    547.121     -2.622    541.677    546.895    541.677    541.906    541.677
 24.170    546.567    548.549     -1.982    541.375    548.320    541.375    541.609    541.375
 24.270    565.000    551.722     13.278    541.073    551.490    541.073    541.312    541.073
 24.370    564.652    558.552      6.100    540.771    558.320    540.771    541.015    540.771
 24.470    559.405    571.462    -12.057    540.469    571.234    540.469    540.718    540.469
 24.570    548.324    591.289    -42.965    540.167    591.070    540.167    540.422    540.167
 24.670    593.888    614.088    -20.200    539.865    613.880    539.865    540.126    539.865
 24.770    632.768    628.974      3.794    539.562    628.771    539.562    539.830    539.562
 24.870    592.000    625.329    -33.329    539.260    625.117    539.260    539.534    539.260
 24.970    557.000    606.018    -49.018    538.958    605.785    538.958    539.238    538.958
 25.070    582.247    583.004     -0.756    538.655    582.746    538.655    538.944    538.655
 25.170    539.000    564.882    -25.882    538.353    564.603    538.353    538.649    538.353
 25.270    543.850    553.691     -9.842    538.051    553.397    538.051    538.355    538.051
 25.370    575.264    547.771     27.493    537.748    547.463    537.748    538.062    537.748
 25.470    543.000    544.824     -1.824    537.446    544.504    537.446    537.769    537.446
 25.570    565.461    543.230     22.231    537.144    542.899    537.144    537.478    537.144
 25.670    561.000    542.194     18.806    536.842    541.852    536.842    537.187    536.842
 25.770    552.000    541.433     10.567    536.540    541.079    536.540    536.897    536.540
 25.870    557.000    540.834     16.166    536.239    540.467    536.239    536.608    536.239
 25.970    576.926    540.347     36.579    535.937    539.966    535.937    536.320    535.937
 26.070    513.190    539.945    -26.755    535.636    539.548    535.636    536.034    535.636
 26.170    575.253    539.612     35.641    535.335    539.200    535.335    535.749    535.335
 26.270    501.520    539.350    -37.830    535.035    538.920    535.035    535.465    535.035
 26.370    519.541    539.156    -19.614    534.734    538.707    534.734    535.183    534.734
 26.470    521.317    538.991    -17.674    534.434    538.521    534.434    534.904    534.434
 26.570    562.000    538.877     23.123    534.134    538.386    534.134    534.626    534.134
 26.670    510.886    538.823    -27.938    533.835    538.307    533.835    534.351    533.835
 26.770    563.000    538.836     24.164    533.535    538.293    533.535    534.079    533.535
 26.870    534.667    538.929     -4.262    533.237    538.356    533.237    533.809    533.237
 26.970    543.000    539.124      3.876    532.938    538.518    532.938    533.544    532.938
 27.070    518.000    539.450    -21.450    532.640    538.807    532.640    533.282    532.640
 27.170    552.000    539.934     12.066    532.343    539.251    532.343    533.025    532.343
 27.270    530.000    540.625    -10.625    532.045    539.897    532.045    532.773    532.045
 27.370    557.000    541.619     15.381    531.749    540.839    531.749    532.527    531.749
 27.470    528.000    543.080    -15.080    531.452    542.243    531.452    532.288    531.452
 27.570    565.000    545.426     19.574    531.157    544.523    531.157    532.058    531.157
 27.670    522.000    550.098    -28.098    530.861    549.119    530.861    531.837    530.861
 27.770    520.119    561.885    -41.766    530.567    560.817    530.567    531.628    530.567
 27.870    611.000    592.482     18.518    530.272    591.304    530.272    531.432    530.272
 27.970    628.184    659.395    -31.211    529.979    658.081    529.979    531.254    529.979
 28.070    782.000    769.530     12.470    529.686    768.051    529.686    531.096    529.686
 28.170    904.000    891.561     12.439    529.393    889.895    529.393    530.964    529.393
 28.270    967.725    951.647     16.078    529.101    949.791    529.101    530.865    529.101
 28.370    960.000    901.384     58.616    528.810    899.325    528.810    530.810    528.810
 28.470    796.000    792.539      3.461    528.519    790.220    528.519    530.815    528.519
 28.570    715.211    707.768      7.443    528.229    705.086    528.229    530.902    528.229
 28.670    710.554    689.753     20.801    527.940    686.578    527.940    531.102    527.940
 28.770    726.000    733.621     -7.621    527.651    729.795    527.651    531.460    527.651
 28.870    775.220    800.069    -24.849    527.363    795.390    527.363    532.031    527.363
 28.970    806.000    831.295    -25.295    527.076    825.495    527.076    532.880    527.076
 29.070    831.027    793.200     37.827    526.790    785.930    526.790    534.074    526.790
 29.170    698.000    714.938    -16.938    526.504    705.790    526.504    535.666    526.504
 29.270    616.000    641.937    -25.937    526.219    630.495    526.219    537.669    526.219
 29.370    626.398    595.088     31.310    525.935    581.036    525.935    539.990    525.935
 29.470    569.121    572.380     -3.259    525.651    555.692    525.651    542.340    525.651
 29.570    571.000    563.301      7.699    525.369    544.505    525.369    544.164    525.369
 29.670    577.565    559.216     18.349    525.087    539.510    525.087    544.791    525.087
 29.770    569.000    555.906     13.094    524.806    536.846    524.806    543.864    524.806
 29.870    593.684    552.255     41.428    524.526    535.132    524.526    541.647    524.526
 29.970    595.002    548.484     46.518    524.247    533.939    524.247    538.790    524.247
 30.070    556.793    545.045     11.748    523.968    533.131    523.968    535.880    523.968
 30.170    545.000    542.248      2.752    523.691    532.685    523.691    533.251    523.691
 30.270    581.467    540.339     41.129    523.414    532.726    523.414    531.023    523.414
 30.370    575.000    539.789     35.211    523.138    533.723    523.138    529.201    523.138
 30.470    563.000    541.736     21.264    522.864    536.859    522.864    527.734    522.864
 30.570    553.856    548.223      5.632    522.590    544.244    522.590    526.557    522.590
 30.670    576.000    561.378     14.622    522.317    558.067    522.317    525.605    522.317
 30.770    607.000    580.901     26.099    522.045    578.090    522.045    524.819    522.045
 30.870    631.000    600.983     30.017    521.774    598.551    521.774    524.155    521.774
 30.970    644.242    610.074     34.168    521.504    607.945    521.504    523.579    521.504
 31.070    600.154    600.566     -0.411    521.235    598.691    521.235    523.066    521.235
 31.170    566.000    579.505    -13.505    520.967    577.843    520.967    522.599    520.967
 31.270    585.944    558.432     27.512    520.700    556.948    520.700    522.169    520.700
 31.370    590.000    543.401     46.599    520.434    542.062    520.434    521.765    520.434
 31.470    511.159    534.852    -23.693    520.170    533.634    520.170    521.384    520.170
 31.570    551.000    530.646     20.354    519.906    529.528    519.906    521.020    519.906
 31.670    554.000    528.626     25.374    519.643    527.595    519.643    520.672    519.643
 31.770    550.000    527.537     22.463    519.382    526.581    519.382    520.336    519.382
 31.870    550.000    526.848     23.152    519.121    525.957    519.121    520.011    519.121
 31.970    481.615    526.372    -44.757    518.862    525.538    518.862    519.694    518.862
 32.070    522.238    526.045     -3.807    518.603    525.261    518.603    519.386    518.603
 32.170    556.733    525.842     30.892    518.346    525.102    518.346    519.085    518.346
 32.270    562.254    525.753     36.500    518.090    525.053    518.090    518.789    518.090
 32.370    539.000    525.780     13.220    517.835    525.115    517.835    518.499    517.835
 32.470    495.238    525.932    -30.694    517.581    525.298    517.581    518.214    517.581
 32.570    541.000    526.225     14.775    517.329    525.619    517.329    517.934    517.329
 32.670    540.000    526.686     13.314    517.078    526.106    517.078    517.657    517.078
 32.770    532.000    527.356      4.644    516.827    526.798    516.827    517.384    516.827
 32.870    550.000    528.292     21.708    516.578    527.754    516.578    517.114    516.578
 32.970    544.000    529.581     14.419    516.331    529.062    516.331    516.848    516.331
 33.070    530.000    531.359     -1.359    516.084    530.857    516.084    516.584    516.084
 33.170    563.000    533.877     29.123    515.839    533.391    515.839    516.324    515.839
 33.270    514.097    537.720    -23.623    515.595    537.247    515.595    516.066    515.595
 33.370    497.773    544.443    -46.670    515.352    543.981    515.352    515.810    515.352
 33.470    571.175    557.971     13.204    515.110    557.519    515.110    515.557    515.110
 33.570    617.000    586.437     30.563    514.870    585.990    514.870    515.306    514.870
 33.670    640.509    642.111     -1.602    514.631    641.665    514.631    515.057    514.631
 33.770    734.000    735.420     -1.420    514.393    734.968    514.393    514.810    514.393
 33.870    935.000    861.802     73.198    514.156    861.344    514.156    514.565    514.156
 33.970    984.000    987.219     -3.219    513.921    986.759    513.921    514.323    513.921
 34.070   1009.934   1048.353    -38.419    513.687   1047.910    513.687    514.082    513.687
 34.170    998.000   1002.458     -4.458    513.455   1002.046    513.455    513.843    513.455
 34.270    914.000    883.004     30.996    513.223    882.620    513.223    513.606    513.223
 34.370    681.000    753.640    -72.640    512.993    753.271    512.993    513.371    512.993
 34.470    642.000    653.627    -11.627    512.765    653.264    512.765    513.137    512.765
 34.570    586.000    591.616     -5.616    512.538    591.254    512.538    512.906    512.538
 34.670    585.168    558.804     26.364    512.312    558.442    512.312    512.676    512.312
 34.770    517.000    542.768    -25.768    512.087    542.409    512.087    512.448    512.087
 34.870    517.869    534.639    -16.770    511.864    534.282    511.864    512.221    511.864
 34.970    545.947    529.887     16.060    511.642    529.533    511.642    511.996    511.642
 35.070    555.000    526.651     28.349    511.422    526.300    511.422    511.773    511.422
 35.170    541.000    524.229     16.771    511.203    523.879    511.203    511.552    511.203
 35.270    556.177    522.323     33.854    510.985    521.976    510.985    511.332    510.985
 35.370    502.875    520.781    -17.906    510.769    520.436    510.769    511.114    510.769
 35.470    545.000    519.507     25.493    510.554    519.163    510.554    510.897    510.554
 35.570    513.000    518.436     -5.436    510.341    518.094    510.341    510.682    510.341
 35.670    527.222    517.523      9.699    510.129    517.182    510.129    510.469    510.129
 35.770    517.000    516.733      0.267    509.918    516.393    509.918    510.257    509.918
 35.870    514.597    516.042     -1.445    509.709    515.703    509.709    510.047    509.709
 35.970    517.000    515.431      1.569    509.501    515.094    509.501    509.839    509.501
 36.070    552.021    514.888     37.134    509.295    514.551    509.295    509.632    509.295
 36.170    522.019    514.401      7.618    509.090    514.064    509.090    509.427    509.090
 36.270    484.701    513.963    -29.263    508.887    513.627    508.887    509.223    508.887
 36.370    496.000    513.570    -17.570    508.685    513.233    508.685    509.021    508.685
 36.470    481.516    513.216    -31.701    508.484    512.880    508.484    508.821    508.484
 36.570    522.329    512.903      9.427    508.286    512.566    508.286    508.622    508.286
 36.670    536.000    512.630     23.370    508.088    512.293    508.088    508.425    508.088
 36.770    476.210    512.406    -36.196    507.892    512.069    507.892    508.229    507.892
 36.870    465.581    512.254    -46.673    507.698    511.916    507.698    508.035    507.698
 36.970    470.765    512.231    -41.467    507.505    511.893    507.505    507.843    507.505
 37.070    526.103    512.465     13.638    507.313    512.126    507.313    507.652    507.313
 37.170    508.144    513.183     -5.040    507.123    512.844    507.123    507.463    507.123
 37.270    497.000    514.684    -17.684    506.935    514.344    506.935    507.276    506.935
 37.370    537.296    517.188     20.107    506.748    516.847    506.748    507.090    506.748
 37.470    521.000    520.568      0.432    506.562    520.226    506.562    506.906    506.562
 37.570    541.000    524.057     16.943    506.378    523.715    506.378    506.723    506.378
 37.670    500.000    526.223    -26.223    506.196    525.881    506.196    506.542    506.196
 37.770    492.000    525.879    -33.879    506.015    525.537    506.015    506.363    506.015
 37.870    554.643    523.322     31.321    505.836    522.981    505.836    506.185    505.836
 37.970    511.000    519.855     -8.855    505.658    519.513    505.658    506.009    505.658
 38.070    555.170    516.511     38.658    505.481    516.168    505.481    505.835    505.481
 38.170    520.000    513.738      6.262    505.307    513.391    505.307    505.662    505.307
 38.270    527.000    511.660     15.340    505.133    511.310    505.133    505.491    505.133
 38.370    455.000    510.223    -55.223    504.962    509.867    504.962    505.322    504.962
 38.470    511.000    509.269      1.731    504.792    508.909    504.792    505.154    504.792
 38.570    485.000    508.637    -23.637    504.623    508.273    504.623    504.988    504.623
 38.670    507.000    508.201     -1.201    504.456    507.835    504.456    504.823    504.456
 38.770    482.349    507.877    -25.528    504.291    507.508    504.291    504.661    504.291
 38.870    469.000    507.614    -38.614    504.127    507.242    504.127    504.500    504.127
 38.970    504.000    507.386     -3.386    503.965    507.011    503.965    504.340    503.965
 39.070    488.000    507.180    -19.180    503.804    506.802    503.804    504.182    503.804
 39.170    539.000    506.992     32.008    503.645    506.610    503.645    504.026    503.645
 39.270    544.541    506.816     37.725    503.487    506.432    503.487    503.872    503.487
 39.370    540.313    506.652     33.661    503.331    506.264    503.331    503.719    503.331
 39.470    498.395    506.498     -8.103    503.177    506.107    503.177    503.568    503.177
 39.570    508.000    506.353      1.647    503.024    505.958    503.024    503.419    503.024
 39.670    555.000    506.217     48.783    502.872    505.819    502.872    503.271    502.872
 39.770    496.000    506.089    -10.089    502.723    505.687    502.723    503.125    502.723
 39.870    479.000    505.970    -26.970    502.575    505.564    502.575    502.981    502.575
 39.970    462.105    505.859    -43.754    502.428    505.449    502.428    502.839    502.428
 40.070    526.000    505.757     20.243    502.283    505.343    502.283    502.698    502.283
 40.170    542.182    505.664     36.518    502.140    505.245    502.140    502.559    502.140
 40.270    476.000    505.581    -29.581    501.998    505.158    501.998    502.422    501.998
 40.370    496.000    505.508     -9.508    501.858    505.080    501.858    502.286    501.858
 40.470    476.000    505.447    -29.447    501.719    505.014    501.719    502.152    501.719
 40.570    518.000    505.399     12.601    501.582    504.961    501.582    502.020    501.582
 40.670    487.000    505.365    -18.365    501.447    504.923    501.447    501.890    501.447
 40.770    500.000    505.349     -5.349    501.313    504.901    501.313    501.761    501.313
 40.870    469.000    505.353    -36.353    501.181    504.900    501.181    501.635    501.181
 40.970    496.000    505.380     -9.380    501.050    504.921    501.050    501.510    501.050
 41.070    460.000    505.436    -45.436    500.921    504.972    500.921    501.386    500.921
 41.170    539.624    505.527     34.097    500.794    505.057    500.794    501.265    500.794
 41.270    543.941    505.661     38.280    500.668    505.185    500.668    501.145    500.668
 41.370    548.770    505.852     42.919    500.544    505.369    500.544    501.027    500.544
 41.470    534.548    506.114     28.434    500.421    505.625    500.421    500.911    500.421
 41.570    519.000    506.476     12.524    500.300    505.981    500.300    500.797    500.300
 41.670    520.000    506.987     13.013    500.181    506.485    500.181    500.685    500.181
 41.770    503.000    507.757     -4.757    500.063    507.248    500.063    500.574    500.063
 41.870    522.000    509.046     12.954    499.947    508.530    499.947    500.465    499.947
 41.970    506.000    511.422     -5.422    499.832    510.900    499.832    500.359    499.832
 42.070    509.000    515.968     -6.968    499.719    515.439    499.719    500.254    499.719
 42.170    493.000    524.327    -31.327    499.608    523.794    499.608    500.151    499.608
 42.270    519.000    538.282    -19.282    499.498    537.748    499.498    500.049    499.498
 42.370    516.000    558.635    -42.635    499.390    558.101    499.390    499.950    499.390
 42.470    595.000    583.612     11.388    499.283    583.083    499.283    499.853    499.283
 42.570    577.000    607.485    -30.485    499.178    606.960    499.178    499.757    499.178
 42.670    617.609    621.073     -3.463    499.075    620.547    499.075    499.664    499.075
 42.770    598.000    617.403    -19.403    498.973    616.868    498.973    499.572    498.973
 42.870    570.000    598.594    -28.594    498.873    598.040    498.873    499.483    498.873
 42.970    533.282    573.358    -40.076    498.774    572.780    498.774    499.395    498.774
 43.070    524.000    549.714    -25.714    498.677    549.111    498.677    499.310    498.677
 43.170    516.000    531.736    -15.736    498.581    531.110    498.581    499.226    498.581
 43.270    529.000    520.016      8.984    498.487    519.370    498.487    499.145    498.487
 43.370    509.290    513.220     -3.930    498.395    512.556    498.395    499.066    498.395
 43.470    537.000    509.546     27.454    498.304    508.866    498.304    498.989    498.304
 43.570    526.658    507.562     19.096    498.215    506.867    498.215    498.914    498.215
 43.670    497.000    506.407     -9.407    498.127    505.696    498.127    498.841    498.127
 43.770    516.367    505.652     10.715    498.041    504.925    498.041    498.771    498.041
 43.870    523.610    505.108     18.502    497.957    504.364    497.957    498.702    497.957
 43.970    501.913    504.693     -2.780    497.874    503.932    497.874    498.637    497.874
 44.070    519.825    504.368     15.457    497.793    503.588    497.793    498.573    497.793
 44.170    521.000    504.110     16.890    497.713    503.312    497.713    498.512    497.713
 44.270    531.000    503.906     27.094    497.635    503.089    497.635    498.454    497.635
 44.370    474.000    503.746    -29.746    497.558    502.907    497.558    498.398    497.558
 44.470    505.000    503.622      1.378    497.483    502.761    497.483    498.344    497.483
 44.570    503.000    503.528     -0.528    497.410    502.645    497.410    498.294    497.410
 44.670    477.000    503.461    -26.461    497.338    502.553    497.338    498.246    497.338
 44.770    467.111    503.417    -36.306    497.267    502.484    497.267    498.201    497.267
 44.870    526.000    503.395     22.605    497.199    502.435    497.199    498.159    497.199
 44.970    469.033    503.392    -34.359    497.131    502.404    497.131    498.120    497.131
 45.070    508.479    503.409      5.070    497.066    502.391    497.066    498.084    497.066
 45.170    489.000    503.444    -14.444    497.001    502.394    497.001    498.052    497.001
 45.270    478.039    503.497    -25.458    496.939    502.413    496.939    498.023    496.939
 45.370    466.245    503.569    -37.324    496.878    502.449    496.878    497.998    496.878
 45.470    458.180    503.659    -45.479    496.818    502.500    496.818    497.977    496.818
 45.570    514.000    503.769     10.231    496.760    502.569    496.760    497.959    496.760
 45.670    476.234    503.899    -27.664    496.703    502.655    496.703    497.947    496.703
 45.770    520.426    504.051     16.375    496.648    502.761    496.648    497.939    496.648
 45.870    516.000    504.227     11.773    496.595    502.887    496.595    497.935    496.595
 45.970    542.016    504.430     37.585    496.543    503.035    496.543    497.938    496.543
 46.070    513.000    504.663      8.337    496.493    503.209    496.493    497.945    496.493
 46.170    474.000    504.929    -30.929    496.444    503.412    496.444    497.960    496.444
 46.270    516.000    505.233     10.767    496.396    503.648    496.396    497.980    496.396
 46.370    540.000    505.582     34.418    496.350    503.923    496.350    498.008    496.350
 46.470    521.462    505.984     15.478    496.306    504.244    496.306    498.045    496.306
 46.570    498.000    506.450     -8.450    496.263    504.622    496.263    498.090    496.263
 46.670    545.000    506.999     38.001    496.221    505.074    496.221    498.144    496.221
 46.770    495.000    507.659    -12.659    496.181    505.628    496.181    498.210    496.181
 46.870    471.129    508.493    -37.364    496.143    506.346    496.143    498.288    496.143
 46.970    496.000    509.636    -13.636    496.106    507.359    496.106    498.380    496.106
 47.070    480.991    511.365    -30.374    496.070    508.944    496.070    498.487    496.070
 47.170    507.000    514.191     -7.191    496.036    511.610    496.036    498.612    496.036
 47.270    530.000    518.903     11.097    496.003    516.140    496.003    498.758    496.003
 47.370    523.000    526.444     -3.444    495.972    523.475    495.972    498.927    495.972
 47.470    516.000    537.515    -21.515    495.942    534.312    495.942    499.123    495.942
 47.570    591.000    551.940     39.060    495.914    548.470    495.914    499.352    495.914
 47.670    520.599    567.996    -47.397    495.887    564.220    495.887    499.619    495.887
 47.770    594.000    582.018     11.982    495.862    577.894    495.862    499.933    495.862
 47.870    590.000    589.155      0.845    495.838    584.633    495.838    500.304    495.838
 47.970    589.000    586.549      2.451    495.815    581.564    495.815    500.749    495.815
 48.070    608.000    576.153     31.847    495.794    570.617    495.794    501.288    495.794
 48.170    560.000    562.738     -2.738    495.774    556.527    495.774    501.955    495.774
 48.270    525.000    550.433    -25.433    495.756    543.372    495.756    502.795    495.756
 48.370    546.000    541.527      4.473    495.739    533.377    495.739    503.875    495.739
 48.470    524.000    536.662    -12.662    495.723    527.091    495.723    505.286    495.723
 48.570    506.000    535.475    -29.475    495.709    524.034    495.709    507.144    495.709
 48.670    535.000    537.259     -2.259    495.696    523.355    495.696    509.596    495.696
 48.770    535.949    541.423     -5.474    495.685    524.301    495.685    512.803    495.685
 48.870    506.000    547.672    -41.672    495.675    526.418    495.675    516.925    495.675
 48.970    547.000    555.990     -8.990    495.666    529.564    495.666    522.088    495.666
 49.070    533.000    566.597    -33.597    495.659    533.915    495.659    528.336    495.659
 49.170    600.681    580.072     20.609    495.653    540.167    495.653    535.552    495.653
 49.270    598.592    597.913      0.679    495.649    550.210    495.649    543.342    495.649
 49.370    665.000    623.972     41.028    495.646    568.706    495.646    550.897    495.646
 49.470    686.859    667.099     19.761    495.644    605.778    495.644    556.939    495.644
 49.570    744.000    744.339     -0.339    495.643    679.909    495.643    560.027    495.643
 49.670    894.088    881.664     12.424    495.644    817.960    495.644    559.271    495.644
 49.770   1167.120   1106.905     60.214    495.646   1047.519    495.646    554.915    495.646
 49.870   1423.469   1431.787     -8.318    495.650   1379.126    495.650    548.158    495.650
 49.970   1852.431   1828.598     23.833    495.654   1783.660    495.654    540.429    495.654
 50.070   2237.000   2215.790     21.210    495.660   2178.496    495.660    532.829    495.660
 50.170   2458.210   2470.891    -12.681    495.668   2440.537    495.668    525.991    495.668
 50.270   2494.000   2488.531      5.469    495.677   2464.107    495.677    520.187    495.677
 50.370   2214.025   2258.522    -44.497    495.686   2238.920    495.686    515.463    495.686
 50.470   1745.000   1876.016   -131.016    495.698   1860.180    495.698    511.738    495.698
 50.570   1412.000   1467.856    -55.856    495.710   1454.883    495.710    508.868    495.710
 50.670   1190.870   1125.868     65.002    495.724   1115.043    495.724    506.691    495.724
 50.770    829.000    887.374    -58.374    495.739    878.164    495.739    505.048    495.739
 50.870    724.000    745.740    -21.740    495.755    737.757    495.755    503.806    495.755
 50.970    722.229    672.484     49.746    495.773    665.449    495.773    502.857    495.773
 51.070    671.000    636.850     34.150    495.792    630.563    495.792    502.120    495.792
 51.170    658.000    616.462     41.538    495.812    610.771    495.812    501.538    495.812
 51.270    557.000    599.928    -42.928    495.833    594.721    495.833    501.069    495.833
 51.370    609.000    584.136     24.864    495.855    579.328    495.855    500.687    495.855
 51.470    591.000    569.661     21.339    495.879    565.185    495.879    500.372    495.879
 51.570    539.000    557.632    -18.632    495.904    553.438    495.904    500.111    495.904
 51.670    516.767    548.618    -31.851    495.930    544.663    495.930    499.894    495.930
 51.770    556.000    542.521     13.479    495.957    538.771    495.957    499.713    495.957
 51.870    545.000    538.823      6.177    495.985    535.250    495.985    499.563    495.985
 51.970    555.000    536.906     18.094    496.015    533.484    496.015    499.440    496.015
 52.070    562.920    536.273     26.648    496.046    532.981    496.046    499.340    496.046
 52.170    564.673    536.654     28.019    496.078    533.473    496.078    499.261    496.078
 52.270    544.000    538.024      5.976    496.111    534.938    496.111    499.199    496.111
 52.370    612.000    540.650     71.350    496.145    537.643    496.145    499.153    496.145
 52.470    565.788    545.252     20.536    496.180    542.312    496.180    499.122    496.180
 52.570    506.918    553.354    -46.436    496.217    550.469    496.217    499.103    496.217
 52.670    586.000    567.763     18.237    496.254    564.921    496.254    499.097    496.254
 52.770    600.000    592.955      7.045    496.293    590.146    496.293    499.101    496.293
 52.870    618.551    634.878    -16.327    496.333    632.094    496.333    499.115    496.333
 52.970    666.000    699.587    -33.587    496.374    696.819    496.374    499.139    496.374
 53.070    769.964    790.437    -20.473    496.416    787.678    496.416    499.172    496.416
 53.170    863.025    904.366    -41.341    496.459    901.611    496.459    499.214    496.459
 53.270   1069.000   1028.386     40.614    496.503   1025.631    496.503    499.263    496.503
 53.370   1157.572   1137.907     19.665    496.548   1135.149    496.548    499.321    496.548
 53.470   1198.972   1201.032     -2.059    496.594   1198.267    496.594    499.387    496.594
 53.570   1161.000   1194.440    -33.440    496.642   1191.660    496.642    499.460    496.642
 53.670   1053.000   1121.063    -68.063    496.690   1118.257    496.690    499.541    496.690
 53.770    976.000   1007.374    -31.374    496.739   1004.529    496.739    499.629    496.739
 53.870    854.441    884.523    -30.081    496.790    881.625    496.790    499.725    496.790
 53.970    744.000    774.954    -30.954    496.841    771.995    496.841    499.829    496.841
 54.070    706.000    689.625     16.375    496.894    686.599    496.894    499.941    496.894
 54.170    653.000    630.145     22.855    496.947    627.045    496.947    500.061    496.947
 54.270    609.000    592.421     16.579    497.001    589.242    497.001    500.189    497.001
 54.370    533.016    570.273    -37.257    497.057    567.009    497.057    500.326    497.057
 54.470    534.883    557.976    -23.093    497.113    554.620    497.113    500.473    497.113
 54.570    549.000    551.372     -2.372    497.171    547.916    497.171    500.629    497.171
 54.670    551.000    547.921      3.079    497.229    544.356    497.229    500.796    497.229
 54.770    567.000    546.263     20.737    497.288    542.579    497.288    500.974    497.288
 54.870    553.000    545.745      7.255    497.348    541.932    497.348    501.163    497.348
 54.970    568.000    546.083     21.917    497.409    542.129    497.409    501.365    497.409
 55.070    503.921    547.168    -43.247    497.471    543.061    497.471    501.580    497.471
 55.170    521.862    548.982    -27.120    497.534    544.707    497.534    501.811    497.534
 55.270    575.000    551.565     23.435    497.598    547.108    497.598    502.057    497.598
 55.370    547.358    555.015     -7.658    497.663    550.359    497.663    502.321    497.663
 55.470    576.344    559.517     16.827    497.729    554.643    497.729    502.604    497.729
 55.570    586.000    565.428     20.572    497.795    560.317    497.795    502.908    497.795
 55.670    558.578    573.493    -14.915    497.863    568.121    497.863    503.235    497.863
 55.770    603.000    585.291     17.709    497.931    579.633    497.931    503.589    497.931
 55.870    605.000    604.080      0.920    498.000    598.107    498.000    503.971    498.000
 55.970    633.000    636.046     -3.046    498.070    629.725    498.070    504.386    498.070
 56.070    739.697    691.662     48.035    498.141    684.955    498.141    504.837    498.141
 56.170    762.871    786.181    -23.310    498.212    779.044    498.212    505.330    498.212
 56.270    906.000    937.764    -31.764    498.285    930.147    498.285    505.869    498.285
 56.370   1204.434   1161.885     42.549    498.358   1153.737    498.358    506.462    498.358
 56.470   1404.000   1462.226    -58.226    498.432   1453.493    498.432    507.115    498.432
 56.570   1804.823   1820.570    -15.746    498.507   1811.196    498.507    507.839    498.507
 56.670   2212.000   2189.526     22.474    498.582   2179.453    498.582    508.645    498.582
 56.770   2448.000   2492.784    -44.784    498.659   2481.943    498.659    509.547    498.659
 56.870   2552.373   2643.399    -91.026    498.736   2631.700    498.736    510.562    498.736
 56.970   2524.000   2589.282    -65.282    498.814   2576.589    498.814    511.716    498.814
 57.070   2272.292   2351.698    -79.406    498.892   2337.810    498.892    513.039    498.892
 57.170   2151.000   2007.520    143.480    498.972   1992.180    498.972    514.576    498.972
 57.270   1646.000   1641.181      4.819    499.052   1624.077    499.052    516.391    499.052
 57.370   1295.000   1314.380    -19.380    499.133   1295.124    499.133    518.576    499.133
 57.470   1048.000   1058.744    -10.744    499.214   1036.834    499.214    521.259    499.214
 57.570    937.440    880.162     57.279    499.296    854.924    499.296    524.623    499.296
 57.670    734.571    768.131    -33.560    499.379    738.654    499.379    528.911    499.379
 57.770    685.000    705.893    -20.893    499.463    670.950    499.463    534.435    499.463
 57.870    675.084    677.998     -2.914    499.547    635.980    499.547    541.577    499.547
 57.970    643.058    674.010    -30.953    499.632    622.876    499.632    550.767    499.632
 58.070    657.384    688.996    -31.612    499.717    626.254    499.717    562.450    499.717
 58.170    761.000    722.140     38.860    499.803    644.898    499.803    577.026    499.803
 58.270    779.000    774.615      4.385    499.890    679.701    499.890    594.774    499.890
 58.370    832.000    847.332    -15.332    499.977    731.531    499.977    615.738    499.977
 58.470    843.000    938.936    -95.936    500.065    799.373    500.065    639.580    500.065
 58.570   1107.951   1044.265     63.686    500.154    879.009    500.154    665.359    500.154
 58.670   1114.935   1153.823    -38.888    500.243    962.778    500.243    691.242    500.243
 58.770   1235.000   1255.349    -20.349    500.333   1041.362    500.333    714.284    500.333
 58.870   1290.000   1337.080    -47.080    500.423   1106.805    500.423    730.680    500.423
 58.970   1462.000   1389.506     72.494    500.514   1153.117    500.514    736.903    500.514
 59.070   1401.847   1405.381     -3.534    500.606   1174.570    500.606    731.434    500.606
 59.170   1387.000   1382.523      4.477    500.698   1167.584    500.698    715.667    500.698
 59.270   1396.687   1328.105     68.582    500.790   1135.861    500.790    693.067    500.790
 59.370   1262.758   1257.633      5.126    500.883   1091.082    500.883    667.454    500.883
 59.470   1249.000   1188.584     60.416    500.977   1047.733    500.977    641.823    500.977
 59.570   1112.921   1136.443    -23.522    501.071   1019.416    501.071    618.058    501.071
 59.670   1178.000   1114.802     63.198    501.165   1018.745    501.165    597.139    501.165
 59.770   1069.170   1134.258    -65.088    501.260   1055.955    501.260    579.430    501.260
 59.870   1269.000   1197.831     71.169    501.356   1134.098    501.356    564.903    501.356
 59.970   1331.097   1296.508     34.590    501.452   1244.435    501.452    553.289    501.452
 60.070   1489.000   1407.904     81.096    501.548   1364.988    501.548    544.192    501.548
 60.170   1523.000   1498.761     24.239    501.645   1462.952    501.645    537.170    501.645
 60.270   1584.000   1533.795     50.205    501.742   1503.484    501.742    531.793    501.742
 60.370   1495.000   1492.514      2.486    501.840   1466.466    501.840    527.678    501.840
 60.470   1414.000   1381.805     32.195    501.938   1359.083    501.938    524.512    501.938
 60.570   1274.000   1229.379     44.621    502.037   1209.272    502.037    522.052    502.037
 60.670   1102.219   1067.182     35.037    502.136   1049.150    502.136    520.119    502.136
 60.770    886.468    920.171    -33.703    502.235    903.799    502.235    518.584    502.235
 60.870    833.080    802.603     30.477    502.334    787.569    502.334    517.361    502.334
 60.970    693.000    718.796    -25.796    502.434    704.838    502.434    516.388    502.434
 61.070    706.000    666.359     39.641    502.535    653.262    502.535    515.626    502.535
 61.170    678.000    640.319     37.681    502.635    627.900    502.635    515.043    502.635
 61.270    657.000    636.631     20.369    502.737    624.733    502.737    514.614    502.737
 61.370    679.000    654.152     24.848    502.838    642.641    502.838    514.316    502.838
 61.470    700.000    694.810      5.190    502.940    683.580    502.940    514.120    502.940
 61.570    729.344    762.120    -32.776    503.041    751.098    503.041    513.990    503.041
 61.670    916.082    858.424     57.659    503.144    847.585    503.144    513.882    503.144
 61.770   1031.000    981.558     49.442    503.246    970.934    503.246    513.740    503.246
 61.870   1032.000   1121.949    -89.949    503.349   1111.623    503.349    513.517    503.349
 61.970   1201.000   1261.136    -60.136    503.452   1251.230    503.452    513.186    503.452
 62.070   1355.000   1372.895    -17.895    503.555   1363.527    503.555    512.753    503.555
 62.170   1329.000   1429.395   -100.395    503.659   1420.657    503.659    512.251    503.659
 62.270   1357.000   1413.749    -56.749    503.763   1405.684    503.763    511.721    503.763
 62.370   1350.090   1330.526     19.564    503.867   1323.128    503.867    511.202    503.867
 62.470   1262.911   1202.470     60.441    503.971   1195.695    503.971    510.719    503.971
 62.570   1019.771   1057.720    -37.949    504.075   1051.507    504.075    510.286    504.075
 62.670    837.000    919.711    -82.711    504.180    913.992    504.180    509.910    504.180
 62.770    767.000    803.222    -36.222    504.285    797.929    504.285    509.591    504.285
 62.870    748.000    714.289     33.711    504.390    709.364    504.390    509.327    504.390
 62.970    657.000    652.141      4.859    504.495    647.531    504.495    509.113    504.495
 63.070    638.000    612.039     25.961    504.600    607.701    504.600    508.942    504.600
 63.170    612.127    588.004     24.123    504.705    583.900    504.705    508.809    504.705
 63.270    552.000    574.702    -22.702    504.811    570.802    504.811    508.707    504.811
 63.370    586.000    568.342     17.658    504.916    564.621    504.916    508.632    504.916
 63.470    637.000    566.842     70.158    505.022    563.280    505.022    508.577    505.022
 63.570    546.474    569.645    -23.171    505.128    566.223    505.128    508.540    505.128
 63.670    629.000    577.451     51.549    505.234    574.153    505.234    508.518    505.234
 63.770    567.000    591.926    -24.926    505.340    588.738    505.340    508.508    505.340
 63.870    646.000    615.319     30.681    505.446    612.227    505.446    508.508    505.446
 63.970    662.225    649.871     12.355    505.552    646.862    505.552    508.517    505.552
 64.070    718.000    696.957     21.043    505.658    694.021    505.658    508.535    505.658
 64.170    761.554    756.091      5.463    505.764    753.218    505.764    508.559    505.764
 64.270    865.000    823.972     41.028    505.870    821.155    505.870    508.590    505.870
 64.370    971.000    893.859     77.141    505.977    891.096    505.977    508.626    505.977
 64.470    996.919    955.754     41.165    506.083    953.046    506.083    508.668    506.083
 64.570    987.849    998.456    -10.607    506.189    995.810    506.189    508.715    506.189
 64.670   1012.000   1013.844     -1.844    506.295   1011.266    506.295    508.766    506.295
 64.770    991.000   1000.417     -9.417    506.402    997.913    506.402    508.821    506.402
 64.870    992.000    962.980     29.020    506.508    960.550    506.508    508.881    506.508
 64.970    933.000    910.033     22.967    506.614    907.672    506.614    508.944    506.614
 65.070    833.000    850.979    -17.979    506.720    848.681    506.720    509.010    506.720
 65.170    759.000    793.568    -34.568    506.826    791.323    506.826    509.080    506.826
 65.270    723.711    742.404    -18.693    506.932    740.203    506.932    509.153    506.932
 65.370    630.000    699.111    -69.111    507.037    696.946    507.037    509.229    507.037
 65.470    644.000    663.579    -19.579    507.143    661.441    507.143    509.307    507.143
 65.570    659.000    635.115     23.885    507.249    632.999    507.249    509.388    507.249
 65.670    616.000    612.895      3.105    507.354    610.796    507.354    509.472    507.354
 65.770    592.000    596.025     -4.025    507.460    593.940    507.460    509.558    507.460
 65.870    556.653    583.620    -26.967    507.565    581.546    507.565    509.647    507.565
 65.970    570.000    574.887     -4.887    507.670    572.825    507.670    509.738    507.670
 66.070    531.000    569.159    -38.159    507.775    567.106    507.775    509.831    507.775
 66.170    553.000    565.881    -12.881    507.880    563.835    507.880    509.926    507.880
 66.270    577.540    564.605     12.934    507.984    562.566    507.984    510.024    507.984
 66.370    602.448    565.005     37.443    508.089    562.971    508.089    510.123    508.089
 66.470    532.000    566.913    -34.913    508.193    564.881    508.193    510.225    508.193
 66.570    525.686    570.391    -44.705    508.297    568.360    508.297    510.329    508.297
 66.670    572.000    575.857     -3.857    508.400    573.824    508.400    510.435    508.400
 66.770    568.000    584.298    -16.298    508.504    582.261    508.504    510.543    508.504
 66.870    565.000    597.607    -32.607    508.607    595.562    508.607    510.653    508.607
 66.970    588.198    619.028    -30.830    508.710    616.972    508.710    510.766    508.710
 67.070    638.000    653.611    -15.611    508.813    651.541    508.813    510.880    508.813
 67.170    729.000    708.425     20.575    508.916    706.337    508.916    510.997    508.916
 67.270    787.000    792.187     -5.187    509.018    790.078    509.018    511.117    509.018
 67.370    915.000    913.938      1.062    509.120    911.806    509.120    511.239    509.120
 67.470   1099.000   1080.596     18.404    509.221   1078.443    509.221    511.363    509.221
 67.570   1290.000   1293.658     -3.658    509.323   1291.487    509.323    511.490    509.323
 67.670   1643.000   1545.781     97.219    509.424   1543.600    509.424    511.620    509.424
 67.770   1865.452   1818.210     47.242    509.525   1816.032    509.525    511.753    509.525
 67.870   2110.000   2079.959     30.041    509.625   2077.795    509.625    511.888    509.625
 67.970   2234.998   2290.143    -55.145    509.725   2288.005    509.725    512.028    509.725
 68.070   2436.000   2406.491     29.509    509.825   2404.380    509.825    512.170    509.825
 68.170   2449.000   2401.320     47.680    509.924   2399.223    509.924    512.317    509.924
 68.270   2244.000   2276.040    -32.040    510.023   2273.929    510.023    512.467    510.023
 68.370   2031.882   2060.280    -28.398    510.121   2058.117    510.121    512.622    510.121
 68.470   1788.425   1796.661     -8.236    510.220   1794.412    510.220    512.782    510.220
 68.570   1603.000   1525.403     77.597    510.317   1523.045    510.317    512.947    510.317
 68.670   1309.574   1276.486     33.088    510.415   1274.003    510.415    513.117    510.415
 68.770   1023.000   1067.638    -44.638    510.511   1065.024    510.511    513.293    510.511
 68.870    867.000    905.344    -38.344    510.608    902.597    510.608    513.476    510.608
 68.970    815.357    787.519     27.837    510.704    784.641    510.704    513.666    510.704
 69.070    694.821    706.955    -12.133    510.800    703.946    510.800    513.864    510.800
 69.170    640.893    654.563    -13.670    510.895    651.424    510.895    514.071    510.895
 69.270    605.000    621.730    -16.730    510.989    618.457    510.989    514.287    510.989
 69.370    582.000    601.545    -19.545    511.083    598.130    511.083    514.514    511.083
 69.470    583.000    589.103     -6.103    511.177    585.538    511.177    514.753    511.177
 69.570    612.000    581.254     30.746    511.270    577.527    511.270    515.006    511.270
 69.670    548.486    576.134    -27.648    511.363    572.230    511.363    515.273    511.363
 69.770    613.000    572.711     40.289    511.455    568.614    511.455    515.557    511.455
 69.870    561.000    570.445     -9.445    511.547    566.136    511.547    515.859    511.547
 69.970    606.347    569.064     37.284    511.638    564.521    511.638    516.183    511.638
 70.070    545.000    568.442    -23.442    511.728    563.641    511.728    516.531    511.728
 70.170    552.000    568.541    -16.541    511.818    563.454    511.818    516.906    511.818
 70.270    610.806    569.398     41.408    511.908    563.992    511.908    517.313    511.908
 70.370    590.408    571.144     19.264    511.997    565.383    511.997    517.756    511.997
 70.470    568.000    574.062     -6.062    512.085    567.902    512.085    518.242    512.085
 70.570    535.000    578.694    -43.694    512.172    572.083    512.172    518.778    512.172
 70.670    549.000    586.005    -37.005    512.260    578.882    512.260    519.375    512.260
 70.770    631.000    597.606     33.394    512.346    589.892    512.346    520.048    512.346
 70.870    625.000    615.987      9.013    512.432    607.584    512.432    520.816    512.432
 70.970    648.000    644.707      3.293    512.517    635.486    512.517    521.710    512.517
 71.070    716.700    688.365     28.335    512.602    678.152    512.602    522.772    512.602
 71.170    739.329    752.212    -12.884    512.685    740.774    512.685    524.064    512.685
 71.270    828.487    841.270    -12.783    512.769    828.285    512.769    525.670    512.769
 71.370    996.000    958.932     37.068    512.851    943.962    512.851    527.709    512.851
 71.470   1113.000   1105.258      7.742    512.933   1087.713    512.933    530.337    512.933
 71.570   1239.000   1275.331    -36.331    513.014   1254.427    513.014    533.750    513.014
 71.670   1483.882   1458.080     25.802    513.095   1432.805    513.095    538.181    513.095
 71.770   1663.000   1635.975     27.025    513.175   1605.061    513.175    543.890    513.175
 71.870   1769.000   1786.127    -17.127    513.254   1748.047    513.254    551.140    513.254
 71.970   1847.000   1884.141    -37.141    513.332   1837.135    513.332    560.167    513.332
 72.070   1873.000   1911.717    -38.717    513.410   1853.860    513.410    571.130    513.410
 72.170   1919.000   1865.007     53.993    513.487   1794.332    513.487    584.063    513.487
 72.270   1725.000   1756.730    -31.730    513.563   1671.414    513.563    598.816    513.563
 72.370   1637.000   1609.665     27.335    513.639   1508.286    513.639    614.982    513.639
 72.470   1452.000   1447.668      4.332    513.714   1329.540    513.714    631.825    513.714
 72.570   1328.000   1289.975     38.025    513.787   1155.560    513.787    648.196    513.787
 72.670   1088.000   1149.106    -61.106    513.861   1000.447    513.861    662.519    513.861
 72.770    997.239   1030.854    -33.615    513.933    871.847    513.933    672.940    513.933
 72.870    843.000    935.593    -92.593    514.005    771.815    514.005    677.781    514.005
 72.970    775.000    860.399    -85.399    514.075    698.305    514.075    676.167    514.075
 73.070    754.000    801.191    -47.191    514.145    646.911    514.145    668.421    514.145
 73.170    728.000    754.133    -26.133    514.215    612.430    514.215    655.912    514.215
 73.270    632.000    716.178    -84.178    514.283    589.985    514.283    640.472    514.283
 73.370    653.000    685.116    -32.116    514.350    575.622    514.350    623.841    514.350
 73.470    615.000    659.441    -44.441    514.417    566.481    514.417    607.375    514.417
 73.570    620.000    638.202    -18.202    514.483    560.678    514.483    592.006    514.483
 73.670    617.265    620.820     -3.555    514.548    557.080    514.548    578.289    514.548
 73.770    643.000    606.930     36.070    514.612    555.053    514.612    566.494    514.612
 73.870    564.120    596.239    -32.119    514.675    554.253    514.675    556.670    514.675
 73.970    551.000    588.435    -37.435    514.737    554.475    514.737    548.710    514.737
 74.070    563.000    583.135    -20.135    514.799    555.539    514.799    542.412    514.799
 74.170    629.931    579.864     50.067    514.859    557.226    514.859    537.522    514.859
 74.270    599.000    578.063     20.937    514.919    559.238    514.919    533.774    514.919
 74.370    577.496    577.099      0.396    514.978    561.192    514.978    530.920    514.978
 74.470    639.000    576.315     62.685    515.036    562.644    515.036    528.746    515.036
 74.570    646.000    575.112     70.888    515.092    563.171    515.092    527.076    515.092
 74.670    571.000    573.090     -2.090    515.148    562.506    515.148    525.775    515.148
 74.770    615.000    570.159     44.841    515.203    560.661    515.203    524.741    515.203
 74.870    617.000    566.537     50.463    515.257    557.928    515.257    523.903    515.257
 74.970    544.752    562.632    -17.880    515.310    554.765    515.310    523.208    515.310
 75.070    559.417    558.912      0.505    515.363    551.676    515.363    522.623    515.363
 75.170    601.471    555.842     45.629    515.414    549.153    515.414    522.121    515.414
 75.270    598.000    553.875     44.125    515.464    547.665    515.464    521.687    515.464
 75.370    511.353    553.462    -42.109    515.513    547.675    515.513    521.308    515.513
 75.470    569.000    555.072     13.928    515.561    549.661    515.561    520.974    515.561
 75.570    549.000    559.195    -10.195    515.608    554.120    515.608    520.679    515.608
 75.670    568.164    566.303      1.861    515.655    561.531    515.655    520.417    515.655
 75.770    576.460    576.780     -0.320    515.700    572.279    515.700    520.184    515.700
 75.870    553.096    590.792    -37.696    515.744    586.537    515.744    519.975    515.744
 75.970    636.000    608.146     27.854    515.787    604.111    515.787    519.789    515.787
 76.070    619.000    628.146     -9.146    515.829    624.313    515.829    519.622    515.829
 76.170    619.014    649.509    -30.495    515.870    645.859    515.870    519.472    515.870
 76.270    709.043    670.332     38.711    515.910    666.849    515.910    519.337    515.910
 76.370    669.000    688.182    -19.182    515.949    684.856    515.949    519.215    515.949
 76.470    685.000    700.402    -15.402    515.987    697.222    515.987    519.105    515.987
 76.570    669.970    704.762    -34.792    516.024    701.721    516.024    519.005    516.024
 76.670    662.000    700.333    -38.333    516.059    697.423    516.059    518.915    516.059
 76.770    646.000    687.931    -41.931    516.094    685.146    516.094    518.833    516.094
 76.870    633.077    669.715    -36.639    516.128    667.047    516.128    518.759    516.128
 76.970    616.000    648.322    -32.322    516.160    645.762    516.160    518.691    516.160
 77.070    630.185    626.188      3.997    516.191    623.729    516.191    518.629    516.191
 77.170    601.000    605.222     -4.222    516.222    602.856    516.222    518.572    516.222
 77.270    553.000    586.707    -33.707    516.251    584.427    516.251    518.520    516.251
 77.370    614.651    571.311     43.340    516.279    569.110    516.279    518.473    516.279
 77.470    522.000    559.180    -37.180    516.306    557.052    516.306    518.429    516.306
 77.570    520.201    550.072    -29.871    516.331    548.012    516.331    518.389    516.331
 77.670    498.000    543.521    -45.521    516.356    541.522    516.356    518.352    516.356
 77.770    512.635    538.973    -26.338    516.379    537.033    516.379    518.318    516.379
 77.870    502.000    535.898    -33.898    516.402    534.013    516.402    518.286    516.402
 77.970    542.000    533.850      8.150    516.423    532.016    516.423    518.256    516.423
 78.070    509.924    532.488    -22.564    516.443    530.701    516.443    518.229    516.443
 78.170    540.000    531.570      8.430    516.462    529.828    516.462    518.203    516.462
 78.270    543.000    530.941     12.059    516.480    529.240    516.480    518.179    516.480
 78.370    491.426    530.504    -39.077    516.496    528.842    516.496    518.157    516.496
 78.470    550.000    530.207     19.793    516.511    528.582    516.511    518.136    516.511
 78.570    517.680    530.024    -12.343    516.525    528.432    516.525    518.116    516.525
 78.670    566.700    529.931     36.769    516.538    528.371    516.538    518.098    516.538
 78.770    545.000    529.950     15.050    516.550    528.418    516.550    518.082    516.550
 78.870    483.867    530.129    -46.262    516.561    528.623    516.561    518.066    516.561
 78.970    476.000    530.470    -54.470    516.570    528.986    516.570    518.053    516.570
 79.070    494.636    530.997    -36.361    516.578    529.532    516.578    518.041    516.578
 79.170    556.990    531.739     25.251    516.585    530.291    516.585    518.032    516.585
 79.270    506.000    532.725    -26.725    516.591    531.288    516.591    518.025    516.591
 79.370    528.525    533.979     -5.454    516.595    532.551    516.595    518.020    516.595
 79.470    547.063    535.526     11.537    516.598    534.101    516.598    518.019    516.598
 79.570    526.462    537.395    -10.932    516.600    535.970    516.600    518.021    516.600
 79.670    515.000    539.637    -24.637    516.601    538.207    516.601    518.026    516.601
 79.770    524.000    542.331    -18.331    516.600    540.891    516.600    518.035    516.600
 79.870    558.000    545.607     12.393    516.599    544.153    516.599    518.048    516.599
 79.970    590.716    549.668     41.049    516.596    548.196    516.596    518.062    516.596
 80.070    550.744    554.817     -4.073    516.591    553.325    516.591    518.079    516.591
 80.170    580.000    561.455     18.545    516.586    559.940    516.586    518.098    516.586
 80.270    532.495    570.031    -37.536    516.579    568.493    516.579    518.116    516.579
 80.370    630.694    580.955     49.739    516.571    579.397    516.571    518.131    516.571
 80.470    581.000    594.488    -13.488    516.562    592.915    516.562    518.141    516.562
 80.570    580.747    610.640    -29.893    516.551    609.060    516.551    518.141    516.551
 80.670    636.000    629.094      6.906    516.539    627.518    516.539    518.130    516.539
 80.770    662.000    649.170     12.830    516.526    647.611    516.526    518.105    516.526
 80.870    642.480    669.842    -27.362    516.511    668.313    516.511    518.066    516.511
 80.970    634.000    689.856    -55.856    516.495    688.367    516.495    518.016    516.495
 81.070    664.152    707.905    -43.753    516.478    706.465    516.478    517.957    516.478
 81.170    737.000    722.807     14.193    516.460    721.421    516.460    517.892    516.460
 81.270    770.478    733.606     36.872    516.440    732.276    516.440    517.823    516.440
 81.370    729.000    739.641    -10.641    516.419    738.365    516.419    517.753    516.419
 81.470    695.278    740.605    -45.327    516.397    739.380    516.397    517.684    516.397
 81.570    726.000    736.567    -10.567    516.373    735.389    516.373    517.617    516.373
 81.670    725.000    727.935     -2.935    516.348    726.799    516.348    517.552    516.348
 81.770    770.611    715.447     55.164    516.322    714.348    516.322    517.490    516.322
 81.870    700.899    700.160      0.739    516.294    699.091    516.294    517.430    516.294
 81.970    713.000    683.295     29.705    516.265    682.251    516.265    517.374    516.265
 82.070    673.000    665.983      7.017    516.235    664.961    516.235    517.320    516.235
 82.170    635.785    649.057    -13.271    516.204    648.051    516.204    517.268    516.204
 82.270    633.000    632.992      0.008    516.171    632.000    516.171    517.217    516.171
 82.370    654.000    618.010     35.990    516.136    617.027    516.136    517.168    516.136
 82.470    573.000    604.228    -31.228    516.101    603.253    516.101    517.120    516.101
 82.570    621.436    591.777     29.660    516.064    590.806    516.064    517.073    516.064
 82.670    545.755    580.822    -35.067    516.025    579.854    516.025    517.026    516.025
 82.770    562.000    571.530     -9.530    515.986    570.563    515.986    516.979    515.986
 82.870    585.000    564.037     20.963    515.945    563.069    515.945    516.931    515.945
 82.970    564.335    558.435      5.900    515.902    557.466    515.902    516.883    515.902
 83.070    548.000    554.763     -6.763    515.859    553.792    515.859    516.835    515.859
 83.170    590.000    552.995     37.005    515.814    552.021    515.814    516.786    515.814
 83.270    580.000    553.025     26.975    515.767    552.047    515.767    516.736    515.767
 83.370    528.808    554.650    -25.842    515.719    553.668    515.719    516.685    515.719
 83.470    576.000    557.565     18.435    515.670    556.578    515.670    516.634    515.670
 83.570    566.000    561.361      4.639    515.620    560.370    515.620    516.581    515.620
 83.670    545.654    565.539    -19.885    515.568    564.544    515.568    516.528    515.568
 83.770    588.000    569.532     18.468    515.515    568.534    515.515    516.474    515.515
 83.870    579.865    572.747      7.118    515.460    571.747    515.460    516.419    515.460
 83.970    532.000    574.644    -42.644    515.404    573.643    515.404    516.362    515.404
 84.070    603.865    574.843     29.022    515.347    573.842    515.347    516.305    515.347
 84.170    597.081    573.226     23.855    515.288    572.227    515.288    516.247    515.288
 84.270    608.406    569.966     38.440    515.228    568.970    515.228    516.188    515.228
 84.370    528.595    565.453    -36.858    515.166    564.461    515.166    516.128    515.166
 84.470    581.357    560.176     21.182    515.104    559.186    515.104    516.066    515.104
 84.570    511.000    554.611    -43.611    515.039    553.624    515.039    516.004    515.039
 84.670    545.000    549.172     -4.172    514.974    548.187    514.974    515.941    514.974
 84.770    567.000    544.170     22.830    514.907    543.187    514.907    515.876    514.907
 84.870    533.631    539.810     -6.180    514.838    538.827    514.838    515.811    514.838
 84.970    533.000    536.193     -3.193    514.769    535.209    514.769    515.745    514.769
 85.070    540.000    533.334      6.666    514.698    532.347    514.698    515.677    514.698
 85.170    550.000    531.183     18.817    514.625    530.194    514.625    515.609    514.625
 85.270    549.000    529.656     19.344    514.551    528.664    514.551    515.539    514.551
 85.370    564.533    528.657     35.876    514.476    527.660    514.476    515.469    514.476
 85.470    517.155    528.096    -10.941    514.400    527.094    514.400    515.397    514.400
 85.570    570.000    527.909     42.091    514.322    526.901    514.322    515.325    514.322
 85.670    571.000    528.064     42.936    514.242    527.050    514.242    515.251    514.242
 85.770    582.000    528.566     53.434    514.161    527.545    514.161    515.176    514.161
 85.870    525.000    529.464     -4.464    514.079    528.435    514.079    515.101    514.079
 85.970    556.000    530.846     25.154    513.996    529.808    513.996    515.025    513.996
 86.070    497.071    532.843    -35.772    513.911    531.794    513.911    514.947    513.911
 86.170    510.000    535.615    -25.615    513.825    534.555    513.825    514.869    513.825
 86.270    506.793    539.344    -32.550    513.737    538.271    513.737    514.789    513.737
 86.370    561.000    544.210     16.790    513.648    543.122    513.648    514.709    513.648
 86.470    582.162    550.364     31.798    513.558    549.260    513.558    514.628    513.558
 86.570    571.000    557.894     13.106    513.466    556.771    513.466    514.546    513.466
 86.670    585.000    566.784     18.216    513.373    565.640    513.373    514.463    513.373
 86.770    586.037    576.880      9.157    513.279    575.714    513.279    514.379    513.279
 86.870    637.070    587.862     49.208    513.183    586.674    513.183    514.295    513.183
 86.970    570.000    599.230    -29.230    513.086    598.018    513.086    514.209    513.086
 87.070    633.652    610.307     23.345    512.987    609.072    512.987    514.123    512.987
 87.170    623.000    620.267      2.733    512.887    619.011    512.887    514.036    512.887
 87.270    664.000    628.210     35.790    512.786    626.934    512.786    513.949    512.786
 87.370    647.000    633.303     13.697    512.684    632.012    512.684    513.861    512.684
 87.470    665.000    634.974     30.026    512.580    633.670    512.580    513.772    512.580
 87.570    694.000    633.083     60.917    512.474    631.770    512.474    513.682    512.474
 87.670    641.000    627.963     13.037    512.368    626.644    512.368    513.592    512.368
 87.770    644.000    620.320     23.680    512.260    618.995    512.260    513.501    512.260
 87.870    599.000    611.055    -12.055    512.150    609.724    512.150    513.410    512.150
 87.970    631.000    601.109     29.891    512.040    599.772    512.040    513.319    512.040
 88.070    626.000    591.367     34.633    511.928    590.023    511.928    513.227    511.928
 88.170    541.157    582.588    -41.431    511.814    581.235    511.814    513.135    511.814
 88.270    585.000    575.359      9.641    511.700    573.994    511.700    513.043    511.700
 88.370    591.000    570.104     20.896    511.584    568.726    511.584    512.950    511.584
 88.470    607.000    567.048     39.952    511.466    565.654    511.466    512.858    511.466
 88.570    611.019    566.214     44.805    511.348    564.801    511.348    512.765    511.348
 88.670    526.400    567.456    -41.056    511.228    566.023    511.228    512.672    511.228
 88.770    543.534    570.476    -26.942    511.106    569.022    511.106    512.580    511.106
 88.870    591.000    574.842     16.158    510.984    573.365    510.984    512.488    510.984
 88.970    631.000    580.014     50.986    510.860    578.512    510.860    512.397    510.860
 89.070    598.000    585.369     12.631    510.735    583.840    510.735    512.306    510.735
 89.170    579.000    590.240    -11.240    510.608    588.680    510.608    512.216    510.608
 89.270    581.000    593.968    -12.968    510.480    592.376    510.480    512.127    510.480
 89.370    579.000    595.992    -16.992    510.351    594.362    510.351    512.039    510.351
 89.470    609.924    595.947     13.977    510.221    594.276    510.221    511.952    510.221
 89.570    571.181    593.754    -22.573    510.089    592.036    510.089    511.867    510.089
 89.670    593.000    589.619      3.381    509.956    587.849    509.956    511.784    509.956
 89.770    557.000    583.963    -26.963    509.822    582.137    509.822    511.703    509.822
 89.870    506.000    577.310    -71.310    509.686    575.421    509.686    511.625    509.686
 89.970    552.000    570.186    -18.186    509.549    568.229    509.549    511.549    509.549
 90.070    530.000    563.060    -33.060    509.411    561.031    509.411    511.478    509.411
 90.170    524.127    556.314    -32.186    509.272    554.206    509.272    511.410    509.272
 90.270    516.705    550.222    -33.518    509.132    548.031    509.132    511.348    509.132
 90.370    491.000    544.959    -53.959    508.990    542.676    508.990    511.292    508.990
 90.470    543.766    540.601      3.165    508.847    538.219    508.847    511.243    508.847
 90.570    510.000    537.147    -27.147    508.702    534.657    508.702    511.203    508.702
 90.670    560.000    534.540     25.460    508.557    531.929    508.557    511.175    508.557
 90.770    519.000    532.689    -13.689    508.410    529.943    508.410    511.161    508.410
 90.870    546.000    531.494     14.506    508.262    528.594    508.262    511.165    508.262
 90.970    537.641    530.859      6.782    508.113    527.782    508.113    511.191    508.113
 91.070    529.863    530.710     -0.847    507.963    527.429    507.963    511.244    507.963
 91.170    552.162    531.006     21.156    507.811    527.484    507.811    511.332    507.811
 91.270    550.000    531.739     18.261    507.658    527.933    507.658    511.462    507.658
 91.370    490.266    532.944    -42.678    507.504    528.802    507.504    511.643    507.504
 91.470    531.639    534.697     -3.058    507.349    530.156    507.349    511.886    507.349
 91.570    561.000    537.116     23.884    507.193    532.100    507.193    512.203    507.193
 91.670    548.859    540.357      8.502    507.036    534.779    507.036    512.605    507.036
 91.770    532.000    544.608    -12.608    506.877    538.368    506.877    513.107    506.877
 91.870    546.000    550.083     -4.083    506.717    543.066    506.717    513.721    506.717
 91.970    580.000    556.993     23.007    506.556    549.074    506.556    514.459    506.556
 92.070    535.000    565.509    -30.509    506.394    556.552    506.394    515.330    506.394
 92.170    572.224    575.878     -3.653    506.231    565.739    506.231    516.344    506.231
 92.270    622.790    588.194     34.595    506.067    576.727    506.067    517.502    506.067
 92.370    627.000    602.466     24.534    505.901    589.525    505.901    518.804    505.901
 92.470    622.969    618.602      4.366    505.735    604.051    505.735    520.241    505.735
 92.570    616.000    636.387    -20.387    505.567    620.105    505.567    521.798    505.567
 92.670    613.000    655.461    -42.461    505.398    637.352    505.398    523.449    505.398
 92.770    674.124    675.319     -1.195    505.228    655.326    505.228    525.157    505.228
 92.870    738.000    695.330     42.670    505.058    673.446    505.058    526.872    505.058
 92.970    749.000    714.786     34.214    504.886    691.070    504.886    528.528    504.886
 93.070    748.000    732.998     15.002    504.713    707.590    504.713    530.044    504.713
 93.170    729.714    749.416    -19.703    504.539    722.551    504.539    531.327    504.539
 93.270    806.000    763.740     42.260    504.363    735.746    504.363    532.281    504.363
 93.370    817.009    775.936     41.073    504.187    747.229    504.187    532.818    504.187
 93.470    799.440    786.188     13.251    504.010    757.244    504.010    532.881    504.010
 93.570    762.000    794.813    -32.813    503.832    766.125    503.832    532.448    503.832
 93.670    859.635    802.189     57.446    503.653    774.226    503.653    531.546    503.653
 93.770    840.000    808.739     31.261    503.473    781.905    503.473    530.240    503.473
 93.870    821.961    814.965      6.997    503.291    789.574    503.291    528.617    503.291
 93.970    835.000    821.441     13.559    503.109    797.712    503.109    526.776    503.109
 94.070    871.000    828.736     42.264    502.926    806.793    502.926    524.808    502.926
 94.170    849.000    837.251     11.749    502.742    817.143    502.742    522.792    502.742
 94.270    839.000    847.062     -8.062    502.557    828.771    502.557    520.792    502.557
 94.370    821.588    857.809    -36.221    502.371    841.272    502.371    518.856    502.371
 94.470    877.000    868.676      8.324    502.184    853.791    502.184    517.019    502.184
 94.570    873.000    878.445     -5.445    501.996    865.089    501.996    515.307    501.996
 94.670    896.000    885.634     10.366    501.808    873.670    501.808    513.732    501.808
 94.770    948.000    888.710     59.290    501.618    877.993    501.618    512.304    501.618
 94.870    863.000    886.382    -23.382    501.427    876.764    501.427    511.021    501.427
 94.970    879.000    877.900      1.100    501.236    869.239    501.236    509.882    501.236
 95.070    858.000    863.271     -5.271    501.044    855.431    501.044    508.877    501.044
 95.170    886.722    843.274     43.448    500.851    836.129    500.851    507.996    500.851
 95.270    849.000    819.293     29.707    500.657    812.727    500.657    507.228    500.657
 95.370    801.960    793.070      8.890    500.462    786.982    500.462    506.560    500.462
 95.470    805.157    766.491     38.666    500.267    760.790    500.267    505.979    500.267
 95.570    781.722    741.423     40.299    500.070    736.032    500.070    505.472    500.070
 95.670    737.000    719.623     17.377    499.873    714.476    499.873    505.029    499.873
 95.770    712.000    702.680      9.320    499.675    697.720    499.675    504.639    499.675
 95.870    718.057    691.987     26.069    499.476    687.169    499.476    504.294    499.476
 95.970    699.000    688.734     10.266    499.277    684.018    499.277    503.986    499.277
 96.070    724.349    693.902     30.447    499.077    689.254    499.077    503.710    499.077
 96.170    710.000    708.248      1.752    498.876    703.641    498.876    503.459    498.876
 96.270    746.000    732.349     13.651    498.674    727.759    498.674    503.231    498.674
 96.370    694.000    766.479    -72.479    498.472    761.885    498.472    503.021    498.472
 96.470    868.000    810.580     57.420    498.269    805.964    498.269    502.829    498.269
 96.570    887.000    864.181     22.819    498.065    859.528    498.065    502.652    498.065
 96.670    950.000    926.308     23.692    497.861    921.603    497.861    502.489    497.861
 96.770   1009.000    995.400     13.600    497.656    990.632    497.656    502.340    497.656
 96.870   1036.000   1069.264    -33.264    497.450   1064.419    497.450    502.204    497.450
 96.970   1153.000   1145.053      7.947    497.244   1140.121    497.244    502.080    497.244
 97.070   1238.000   1219.308     18.692    497.037   1214.279    497.037    501.971    497.037
 97.170   1334.000   1288.066     45.934    496.829   1282.931    496.829    501.875    496.829
 97.270   1347.000   1347.093     -0.093    496.621   1341.841    496.621    501.793    496.621
 97.370   1415.000   1392.283     22.717    496.413   1386.901    496.413    501.728    496.413
 97.470   1455.000   1420.231     34.769    496.203   1414.707    496.203    501.679    496.203
 97.570   1483.000   1428.857     54.143    495.994   1423.173    495.994    501.648    495.994
 97.670   1396.000   1417.821    -21.821    495.783   1411.957    495.783    501.639    495.783
 97.770   1364.000   1388.547    -24.547    495.573   1382.477    495.573    501.654    495.573
 97.870   1339.000   1343.844     -4.844    495.361   1337.537    495.361    501.697    495.361
 97.970   1305.000   1287.364     17.636    495.150   1280.783    495.150    501.773    495.150
 98.070   1265.000   1223.093     41.907    494.937   1216.195    494.937    501.888    494.937
 98.170   1180.000   1154.981     25.019    494.725   1147.713    494.725    502.050    494.725
 98.270   1045.000   1086.722    -41.722    494.512   1079.023    494.512    502.270    494.512
 98.370   1007.000   1021.616    -14.616    494.298   1013.412    494.298    502.559    494.298
 98.470    895.000    962.501    -67.501    494.084    953.705    494.084    502.933    494.084
 98.570    908.000    911.730     -3.730    493.870    902.233    493.870    503.412    493.870
 98.670    895.000    871.179     23.821    493.655    860.856    493.655    504.016    493.655
 98.770    821.000    842.297    -21.297    493.440    830.993    493.440    504.772    493.440
 98.870    792.000    826.155    -34.155    493.225    813.688    493.225    505.710    493.225
 98.970    808.000    823.511    -15.511    493.009    809.665    493.009    506.864    493.009
 99.070    812.062    834.867    -22.804    492.793    819.389    492.793    508.271    492.793
 99.170    867.000    860.491      6.509    492.577    843.090    492.577    509.970    492.577
 99.270    910.000    900.419      9.581    492.360    880.763    492.360    512.003    492.360
 99.370    964.097    954.416      9.681    492.144    932.132    492.144    514.410    492.144
 99.470   1007.000   1021.914    -14.914    491.927    996.591    491.927    517.230    491.927
 99.570   1160.649   1101.931     58.718    491.709   1073.124    491.709    520.497    491.709
 99.670   1172.000   1192.987    -20.987    491.492   1160.226    491.492    524.238    491.492
 99.770   1265.000   1293.027    -28.027    491.274   1255.825    491.274    528.469    491.274
 99.870   1444.000   1399.370     44.630    491.057   1357.237    491.057    533.193    491.057
 99.970   1581.585   1508.692     72.893    490.839   1461.152    490.839    538.399    490.839
100.070   1667.000   1617.153     49.847    490.621   1563.761    490.621    544.052    490.621
100.170   1723.000   1720.534      2.466    490.403   1660.902    490.403    550.097    490.403
100.270   1764.618   1814.570    -49.952    490.184   1748.390    490.184    556.451    490.184
100.370   1875.000   1895.344    -20.344    489.966   1822.424    489.966    563.001    489.966
100.470   1952.000   1959.608     -7.608    489.748   1879.900    489.748    569.596    489.748
100.570   2042.824   2004.924     37.900    489.529   1918.568    489.529    576.050    489.529
100.670   2092.237   2029.643     62.594    489.311   1937.006    489.311    582.134    489.311
100.770   2042.000   2032.866      9.134    489.093   1934.573    489.093    587.588    489.093
100.870   2038.231   2014.519     23.712    488.874   1911.477    488.874    592.132    488.874
100.970   1966.275   1975.587     -9.311    488.656   1868.978    488.656    595.489    488.656
101.070   1882.000   1918.321    -36.321    488.438   1809.558    488.438    597.427    488.438
101.170   1857.000   1846.226     10.774    488.220   1736.875    488.220    597.794    488.220
101.270   1765.000   1763.732      1.268    488.002   1655.402    488.002    596.548    488.002
101.370   1719.000   1675.661     43.339    487.784   1569.885    487.784    593.763    487.784
101.470   1589.000   1586.677      2.323    487.566   1484.812    487.566    589.620    487.566
101.570   1464.000   1500.859    -36.859    487.349   1404.014    487.349    584.367    487.349
101.670   1391.556   1421.438    -29.882    487.131   1330.441    487.131    578.285    487.131
101.770   1315.000   1350.674    -35.674    486.914   1266.076    486.914    571.652    486.914
101.870   1237.413   1289.825    -52.412    486.697   1211.926    486.697    564.721    486.697
101.970   1230.508   1239.191     -8.683    486.480   1168.077    486.480    557.706    486.480
102.070   1133.370   1198.199    -64.829    486.264   1133.779    486.264    550.786    486.264
102.170   1140.000   1165.529    -25.529    486.048   1107.574    486.048    544.097    486.048
102.270   1150.000   1139.276     10.724    485.832   1087.450    485.832    537.746    485.832
102.370   1131.301   1117.151     14.150    485.617   1071.047    485.617    531.805    485.617
102.470   1052.000   1096.740    -44.740    485.402   1055.900    485.402    526.326    485.402
102.570   1094.664   1075.791     18.873    485.187   1039.729    485.187    521.333    485.187
102.670   1066.000   1052.506     13.494    484.973   1020.728    484.973    516.835    484.973
102.770    982.241   1025.755    -43.514    484.759    997.775    484.759    512.825    484.759
102.870   1019.465    995.152     24.313    484.546    970.501    484.546    509.282    484.546
102.970    899.940    960.965    -61.025    484.333    939.204    484.333    506.177    484.333
103.070    899.000    923.941    -24.941    484.120    904.667    484.120    503.475    484.120
103.170    861.000    885.094    -24.094    483.909    867.943    483.909    501.137    483.909
103.270    851.000    845.533      5.467    483.697    830.182    483.697    499.120    483.697
103.370    750.956    806.340    -55.385    483.486    792.508    483.486    497.385    483.486
103.470    781.000    768.493     12.507    483.276    755.936    483.276    495.893    483.276
103.570    769.000    732.812     36.188    483.067    721.325    483.067    494.607    483.067
103.670    721.000    699.930     21.070    482.858    689.340    482.858    493.494    482.858
103.770    663.203    670.284     -7.081    482.650    660.447    482.650    492.527    482.650
103.870    658.000    644.111     13.889    482.442    634.908    482.442    491.679    482.442
103.970    627.000    621.470      5.530    482.236    612.803    482.236    490.929    482.236
104.070    607.000    602.264      4.736    482.029    594.055    482.029    490.261    482.029
104.170    591.000    586.281      4.719    481.824    578.463    481.824    489.660    481.824
104.270    575.000    573.223      1.777    481.620    565.744    481.620    489.113    481.620
104.370    573.000    562.749     10.251    481.416    555.564    481.416    488.611    481.416
104.470    517.000    554.503    -37.503    481.213    547.577    481.213    488.147    481.213
104.570    520.048    548.142    -28.094    481.011    541.444    481.011    487.715    481.011
104.670    553.000    543.352      9.648    480.810    536.855    480.810    487.310    480.810
104.770    554.000    539.861     14.139    480.610    533.543    480.610    486.929    480.610
104.870    562.000    537.447     24.553    480.411    531.290    480.411    486.568    480.411
104.970    596.000    535.945     60.055    480.213    529.931    480.213    486.226    480.213
105.070    560.000    535.232     24.768    480.016    529.345    480.016    485.899    480.016
105.170    553.000    535.234     17.766    479.820    529.462    479.820    485.588    479.820
105.270    523.000    535.917    -12.917    479.625    530.245    479.625    485.290    479.625
105.370    583.000    537.301     45.699    479.431    531.719    479.431    485.005    479.431
105.470    513.000    539.424    -26.424    479.238    533.920    479.238    484.732    479.238
105.570    510.210    542.350    -32.139    479.046    536.915    479.046    484.470    479.046
105.670    542.538    546.160     -3.623    478.855    540.784    478.855    484.218    478.855
105.770    541.000    550.942     -9.942    478.666    545.616    478.666    483.977    478.666
105.870    573.823    556.773     17.050    478.478    551.488    478.478    483.745    478.478
105.970    559.003    563.708     -4.705    478.291    558.456    478.291    483.522    478.291
106.070    567.000    571.766     -4.766    478.106    566.539    478.106    483.308    478.106
106.170    549.000    580.920    -31.920    477.921    575.712    477.921    483.103    477.921
106.270    625.922    591.090     34.831    477.738    585.893    477.738    482.906    477.738
106.370    657.000    602.134     54.866    477.557    596.941    477.557    482.717    477.557
106.470    607.000    613.849     -6.849    477.377    608.654    477.377    482.536    477.377
106.570    592.000    625.973    -33.973    477.198    620.769    477.198    482.363    477.198
106.670    662.000    638.189     23.811    477.021    632.971    477.021    482.198    477.021
106.770    662.000    650.136     11.864    476.845    644.899    476.845    482.040    476.845
106.870    703.567    661.426     42.140    476.670    656.164    476.670    481.890    476.670
106.970    640.000    671.666    -31.666    476.498    666.373    476.498    481.748    476.498
107.070    615.000    680.492    -65.492    476.327    675.164    476.327    481.613    476.327
107.170    676.000    687.617    -11.617    476.157    682.249    476.157    481.487    476.157
107.270    739.607    692.878     46.729    475.989    687.463    475.989    481.367    475.989
107.370    684.286    696.267    -11.981    475.823    690.800    475.823    481.256    475.823
107.470    659.000    697.946    -38.946    475.658    692.422    475.658    481.153    475.658
107.570    667.368    698.217    -30.850    475.496    692.630    475.496    481.058    475.496
107.670    682.000    697.474    -15.474    475.335    691.816    475.335    480.971    475.335
107.770    738.000    696.137     41.863    475.175    690.403    475.175    480.892    475.175
107.870    668.586    694.602    -26.017    475.018    688.787    475.018    480.820    475.018
107.970    708.300    693.203     15.097    474.862    687.298    474.862    480.758    474.862
108.070    667.000    692.178    -25.178    474.709    686.175    474.709    480.706    474.709
108.170    703.000    691.655     11.345    474.557    685.546    474.557    480.664    474.557
108.270    696.365    691.646      4.719    474.407    685.424    474.407    480.631    474.407
108.370    679.000    692.048    -13.048    474.259    685.704    474.259    480.608    474.259
108.470    696.153    692.647      3.506    474.114    686.173    474.114    480.596    474.114
108.570    682.000    693.139    -11.139    473.970    686.526    473.970    480.595    473.970
108.670    700.000    693.157      6.843    473.828    686.395    473.828    480.605    473.828
108.770    702.000    692.313      9.687    473.689    685.393    473.689    480.627    473.689
108.870    663.000    690.250    -27.250    473.552    683.160    473.552    480.662    473.552
108.970    691.000    686.697      4.303    473.416    679.425    473.416    480.709    473.416
109.070    717.697    681.510     36.187    473.284    674.046    473.284    480.771    473.284
109.170    665.000    674.696     -9.696    473.153    667.026    473.153    480.847    473.153
109.270    696.000    666.397     29.603    473.025    658.507    473.025    480.939    473.025
109.370    629.815    656.861    -27.046    472.899    648.737    472.899    481.047    472.899
109.470    669.000    646.402     22.598    472.775    638.028    472.775    481.172    472.775
109.570    633.000    635.359     -2.359    472.654    626.718    472.654    481.317    472.654
109.670    643.057    624.071     18.986    472.535    615.144    472.535    481.482    472.535
109.770    582.000    612.853    -30.853    472.419    603.621    472.419    481.669    472.419
109.870    608.000    601.990      6.010    472.305    592.430    472.305    481.881    472.305
109.970    639.000    591.721     47.279    472.193    581.810    472.193    482.119    472.193
110.070    615.000    582.240     32.760    472.085    571.950    472.085    482.387    472.085
110.170    573.000    573.693     -0.693    471.979    562.994    471.979    482.688    471.979
110.270    549.374    566.176    -16.802    471.875    555.034    471.875    483.026    471.875
110.370    549.000    559.742    -10.742    471.774    548.116    471.774    483.406    471.774
110.470    575.000    554.401     20.599    471.676    542.247    471.676    483.835    471.676
110.570    588.000    550.133     37.867    471.581    537.397    471.581    484.319    471.581
110.670    545.398    546.885     -1.488    471.489    533.507    471.489    484.868    471.489
110.770    561.886    544.569     17.316    471.399    530.476    471.399    485.492    471.399
110.870    578.000    543.137     34.863    471.312    528.245    471.312    486.203    471.312
110.970    558.000    542.528     15.472    471.229    526.738    471.229    487.016    471.229
111.070    446.000    542.642    -96.642    471.148    525.837    471.148    487.948    471.148
111.170    524.956    543.403    -18.447    471.070    525.449    471.070    489.019    471.070
111.270    549.000    544.750      4.250    470.995    525.486    470.995    490.253    470.995
111.370    518.000    546.631    -28.631    470.923    525.873    470.923    491.675    470.923
111.470    562.000    549.009     12.991    470.854    526.540    470.854    493.316    470.854
111.570    569.000    551.859     17.141    470.789    527.431    470.789    495.209    470.789
111.670    576.878    555.171     21.707    470.727    528.498    470.727    497.390    470.727
111.770    605.000    558.948     46.052    470.667    529.706    470.667    499.900    470.667
111.870    603.751    563.207     40.544    470.612    531.028    470.612    502.781    470.612
111.970    541.000    567.980    -26.980    470.559    532.451    470.559    506.078    470.559
112.070    566.000    573.308     -7.308    470.510    533.970    470.510    509.838    470.510
112.170    593.000    579.245     13.755    470.464    535.592    470.464    514.106    470.464
112.270    583.167    585.851     -2.684    470.422    537.333    470.422    518.929    470.422
112.370    596.000    593.195      2.805    470.383    539.218    470.383    524.349    470.383
112.470    574.000    601.348    -27.348    470.347    541.279    470.347    530.405    470.347
112.570    568.761    610.386    -41.626    470.316    543.560    470.316    537.130    470.316
112.670    615.487    620.388     -4.901    470.287    546.113    470.287    544.550    470.287
112.770    626.000    631.435     -5.435    470.263    549.008    470.263    552.677    470.263
112.870    621.743    643.618    -21.875    470.242    552.331    470.242    561.515    470.242
112.970    646.000    657.036    -11.036    470.224    556.195    470.224    571.051    470.224
113.070    632.451    671.808    -39.357    470.211    560.748    470.211    581.255    470.211
113.170    683.000    688.077     -5.077    470.201    566.181    470.201    592.080    470.201
113.270    730.000    706.026     23.974    470.195    572.748    470.195    603.454    470.195
113.370    728.000    725.889      2.111    470.194    580.776    470.194    615.285    470.194
113.470    734.000    747.969    -13.969    470.196    590.688    470.196    627.452    470.196
113.570    723.000    772.659    -49.659    470.202    603.028    470.202    639.804    470.202
113.670    797.000    800.464     -3.464    470.212    618.481    470.212    652.162    470.212
113.770    775.388    832.023    -56.635    470.226    637.899    470.226    664.311    470.226
113.870    772.000    868.136    -96.136    470.244    662.331    470.244    676.003    470.244
113.970    902.000    909.792     -7.792    470.266    693.042    470.266    686.960    470.266
114.070    893.784    958.189    -64.405    470.293    731.532    470.293    696.882    470.293
114.170   1012.000   1014.760     -2.760    470.323    779.545    470.323    705.456    470.323
114.270   1099.138   1081.187     17.951    470.358    839.065    470.358    712.381    470.358
114.370   1167.107   1159.410      7.697    470.398    912.301    470.398    717.387    470.398
114.470   1286.000   1251.608     34.392    470.441   1001.639    470.441    720.265    470.441
114.570   1304.324   1360.163    -55.839    470.490   1109.589    470.490    720.889    470.490
114.670   1522.737   1487.585     35.152    470.542   1238.686    470.542    719.234    470.542
114.770   1600.308   1636.404    -36.097    470.599   1391.383    470.599    715.376    470.599
114.870   1907.000   1809.015     97.985    470.661   1569.906    470.661    709.484    470.661
114.970   2170.000   2007.496    162.504    470.727   1776.093    470.727    701.799    470.727
115.070   2145.474   2233.410    -87.937    470.798   2011.218    470.798    692.612    470.798
115.170   2447.377   2487.593    -40.216    470.874   2275.808    470.874    682.232    470.874
115.270   2921.000   2769.954    151.046    470.954   2569.464    470.954    670.967    470.954
115.370   3076.049   3079.304     -3.255    471.040   2890.709    471.040    659.109    471.040
115.470   3491.000   3413.213     77.787    471.130   3236.850    471.130    646.922    471.130
115.570   3930.000   3767.920    162.080    471.225   3603.897    471.225    634.636    471.225
115.670   4113.685   4138.292    -24.607    471.324   3986.522    471.324    622.451    471.324
115.770   4492.000   4517.849    -25.849    471.429   4378.081    471.429    610.530    471.429
115.870   4884.000   4898.840    -14.840    471.539   4770.691    471.539    599.010    471.539
115.970   5323.573   5272.391     51.182    471.654   5155.373    471.654    587.997    471.654
116.070   5600.000   5628.723    -28.723    471.774   5522.266    471.774    577.572    471.774
116.170   5858.764   5957.445    -98.681    471.900   5860.922    471.900    567.796    471.900
116.270   6122.249   6247.957   -125.708    472.030   6160.703    472.030    558.706    472.030
116.370   6657.000   6489.974    167.026    472.166   6411.304    472.166    550.324    472.166
116.470   6908.000   6674.180    233.820    472.307   6603.401    472.307    542.655    472.307
116.570   6833.428   6792.972     40.456    472.454   6729.398    472.454    535.691    472.454
116.670   6885.000   6841.189     43.811    472.605   6784.149    472.605    529.411    472.605
116.770   6723.878   6816.672    -92.794    472.763   6765.520    472.763    523.786    472.763
116.870   6757.000   6720.513     36.487    472.926   6674.635    472.926    518.782    472.926
116.970   6452.638   6556.910   -104.271    473.094   6515.727    473.094    514.356    473.094
117.070   6460.883   6332.679    128.203    473.269   6295.654    473.269    510.464    473.269
117.170   5944.000   6056.560   -112.560    473.448   6023.197    473.448    507.061    473.448
117.270   5427.000   5738.464   -311.464    473.634   5708.313    473.634    504.099    473.634
117.370   5192.000   5388.796   -196.796    473.825   5361.451    473.825    501.534    473.825
117.470   4867.000   5017.894   -150.894    474.023   4992.995    474.023    499.320    474.023
117.570   4758.098   4635.610    122.488    474.226   4612.836    474.226    497.418    474.226
117.670   4267.000   4250.981     16.019    474.435   4230.052    474.435    495.789    474.435
117.770   3880.000   3872.000      8.000    474.650   3852.672    474.650    494.397    474.650
117.870   3479.004   3505.474    -26.470    474.871   3487.537    474.871    493.212    474.871
117.970   3198.000   3156.975     41.025    475.098   3140.249    475.098    492.206    475.098
118.070   2890.000   2830.719     59.281    475.332   2815.050    475.332    491.353    475.332
118.170   2467.000   2529.682    -62.682    475.571   2514.940    475.571    490.632    475.571
118.270   2231.000   2255.668    -24.668    475.817   2241.743    475.817    490.025    475.817
118.370   1936.414   2009.426    -73.011    476.069   1996.225    476.069    489.516    476.069
118.470   1732.000   1790.800    -58.800    476.328   1778.247    476.328    489.092    476.328
118.570   1597.000   1598.892     -1.892    476.593   1586.920    476.593    488.741    476.593
118.670   1360.000   1432.220    -72.220    476.864   1420.776    476.864    488.454    476.864
118.770   1272.000   1288.890    -16.890    477.142   1277.926    477.142    488.223    477.142
118.870   1152.434   1166.739    -14.304    477.427   1156.216    477.427    488.042    477.427
118.970   1074.695   1063.477     11.218    477.718   1053.361    477.718    487.906    477.718
119.070    951.000    976.799    -25.799    478.016    967.060    478.016    487.810    478.016
119.170    900.000    904.478     -4.478    478.321    895.089    478.321    487.750    478.321
119.270    827.000    844.426    -17.426    478.632    835.367    478.632    487.720    478.632
119.370    779.000    794.751    -15.751    478.951    785.998    478.951    487.725    478.951
119.470    736.000    753.767    -17.767    479.276    745.297    479.276    487.761    479.276
119.570    762.111    720.004     42.108    479.608    711.798    479.608    487.824    479.608
119.670    668.000    692.208    -24.208    479.948    684.248    479.948    487.914    479.948
119.770    645.000    669.326    -24.326    480.294    661.595    480.294    488.030    480.294
119.870    655.000    650.484      4.516    480.648    642.964    480.648    488.171    480.648
119.970    648.000    634.968     13.032    481.008    627.642    481.008    488.338    481.008
120.070    603.000    622.199    -19.199    481.377    615.050    481.377    488.528    481.377
120.170    613.000    611.714      1.286    481.752    604.726    481.752    488.743    481.752
120.270    591.000    603.144    -12.144    482.135    596.301    482.135    488.981    482.135
120.370    594.742    596.197     -1.456    482.525    589.482    482.525    489.243    482.525
120.470    636.173    590.645     45.528    482.923    584.043    482.923    489.529    482.923
120.570    570.000    586.308    -16.308    483.328    579.801    483.328    489.839    483.328
120.670    559.000    583.044    -24.044    483.742    576.617    483.742    490.173    483.742
120.770    618.223    580.743     37.480    484.162    574.380    484.162    490.531    484.162
120.870    603.131    579.317     23.814    484.591    573.002    484.591    490.912    484.591
120.970    546.910    578.687    -31.777    485.027    572.411    485.027    491.310    485.027
121.070    538.000    578.807    -40.807    485.471    572.549    485.471    491.738    485.471
121.170    551.363    579.619    -28.256    485.923    573.361    485.923    492.191    485.923
121.270    622.000    581.074     40.926    486.383    574.801    486.383    492.667    486.383
121.370    582.000    583.122     -1.122    486.852    576.820    486.852    493.166    486.852
121.470    561.138    585.712    -24.574    487.328    579.367    487.328    493.688    487.328
121.570    578.000    588.790    -10.790    487.812    582.387    487.812    494.231    487.812
121.670    607.000    592.294     14.706    488.305    585.823    488.305    494.795    488.305
121.770    611.000    596.157     14.843    488.806    589.605    488.806    495.379    488.806
121.870    561.482    600.303    -38.821    489.315    593.661    489.315    495.981    489.315
121.970    589.000    604.649    -15.649    489.833    597.908    489.833    496.600    489.833
122.070    655.919    609.104     46.814    490.359    602.258    490.359    497.234    490.359
122.170    598.000    613.571    -15.571    490.894    606.615    490.894    497.881    490.894
122.270    567.879    617.947    -50.068    491.438    610.879    491.438    498.539    491.438
122.370    614.000    622.125     -8.125    491.990    614.946    491.990    499.205    491.990
122.470    599.018    625.999    -26.981    492.551    618.713    492.551    499.875    492.551
122.570    599.382    629.466    -30.084    493.121    622.080    493.121    500.547    493.121
122.670    622.000    632.432    -10.432    493.699    624.956    493.699    501.217    493.699
122.770    677.440    634.815     42.625    494.287    627.264    494.287    501.881    494.287
122.870    598.674    636.554    -37.879    494.883    628.945    494.883    502.537    494.883
122.970    679.000    637.609     41.391    495.489    629.964    495.489    503.179    495.489
123.070    641.000    637.967      3.033    496.104    630.310    496.104    503.807    496.104
123.170    664.000    637.639     26.361    496.728    629.997    496.728    504.416    496.728
123.270    620.250    636.657    -16.407    497.361    629.057    497.361    505.006    497.361
123.370    631.000    635.072     -4.072    498.003    627.544    498.003    505.576    498.003
123.470    584.294    632.948    -48.655    498.655    625.520    498.655    506.126    498.655
123.570    631.048    630.359      0.690    499.317    623.058    499.317    506.658    499.317
123.670    671.000    627.381     43.619    499.988    620.233    499.988    507.174    499.988
123.770    609.000    624.095    -15.095    500.669    617.122    500.669    507.677    500.669
123.870    577.839    620.578    -42.739    501.359    613.800    501.359    508.170    501.359
123.970    594.419    616.903    -22.484    502.059    610.336    502.059    508.656    502.059
124.070    658.643    613.139     45.504    502.769    606.795    502.769    509.140    502.769
124.170    647.058    609.344     37.714    503.488    603.232    503.488    509.625    503.488
124.270    605.000    605.568     -0.568    504.218    599.694    504.218    510.113    504.218
124.370    648.338    601.852     46.485    504.958    596.220    504.958    510.609    504.958
124.470    636.000    598.228     37.772    505.708    592.838    505.708    511.114    505.708
124.570    594.203    594.716     -0.513    506.467    589.566    506.467    511.631    506.467
124.670    572.930    591.330    -18.400    507.238    586.417    507.238    512.162    507.238
124.770    592.000    588.077      3.923    508.018    583.396    508.018    512.709    508.018
124.870    581.000    584.960     -3.960    508.809    580.504    508.809    513.273    508.809
124.970    597.000    581.977     15.023    509.610    577.738    509.610    513.856    509.610
