neutron_powder_diffraction_0175
R_wp: 4.005
Temperature (K): 1074.000
Counts: 83844.00
Wavelength (Ã…): 2.52098
COMMENTS
Test file for demonstrating the .xyy file format in Reel1.0
END OF HEADER
   tth       Y_obs     Y_calc      Y_res    Background    Phase_1_Nuc    Phase_1_Mag    Phase_2_Nuc    Phase_2_Mag
  9.970    606.000    570.389     35.611    569.663    570.335    569.663    569.716    569.663
 10.070    616.000    570.567     45.433    569.783    570.513    569.783    569.836    569.783
 10.170    580.516    570.747      9.769    569.897    570.693    569.897    569.950    569.897
 10.270    616.000    570.932     45.068    570.005    570.877    570.005    570.059    570.005
 10.370    580.000    571.122      8.878    570.106    571.068    570.106    570.161    570.106
 10.470    535.000    571.323    -36.323    570.202    571.268    570.202    570.257    570.202
 10.570    601.000    571.536     29.464    570.292    571.481    570.292    570.347    570.292
 10.670    572.836    571.767      1.069    570.377    571.711    570.377    570.432    570.377
 10.770    560.000    572.023    -12.023    570.455    571.967    570.455    570.510    570.455
 10.870    532.103    572.313    -40.210    570.528    572.257    570.528    570.583    570.528
 10.970    579.000    572.649      6.351    570.595    572.592    570.595    570.651    570.595
 11.070    605.000    573.049     31.951    570.657    572.992    570.657    570.713    570.657
 11.170    533.488    573.540    -40.052    570.713    573.482    570.713    570.769    570.713
 11.270    593.000    574.161     18.839    570.763    574.103    570.763    570.820    570.763
 11.370    600.000    574.984     25.016    570.809    574.925    570.809    570.865    570.809
 11.470    555.000    576.162    -21.162    570.848    576.102    570.848    570.905    570.848
 11.570    604.000    578.121     25.879    570.883    578.060    570.883    570.940    570.883
 11.670    569.143    582.057    -12.914    570.912    581.993    570.912    570.970    570.912
 11.770    634.000    590.687     43.313    570.936    590.618    570.936    570.994    570.936
 11.870    655.000    608.306     46.694    570.955    608.227    570.955    571.013    570.955
 11.970    626.839    638.136    -11.297    570.969    638.039    570.969    571.027    570.969
 12.070    659.000    676.248    -17.248    570.977    676.129    570.977    571.036    570.977
 12.170    699.000    706.111     -7.111    570.981    705.974    570.981    571.040    570.981
 12.270    683.524    707.082    -23.558    570.979    706.944    570.979    571.039    570.979
 12.370    667.000    678.292    -11.292    570.973    678.170    570.973    571.033    570.973
 12.470    644.000    640.018      3.982    570.962    639.919    570.962    571.022    570.962
 12.570    591.000    609.524    -18.524    570.946    609.442    570.946    571.006    570.946
 12.670    531.000    591.312    -60.312    570.925    591.239    570.925    570.987    570.925
 12.770    578.687    582.340     -3.653    570.900    582.271    570.900    570.962    570.900
 12.870    552.000    578.256    -26.256    570.870    578.189    570.870    570.932    570.870
 12.970    561.000    576.241    -15.241    570.835    576.175    570.835    570.898    570.835
 13.070    596.000    575.042     20.958    570.796    574.977    570.796    570.859    570.796
 13.170    547.000    574.211    -27.211    570.752    574.146    570.752    570.815    570.752
 13.270    618.219    573.586     44.633    570.703    573.521    570.703    570.767    570.703
 13.370    549.398    573.096    -23.698    570.651    573.031    570.651    570.714    570.651
 13.470    527.334    572.700    -45.366    570.593    572.635    570.593    570.658    570.593
 13.570    528.286    572.372    -44.085    570.532    572.306    570.532    570.596    570.532
 13.670    566.000    572.089     -6.089    570.466    572.024    570.466    570.531    570.466
 13.770    576.486    571.843      4.643    570.396    571.777    570.396    570.461    570.396
 13.870    533.663    571.623    -37.960    570.322    571.557    570.322    570.387    570.322
 13.970    602.000    571.423     30.577    570.243    571.357    570.243    570.309    570.243
 14.070    579.000    571.241      7.759    570.161    571.175    570.161    570.227    570.161
 14.170    561.000    571.069    -10.069    570.074    571.002    570.074    570.141    570.074
 14.270    524.000    570.905    -46.905    569.984    570.837    569.984    570.051    569.984
 14.370    599.299    570.746     28.553    569.889    570.678    569.889    569.956    569.889
 14.470    552.000    570.592    -18.592    569.791    570.524    569.791    569.858    569.791
 14.570    564.000    570.441     -6.441    569.688    570.373    569.688    569.756    569.688
 14.670    537.000    570.293    -33.293    569.582    570.224    569.582    569.650    569.582
 14.770    580.000    570.146      9.854    569.472    570.077    569.472    569.541    569.472
 14.870    517.000    569.999    -52.999    569.358    569.930    569.358    569.427    569.358
 14.970    598.261    569.852     28.409    569.241    569.783    569.241    569.310    569.241
 15.070    595.876    569.706     26.170    569.120    569.635    569.120    569.190    569.120
 15.170    533.000    569.558    -36.558    568.995    569.487    568.995    569.065    568.995
 15.270    548.222    569.409    -21.187    568.867    569.338    568.867    568.937    568.867
 15.370    550.000    569.259    -19.259    568.735    569.188    568.735    568.806    568.735
 15.470    561.863    569.107     -7.244    568.600    569.035    568.600    568.671    568.600
 15.570    589.000    568.954     20.046    568.461    568.881    568.461    568.533    568.461
 15.670    521.588    568.803    -47.215    568.319    568.726    568.319    568.395    568.319
 15.770    528.000    568.647    -40.647    568.173    568.568    568.173    568.252    568.173
 15.870    591.000    568.488     22.512    568.024    568.408    568.024    568.104    568.024
 15.970    598.000    568.326     29.674    567.872    568.246    567.872    567.952    567.872
 16.070    566.014    568.162     -2.148    567.717    568.082    567.717    567.797    567.717
 16.170    575.000    567.996      7.004    567.558    567.915    567.558    567.639    567.558
 16.270    556.000    567.827    -11.827    567.396    567.746    567.396    567.478    567.396
 16.370    606.000    567.657     38.343    567.232    567.575    567.232    567.313    567.232
 16.470    542.000    567.484    -25.484    567.064    567.402    567.064    567.146    567.064
 16.570    571.593    567.308      4.285    566.893    567.226    566.893    566.975    566.893
 16.670    532.000    567.133    -35.133    566.719    567.050    566.719    566.802    566.719
 16.770    579.000    566.953     12.047    566.542    566.869    566.542    566.626    566.542
 16.870    563.000    566.770     -3.770    566.362    566.686    566.362    566.446    566.362
 16.970    539.000    566.585    -27.585    566.180    566.500    566.180    566.264    566.180
 17.070    603.000    566.398     36.602    565.994    566.312    565.994    566.079    565.994
 17.170    662.000    566.208     95.792    565.806    566.122    565.806    565.892    565.806
 17.270    566.453    566.015      0.438    565.615    565.929    565.615    565.701    565.615
 17.370    591.000    565.821     25.179    565.421    565.734    565.421    565.508    565.421
 17.470    534.000    565.624    -31.624    565.225    565.536    565.225    565.312    565.225
 17.570    584.854    565.425     19.429    565.026    565.337    565.026    565.114    565.026
 17.670    555.000    565.224    -10.224    564.824    565.135    564.824    564.913    564.824
 17.770    576.391    565.020     11.371    564.620    564.931    564.620    564.709    564.620
 17.870    535.000    564.814    -29.814    564.413    564.724    564.413    564.503    564.413
 17.970    580.336    564.606     15.730    564.204    564.516    564.204    564.294    564.204
 18.070    563.000    564.397     -1.397    563.992    564.306    563.992    564.083    563.992
 18.170    583.087    564.186     18.900    563.778    564.095    563.778    563.870    563.778
 18.270    539.000    563.972    -24.972    563.562    563.880    563.562    563.654    563.562
 18.370    546.000    563.756    -17.756    563.343    563.663    563.343    563.436    563.343
 18.470    573.000    563.538      9.462    563.122    563.444    563.122    563.216    563.122
 18.570    595.000    563.317     31.683    562.898    563.223    562.898    562.993    562.898
 18.670    575.000    563.095     11.905    562.673    563.000    562.673    562.768    562.673
 18.770    587.936    562.871     25.065    562.445    562.775    562.445    562.541    562.445
 18.870    602.000    562.645     39.355    562.215    562.548    562.215    562.312    562.215
 18.970    523.257    562.418    -39.162    561.983    562.321    561.983    562.080    561.983
 19.070    536.365    562.202    -25.837    561.749    562.104    561.749    561.847    561.749
 19.170    561.000    561.981     -0.981    561.513    561.882    561.513    561.612    561.513
 19.270    536.000    561.749    -25.749    561.275    561.650    561.275    561.374    561.275
 19.370    594.518    561.515     33.003    561.034    561.414    561.034    561.135    561.034
 19.470    590.000    561.279     28.721    560.792    561.177    560.792    560.894    560.792
 19.570    527.000    561.041    -34.041    560.548    560.939    560.548    560.650    560.548
 19.670    558.000    560.802     -2.802    560.302    560.699    560.302    560.405    560.302
 19.770    596.000    560.561     35.439    560.054    560.457    560.054    560.158    560.054
 19.870    541.000    560.319    -19.319    559.805    560.214    559.805    559.910    559.805
 19.970    603.104    560.076     43.029    559.554    559.970    559.554    559.659    559.554
 20.070    577.832    559.831     18.001    559.300    559.724    559.300    559.407    559.300
 20.170    552.323    559.585     -7.263    559.046    559.478    559.046    559.153    559.046
 20.270    584.746    559.338     25.408    558.789    559.230    558.789    558.898    558.789
 20.370    535.131    559.092    -23.961    558.531    558.980    558.531    558.643    558.531
 20.470    568.469    558.844      9.625    558.271    558.730    558.271    558.385    558.271
 20.570    570.000    558.594     11.406    558.010    558.479    558.010    558.124    558.010
 20.670    560.000    558.343      1.657    557.747    558.227    557.747    557.863    557.747
 20.770    478.000    558.091    -80.091    557.483    557.974    557.483    557.599    557.483
 20.870    542.000    557.838    -15.838    557.217    557.720    557.217    557.335    557.217
 20.970    566.590    557.585      9.005    556.949    557.466    556.949    557.069    556.949
 21.070    548.042    557.340     -9.298    556.681    557.219    556.681    556.801    556.681
 21.170    556.000    557.172     -1.172    556.410    557.050    556.410    556.532    556.410
 21.270    535.000    556.940    -21.940    556.139    556.818    556.139    556.262    556.139
 21.370    524.000    556.690    -32.690    555.866    556.565    555.866    555.990    555.866
 21.470    540.037    556.440    -16.403    555.592    556.315    555.592    555.718    555.592
 21.570    564.000    556.190      7.810    555.316    556.063    555.316    555.444    555.316
 21.670    591.780    555.936     35.844    555.040    555.808    555.040    555.168    555.040
 21.770    527.000    555.685    -28.685    554.762    555.555    554.762    554.892    554.762
 21.870    575.000    555.454     19.546    554.483    555.323    554.483    554.614    554.483
 21.970    542.757    555.231    -12.474    554.203    555.098    554.203    554.336    554.203
 22.070    519.000    554.989    -35.989    553.921    554.854    553.921    554.056    553.921
 22.170    557.000    554.787      2.213    553.639    554.650    553.639    553.775    553.639
 22.270    548.000    554.560     -6.560    553.356    554.422    553.356    553.494    553.356
 22.370    555.000    554.318      0.682    553.071    554.179    553.071    553.211    553.071
 22.470    564.000    554.079      9.921    552.786    553.938    552.786    552.927    552.786
 22.570    537.000    553.844    -16.844    552.499    553.700    552.499    552.643    552.499
 22.670    576.962    553.614     23.348    552.212    553.468    552.212    552.357    552.212
 22.770    515.258    553.389    -38.131    551.923    553.242    551.923    552.071    551.923
 22.870    561.000    553.173      7.827    551.634    553.023    551.634    551.784    551.634
 22.970    571.000    552.965     18.035    551.344    552.813    551.344    551.496    551.344
 23.070    541.000    552.769    -11.769    551.053    552.615    551.053    551.208    551.053
 23.170    560.000    552.586      7.414    550.761    552.430    550.761    550.918    550.761
 23.270    525.646    552.422    -26.776    550.469    552.264    550.469    550.628    550.469
 23.370    507.000    552.281    -45.281    550.176    552.120    550.176    550.338    550.176
 23.470    563.000    552.171     10.829    549.882    552.007    549.882    550.046    549.882
 23.570    561.000    552.101      8.899    549.587    551.934    549.587    549.754    549.587
 23.670    555.174    552.083      3.091    549.292    551.913    549.292    549.462    549.292
 23.770    536.000    552.138    -16.138    548.996    551.966    548.996    549.169    548.996
 23.870    508.508    552.299    -43.790    548.699    552.123    548.699    548.876    548.699
 23.970    555.158    552.625      2.534    548.402    552.447    548.402    548.582    548.402
 24.070    551.000    553.260     -2.260    548.104    553.079    548.104    548.288    548.104
 24.170    546.000    554.604     -8.604    547.806    554.420    547.806    547.993    547.806
 24.270    537.000    557.670    -20.670    547.507    557.485    547.507    547.698    547.507
 24.370    601.390    564.475     36.914    547.208    564.291    547.208    547.403    547.208
 24.470    561.000    577.654    -16.654    546.908    577.475    546.908    547.107    546.908
 24.570    561.544    598.294    -36.750    546.607    598.125    546.607    546.812    546.607
 24.670    648.281    622.283     25.998    546.307    622.126    546.307    546.516    546.307
 24.770    653.082    638.031     15.051    546.006    637.880    546.006    546.220    546.006
 24.870    673.922    634.206     39.716    545.704    634.048    545.704    545.924    545.704
 24.970    642.000    613.859     28.141    545.403    613.681    545.403    545.627    545.403
 25.070    583.000    589.742     -6.742    545.100    589.541    545.100    545.331    545.100
 25.170    563.000    570.974     -7.974    544.798    570.754    544.798    545.035    544.798
 25.270    602.617    559.602     43.015    544.495    559.367    544.495    544.739    544.495
 25.370    601.000    553.740     47.260    544.193    553.494    544.193    544.444    544.193
 25.470    498.000    550.873    -52.873    543.889    550.618    543.889    544.148    543.889
 25.570    539.000    549.343    -10.343    543.586    549.078    543.586    543.853    543.586
 25.670    555.000    548.355      6.645    543.282    548.081    543.282    543.558    543.282
 25.770    509.797    547.624    -37.827    542.979    547.340    542.979    543.264    542.979
 25.870    507.309    547.049    -39.740    542.675    546.754    542.675    542.970    542.675
 25.970    524.000    546.606    -22.606    542.371    546.300    542.371    542.677    542.371
 26.070    577.000    546.243     30.757    542.067    545.926    542.067    542.385    542.067
 26.170    544.000    545.928     -1.928    541.763    545.597    541.763    542.094    541.763
 26.270    556.000    545.662     10.338    541.459    545.317    541.459    541.804    541.459
 26.370    535.243    545.448    -10.204    541.155    545.088    541.155    541.515    541.155
 26.470    511.586    545.285    -33.699    540.851    544.909    540.851    541.227    540.851
 26.570    571.386    545.177     26.208    540.546    544.783    540.546    540.941    540.546
 26.670    567.012    545.130     21.882    540.242    544.716    540.242    540.656    540.242
 26.770    522.747    545.161    -22.414    539.938    544.725    539.938    540.374    539.938
 26.870    534.000    545.286    -11.286    539.634    544.826    539.634    540.094    539.634
 26.970    547.416    545.487      1.929    539.330    545.001    539.330    539.816    539.330
 27.070    571.937    545.813     26.125    539.027    545.297    539.027    539.542    539.027
 27.170    586.646    546.303     40.343    538.723    545.754    538.723    539.271    538.723
 27.270    522.971    547.017    -24.046    538.420    546.431    538.420    539.005    538.420
 27.370    547.000    548.046     -1.046    538.116    547.418    538.116    538.743    538.116
 27.470    569.000    549.552     19.448    537.813    548.877    537.813    538.487    537.813
 27.570    590.710    551.966     38.744    537.511    551.236    537.511    538.238    537.511
 27.670    574.000    556.753     17.247    537.208    555.961    537.208    537.996    537.208
 27.770    583.129    568.722     14.407    536.906    567.856    536.906    537.764    536.906
 27.870    626.921    599.575     27.346    536.604    598.616    536.604    537.544    536.604
 27.970    705.222    666.770     38.452    536.302    665.694    536.302    537.338    536.302
 28.070    832.000    777.211     54.789    536.001    775.990    536.001    537.149    536.001
 28.170    899.000    899.687     -0.687    535.700    898.305    535.700    536.982    535.700
 28.270    971.000    960.091     10.909    535.399    958.550    535.399    536.843    535.399
 28.370    881.000    909.542    -28.542    535.099    907.840    535.099    536.739    535.099
 28.470    763.700    800.341    -36.641    534.799    798.429    534.799    536.683    534.799
 28.570    704.000    715.650    -11.650    534.499    713.442    534.499    536.695    534.499
 28.670    710.673    698.499     12.174    534.200    695.876    534.200    536.806    534.200
 28.770    744.000    744.314     -0.314    533.901    741.121    533.901    537.073    533.901
 28.870    844.435    813.251     31.184    533.603    809.255    533.603    537.585    533.603
 28.970    795.359    845.721    -50.363    533.306    840.554    533.306    538.474    533.306
 29.070    763.000    806.376    -43.376    533.008    799.482    533.008    539.913    533.008
 29.170    707.000    725.875    -18.875    532.712    716.507    532.712    542.090    532.712
 29.270    690.948    651.610     39.338    532.416    638.886    532.416    545.147    532.416
 29.370    574.000    605.118    -31.118    532.120    588.179    532.120    549.062    532.120
 29.470    594.000    583.960     10.040    531.825    562.346    531.825    553.438    531.825
 29.570    615.000    576.664     38.336    531.531    550.983    531.531    557.209    531.531
 29.670    629.000    573.426     55.574    531.237    545.896    531.237    558.765    531.237
 29.770    636.000    569.356     66.644    530.944    543.158    530.944    557.140    530.944
 29.870    618.000    563.795     54.205    530.651    541.378    530.651    553.066    530.651
 29.970    584.000    557.901     26.099    530.359    540.127    530.359    548.131    530.359
 30.070    572.000    552.711     19.289    530.068    539.263    530.068    543.513    530.068
 30.170    550.000    548.697      1.303    529.777    538.761    529.777    539.711    529.777
 30.270    573.000    546.043     26.957    529.487    538.730    529.487    536.798    529.487
 30.370    525.000    545.074    -20.074    529.198    539.616    529.198    534.653    529.198
 30.470    567.000    546.764     20.236    528.910    542.575    528.910    533.092    528.910
 30.570    567.243    553.039     14.204    528.622    549.712    528.622    531.937    528.622
 30.670    592.146    566.013     26.132    528.335    563.277    528.335    531.049    528.335
 30.770    556.081    585.444    -29.363    528.049    583.126    528.049    530.329    528.049
 30.870    591.000    605.542    -14.542    527.764    603.535    527.764    529.718    527.764
 30.970    608.000    614.682     -6.682    527.479    612.925    527.479    529.181    527.479
 31.070    620.000    605.179     14.821    527.195    603.634    527.195    528.694    527.195
 31.170    574.000    584.155    -10.155    526.912    582.792    526.912    528.246    526.912
 31.270    528.323    563.230    -34.906    526.630    562.017    526.630    527.827    526.630
 31.370    525.000    548.429    -23.429    526.349    547.339    526.349    527.431    526.349
 31.470    552.000    540.104     11.896    526.069    539.115    526.069    527.053    526.069
 31.570    515.266    536.049    -20.783    525.789    535.144    525.789    526.691    525.789
 31.670    528.000    534.112     -6.112    525.511    533.279    525.511    526.342    525.511
 31.770    499.526    533.062    -33.536    525.233    532.290    525.233    526.003    525.233
 31.870    484.000    532.387    -48.387    524.957    531.668    524.957    525.673    524.957
 31.970    511.000    531.914    -20.914    524.681    531.242    524.681    525.351    524.681
 32.070    532.992    531.584      1.408    524.406    530.953    524.406    525.035    524.406
 32.170    488.505    531.373    -42.869    524.132    530.779    524.132    524.726    524.132
 32.270    504.000    531.274    -27.274    523.859    530.712    523.859    524.421    523.859
 32.370    536.000    531.288      4.712    523.587    530.753    523.587    524.120    523.587
 32.470    574.000    531.422     42.578    523.316    530.913    523.316    523.824    523.316
 32.570    575.000    531.695     43.305    523.047    531.208    523.047    523.532    523.047
 32.670    494.368    532.132    -37.764    522.778    531.666    522.778    523.242    522.778
 32.770    570.000    532.774     37.226    522.510    532.326    522.510    522.956    522.510
 32.870    539.000    533.678      5.322    522.243    533.247    522.243    522.673    522.243
 32.970    554.000    534.929     19.071    521.977    534.513    521.977    522.392    521.977
 33.070    563.863    536.661     27.201    521.713    536.258    521.713    522.114    521.713
 33.170    498.332    539.117    -40.785    521.449    538.726    521.449    521.838    521.449
 33.270    562.307    542.860     19.447    521.187    542.480    521.187    521.564    521.187
 33.370    568.000    549.409     18.591    520.925    549.038    520.925    521.293    520.925
 33.470    545.306    562.688    -17.383    520.665    562.324    520.665    521.023    520.665
 33.570    596.000    591.030      4.970    520.406    590.668    520.406    520.756    520.406
 33.670    603.614    647.343    -43.729    520.148    646.978    520.148    520.490    520.148
 33.770    768.000    742.996     25.004    519.891    742.622    519.891    520.226    519.891
 33.870    904.247    873.795     30.451    519.636    873.409    519.636    519.964    519.636
 33.970    984.235   1004.347    -20.112    519.381   1003.955    519.381    519.703    519.381
 34.070   1051.000   1068.164    -17.164    519.128   1067.786    519.128    519.444    519.128
 34.170   1014.000   1020.218     -6.218    518.876   1019.872    518.876    519.187    518.876
 34.270    911.000    895.777     15.223    518.625    895.462    518.625    518.932    518.625
 34.370    757.000    761.722     -4.722    518.375    761.424    518.375    518.678    518.375
 34.470    637.000    658.989    -21.989    518.127    658.697    518.127    518.426    518.127
 34.570    572.000    596.076    -24.076    517.879    595.785    517.879    518.175    517.879
 34.670    567.000    563.267      3.733    517.633    562.977    517.633    517.926    517.633
 34.770    579.075    547.439     31.636    517.389    547.150    517.389    517.678    517.389
 34.870    564.000    539.461     24.539    517.145    539.174    517.145    517.432    517.145
 34.970    506.000    534.787    -28.787    516.903    534.502    516.903    517.187    516.903
 35.070    550.000    531.586     18.414    516.662    531.304    516.662    516.944    516.662
 35.170    518.000    529.178    -11.178    516.422    528.897    516.422    516.702    516.422
 35.270    504.000    527.276    -23.276    516.184    526.998    516.184    516.462    516.184
 35.370    482.017    525.733    -43.716    515.947    525.456    515.947    516.224    515.947
 35.470    544.000    524.455     19.545    515.711    524.179    515.711    515.986    515.711
 35.570    527.000    523.376      3.624    515.476    523.102    515.476    515.751    515.476
 35.670    494.631    522.452    -27.821    515.243    522.178    515.243    515.517    515.243
 35.770    474.000    521.649    -47.649    515.011    521.377    515.011    515.284    515.011
 35.870    522.000    520.944      1.056    514.781    520.672    514.781    515.053    514.781
 35.970    519.000    520.318     -1.318    514.552    520.047    514.552    514.823    514.552
 36.070    504.000    519.757    -15.757    514.324    519.487    514.324    514.595    514.324
 36.170    556.371    519.252     37.119    514.098    518.982    514.098    514.368    514.098
 36.270    543.000    518.795     24.205    513.873    518.525    513.873    514.143    513.873
 36.370    527.368    518.381      8.987    513.649    518.111    513.649    513.919    513.649
 36.470    530.000    518.006     11.994    513.427    517.736    513.427    513.697    513.427
 36.570    528.835    517.669     11.166    513.206    517.399    513.206    513.476    513.206
 36.670    529.519    517.372     12.147    512.986    517.101    512.986    513.257    512.986
 36.770    480.272    517.121    -36.849    512.768    516.850    512.768    513.039    512.768
 36.870    518.000    516.939      1.061    512.551    516.667    512.551    512.823    512.551
 36.970    526.018    516.880      9.137    512.336    516.608    512.336    512.608    512.336
 37.070    502.081    517.073    -14.992    512.122    516.800    512.122    512.395    512.122
 37.170    498.000    517.746    -19.746    511.910    517.473    511.910    512.183    511.910
 37.270    520.000    519.208      0.792    511.699    518.934    511.699    511.973    511.699
 37.370    485.861    521.692    -35.831    511.489    521.417    511.489    511.764    511.489
 37.470    521.000    525.075     -4.075    511.281    524.800    511.281    511.557    511.281
 37.570    567.968    528.584     39.384    511.074    528.309    511.074    511.352    511.074
 37.670    526.000    530.776     -4.776    510.869    530.501    510.869    511.148    510.869
 37.770    496.571    530.460    -33.890    510.665    530.187    510.665    510.945    510.665
 37.870    504.000    527.932    -23.932    510.463    527.659    510.463    510.744    510.463
 37.970    529.000    524.478      4.522    510.262    524.205    510.262    510.545    510.262
 38.070    559.490    521.120     38.370    510.063    520.847    510.063    510.347    510.063
 38.170    516.000    518.298     -2.298    509.865    518.021    509.865    510.151    509.865
 38.270    493.000    516.153    -23.153    509.669    515.872    509.669    509.956    509.669
 38.370    538.000    514.649     23.351    509.474    514.364    509.474    509.763    509.474
 38.470    502.000    513.641    -11.641    509.280    513.353    509.280    509.572    509.280
 38.570    551.605    512.971     38.635    509.088    512.679    509.088    509.382    509.088
 38.670    503.000    512.507     -9.507    508.898    512.212    508.898    509.193    508.898
 38.770    513.000    512.159      0.841    508.709    511.862    508.709    509.007    508.709
 38.870    473.000    511.874    -38.874    508.522    511.575    508.522    508.821    508.522
 38.970    527.000    511.625     15.375    508.336    511.323    508.336    508.638    508.336
 39.070    481.000    511.397    -30.397    508.152    511.093    508.152    508.456    508.152
 39.170    534.000    511.185     22.815    507.969    510.879    507.969    508.276    507.969
 39.270    483.000    510.987    -27.987    507.787    510.678    507.787    508.097    507.787
 39.370    517.000    510.800      6.200    507.608    510.488    507.608    507.920    507.608
 39.470    524.000    510.622     13.378    507.430    510.307    507.430    507.745    507.430
 39.570    551.839    510.453     41.385    507.253    510.136    507.253    507.571    507.253
 39.670    532.000    510.293     21.707    507.078    509.973    507.078    507.399    507.078
 39.770    527.200    510.141     17.059    506.904    509.818    506.904    507.228    506.904
 39.870    492.256    509.998    -17.742    506.732    509.671    506.732    507.059    506.732
 39.970    497.271    509.862    -12.591    506.562    509.532    506.562    506.892    506.562
 40.070    532.686    509.735     22.951    506.393    509.402    506.393    506.726    506.393
 40.170    482.920    509.617    -26.697    506.225    509.280    506.225    506.563    506.225
 40.270    505.000    509.509     -4.509    506.060    509.168    506.060    506.400    506.060
 40.370    526.387    509.410     16.977    505.895    509.066    505.895    506.240    505.895
 40.470    509.448    509.324      0.125    505.733    508.976    505.733    506.081    505.733
 40.570    474.000    509.250    -35.250    505.572    508.898    505.572    505.924    505.572
 40.670    506.000    509.191     -3.191    505.412    508.835    505.412    505.768    505.412
 40.770    475.049    509.148    -34.099    505.254    508.788    505.254    505.615    505.254
 40.870    469.827    509.126    -39.299    505.098    508.761    505.098    505.463    505.098
 40.970    478.507    509.127    -30.619    504.943    508.758    504.943    505.312    504.943
 41.070    507.234    509.156     -1.921    504.790    508.782    504.790    505.164    504.790
 41.170    477.000    509.220    -32.220    504.638    508.842    504.638    505.017    504.638
 41.270    549.000    509.327     39.673    504.488    508.944    504.488    504.872    504.488
 41.370    549.906    509.489     40.417    504.339    509.101    504.339    504.728    504.339
 41.470    507.970    509.723     -1.753    504.192    509.330    504.192    504.587    504.192
 41.570    483.369    510.055    -26.687    504.047    509.657    504.047    504.447    504.047
 41.670    518.000    510.535      7.465    503.903    510.131    503.903    504.309    503.903
 41.770    484.000    511.271    -27.271    503.761    510.862    503.761    504.172    503.761
 41.870    502.000    512.522    -10.522    503.620    512.107    503.620    504.038    503.620
 41.970    485.202    514.868    -29.666    503.481    514.449    503.481    503.905    503.481
 42.070    507.000    519.432    -12.432    503.344    519.008    503.344    503.774    503.344
 42.170    537.000    527.950      9.050    503.208    527.523    503.208    503.645    503.208
 42.270    548.000    542.341      5.659    503.074    541.913    503.074    503.518    503.074
 42.370    558.000    563.512     -5.512    502.941    563.087    502.941    503.392    502.941
 42.470    634.822    589.636     45.186    502.810    589.216    502.810    503.268    502.810
 42.570    572.560    614.675    -42.114    502.681    614.261    502.681    503.147    502.681
 42.670    579.000    628.933    -49.933    502.553    628.521    502.553    503.027    502.553
 42.770    556.000    625.050    -69.050    502.427    624.631    502.427    502.909    502.427
 42.870    550.000    605.261    -55.261    502.302    604.825    502.302    502.793    502.302
 42.970    543.613    578.766    -35.153    502.179    578.309    502.179    502.679    502.179
 43.070    535.000    554.033    -19.033    502.057    553.552    502.057    502.567    502.057
 43.170    543.000    535.339      7.661    501.937    534.838    501.937    502.456    501.937
 43.270    512.000    523.252    -11.252    501.819    522.733    501.819    502.348    501.819
 43.370    527.513    516.309     11.204    501.702    515.776    501.702    502.242    501.702
 43.470    535.000    512.588     22.412    501.587    512.041    501.587    502.138    501.587
 43.570    540.000    510.585     29.415    501.473    510.025    501.473    502.036    501.473
 43.670    535.000    509.412     25.588    501.361    508.840    501.361    501.936    501.361
 43.770    482.163    508.637    -26.474    501.251    508.051    501.251    501.838    501.251
 43.870    515.000    508.068      6.932    501.142    507.470    501.142    501.742    501.142
 43.970    493.000    507.628    -14.628    501.035    507.015    501.035    501.649    501.035
 44.070    495.000    507.276    -12.276    500.929    506.649    500.929    501.557    500.929
 44.170    489.000    506.992    -17.992    500.825    506.350    500.825    501.468    500.825
 44.270    542.683    506.761     35.922    500.723    506.103    500.723    501.382    500.723
 44.370    492.000    506.573    -14.573    500.622    505.898    500.622    501.297    500.622
 44.470    507.449    506.421      1.028    500.522    505.728    500.522    501.215    500.522
 44.570    481.820    506.298    -24.479    500.425    505.587    500.425    501.136    500.425
 44.670    499.671    506.202     -6.531    500.328    505.471    500.328    501.059    500.328
 44.770    509.000    506.129      2.871    500.234    505.378    500.234    500.985    500.234
 44.870    533.629    506.077     27.552    500.141    505.304    500.141    500.914    500.141
 44.970    504.000    506.044     -2.044    500.049    505.249    500.049    500.845    500.049
 45.070    491.000    506.030    -15.030    499.959    505.210    499.959    500.779    499.959
 45.170    495.000    506.034    -11.034    499.871    505.189    499.871    500.717    499.871
 45.270    528.000    506.056     21.944    499.784    505.183    499.784    500.657    499.784
 45.370    492.309    506.096    -13.786    499.699    505.193    499.699    500.601    499.699
 45.470    495.000    506.153    -11.153    499.615    505.220    499.615    500.549    499.615
 45.570    546.000    506.230     39.770    499.533    505.263    499.533    500.500    499.533
 45.670    517.919    506.326     11.593    499.452    505.324    499.452    500.454    499.452
 45.770    516.000    506.444      9.556    499.373    505.404    499.373    500.413    499.373
 45.870    508.635    506.585      2.050    499.296    505.504    499.296    500.377    499.296
 45.970    497.000    506.752     -9.752    499.220    505.627    499.220    500.345    499.220
 46.070    521.000    506.948     14.052    499.146    505.775    499.146    500.318    499.146
 46.170    500.000    507.176     -7.176    499.073    505.952    499.073    500.296    499.073
 46.270    482.000    507.441    -25.441    499.001    506.161    499.001    500.280    499.001
 46.370    519.745    507.749     11.996    498.932    506.409    498.932    500.270    498.932
 46.470    521.000    508.109     12.891    498.863    506.704    498.863    500.268    498.863
 46.570    484.525    508.532    -24.007    498.796    507.055    498.796    500.273    498.796
 46.670    531.000    509.034     21.966    498.731    507.478    498.731    500.286    498.731
 46.770    502.000    509.646     -7.646    498.668    508.003    498.668    500.309    498.668
 46.870    502.000    510.428     -8.428    498.605    508.689    498.605    500.342    498.605
 46.970    535.856    511.515     24.341    498.545    509.670    498.545    500.386    498.545
 47.070    526.000    513.189     12.811    498.485    511.226    498.485    500.444    498.485
 47.170    526.000    515.975     10.025    498.428    513.879    498.428    500.518    498.428
 47.270    534.000    520.694     13.306    498.372    518.448    498.372    500.608    498.372
 47.370    493.000    528.339    -35.339    498.317    525.922    498.317    500.719    498.317
 47.470    537.000    539.661     -2.661    498.264    537.049    498.264    500.853    498.264
 47.570    594.713    554.494     40.219    498.212    551.658    498.212    501.014    498.212
 47.670    576.000    571.041      4.959    498.162    567.949    498.162    501.208    498.162
 47.770    616.000    585.479     30.521    498.113    582.096    498.113    501.441    498.113
 47.870    596.362    592.754      3.608    498.066    589.040    498.066    501.722    498.066
 47.970    605.000    589.896     15.104    498.020    585.801    498.020    502.061    498.020
 48.070    557.000    578.933    -21.933    497.975    574.390    497.975    502.474    497.975
 48.170    542.147    564.788    -22.641    497.933    559.702    497.933    502.987    497.933
 48.270    585.889    551.784     34.105    497.891    546.016    497.891    503.637    497.891
 48.370    495.000    542.293    -47.293    497.851    535.643    497.851    504.487    497.851
 48.470    559.603    536.976     22.627    497.813    529.141    497.813    505.639    497.813
 48.570    539.000    535.465      3.535    497.776    525.980    497.776    507.254    497.776
 48.670    580.275    537.090     43.185    497.740    525.259    497.740    509.567    497.740
 48.770    558.000    541.385     16.615    497.706    526.188    497.706    512.898    497.706
 48.870    538.099    548.254    -10.155    497.673    528.294    497.673    517.628    497.673
 48.970    559.000    557.928      1.072    497.641    531.428    497.641    524.137    497.641
 49.070    616.633    570.846     45.787    497.612    535.756    497.612    532.697    497.612
 49.170    580.000    587.672     -7.672    497.583    541.941    497.583    543.307    497.583
 49.270    625.000    609.718     15.282    497.556    551.796    497.556    555.469    497.556
 49.370    657.476    640.196     17.281    497.530    569.820    497.530    567.892    497.530
 49.470    735.782    686.671     49.110    497.506    605.885    497.506    578.267    497.506
 49.570    849.000    764.496     84.504    497.483    678.225    497.483    583.709    497.483
 49.670    888.543    898.601    -10.058    497.461    813.673    497.461    582.311    497.461
 49.770   1078.207   1117.558    -39.350    497.441   1040.264    497.441    574.614    497.441
 49.870   1458.000   1435.320     22.680    497.422   1369.455    497.422    563.126    497.422
 49.970   1807.489   1826.448    -18.958    497.405   1773.079    497.405    550.597    497.405
 50.070   2177.000   2210.378    -33.378    497.389   2168.697    497.389    538.925    497.389
 50.170   2442.000   2463.794    -21.794    497.374   2432.051    497.374    529.063    497.374
 50.270   2514.742   2479.594     35.148    497.361   2455.729    497.361    521.291    497.361
 50.370   2292.000   2247.202     44.798    497.349   2229.224    497.349    515.483    497.349
 50.470   1836.264   1863.168    -26.904    497.338   1849.382    497.338    511.312    497.338
 50.570   1366.000   1455.489    -89.489    497.329   1444.602    497.329    508.389    497.329
 50.670   1077.000   1115.819    -38.819    497.320   1106.921    497.320    506.352    497.320
 50.770    826.000    880.457    -54.457    497.314    872.948    497.314    504.915    497.314
 50.870    748.594    741.706      6.889    497.308    735.206    497.308    503.872    497.308
 50.970    624.873    670.502    -45.628    497.304    664.766    497.304    503.087    497.304
 51.070    634.133    636.053     -1.920    497.301    630.917    497.301    502.475    497.301
 51.170    616.536    616.237      0.299    497.300    611.586    497.300    501.984    497.300
 51.270    629.000    599.933     29.067    497.300    595.679    497.300    501.582    497.300
 51.370    552.000    584.191    -32.191    497.301    580.266    497.301    501.248    497.301
 51.470    584.000    569.670     14.330    497.303    566.020    497.303    500.969    497.303
 51.570    606.000    557.552     48.448    497.307    554.136    497.307    500.734    497.307
 51.670    576.000    548.439     27.561    497.312    545.223    497.312    500.536    497.312
 51.770    573.437    542.251     31.186    497.318    539.205    497.318    500.369    497.318
 51.870    570.000    538.483     31.517    497.325    535.583    497.325    500.228    497.325
 51.970    581.856    536.520     45.336    497.334    533.746    497.334    500.110    497.334
 52.070    497.747    535.864    -38.117    497.343    533.197    497.343    500.012    497.343
 52.170    545.000    536.227      8.773    497.355    533.653    497.355    499.931    497.355
 52.270    572.000    537.564     34.436    497.367    535.067    497.367    499.865    497.367
 52.370    557.000    540.115     16.885    497.380    537.683    497.380    499.812    497.380
 52.470    564.290    544.583     19.708    497.395    542.206    497.395    499.772    497.395
 52.570    543.000    552.478     -9.478    497.411    550.146    497.411    499.743    497.411
 52.670    610.000    566.610     43.390    497.428    564.313    497.428    499.723    497.428
 52.770    583.000    591.489     -8.489    497.446    589.219    497.446    499.713    497.446
 52.870    631.000    633.149     -2.149    497.466    630.899    497.466    499.712    497.466
 52.970    691.405    697.769     -6.364    497.486    695.530    497.486    499.718    497.486
 53.070    813.608    788.813     24.795    497.508    786.578    497.508    499.733    497.508
 53.170    903.000    903.218     -0.218    497.531    900.985    497.531    499.754    497.531
 53.270   1019.000   1027.849     -8.849    497.555   1025.613    497.555    499.782    497.555
 53.370   1227.000   1137.886     89.114    497.580   1135.647    497.580    499.818    497.580
 53.470   1256.457   1201.265     55.193    497.607   1199.020    497.607    499.859    497.607
 53.570   1239.187   1194.602     44.585    497.634   1192.349    497.634    499.908    497.634
 53.670   1131.784   1120.835     10.949    497.663   1118.564    497.663    499.963    497.663
 53.770   1035.000   1006.515     28.485    497.692   1004.214    497.692    500.024    497.692
 53.870    880.000    882.980     -2.980    497.723    880.639    497.723    500.092    497.723
 53.970    768.046    772.898     -4.852    497.755    770.509    497.755    500.166    497.755
 54.070    716.000    687.352     28.648    497.788    684.908    497.788    500.247    497.788
 54.170    636.000    627.922      8.078    497.822    625.419    497.822    500.335    497.822
 54.270    585.000    590.396     -5.396    497.857    587.829    497.857    500.430    497.857
 54.370    554.787    568.480    -13.693    497.893    565.844    497.893    500.533    497.893
 54.470    535.062    556.376    -21.314    497.930    553.665    497.930    500.644    497.930
 54.570    556.132    549.902      6.231    497.969    547.109    497.969    500.762    497.969
 54.670    543.100    546.519     -3.419    498.008    543.639    498.008    500.890    498.008
 54.770    581.385    544.882     36.503    498.048    541.905    498.048    501.026    498.048
 54.870    512.610    544.348    -31.738    498.089    541.265    498.089    501.173    498.089
 54.970    515.364    544.638    -29.274    498.132    541.441    498.132    501.330    498.132
 55.070    553.000    545.648      7.352    498.175    542.325    498.175    501.498    498.175
 55.170    535.000    547.360    -12.360    498.219    543.901    498.219    501.679    498.219
 55.270    540.800    549.812     -9.011    498.265    546.204    498.265    501.873    498.265
 55.370    579.851    553.097     26.754    498.311    549.327    498.311    502.081    498.311
 55.470    599.108    557.389     41.719    498.358    553.441    498.358    502.306    498.358
 55.570    601.000    563.022     37.978    498.406    558.879    498.406    502.549    498.406
 55.670    571.000    570.687      0.313    498.455    566.332    498.455    502.810    498.455
 55.770    597.000    581.876     15.124    498.506    577.286    498.506    503.094    498.506
 55.870    575.000    599.706    -24.706    498.557    594.857    498.557    503.402    498.557
 55.970    601.000    630.215    -29.215    498.608    625.080    498.608    503.737    498.608
 56.070    703.000    683.820     19.180    498.661    678.365    498.661    504.102    498.661
 56.170    767.000    775.993     -8.993    498.715    770.181    498.715    504.502    498.715
 56.270    927.000    925.540      1.460    498.770    919.328    498.770    504.942    498.770
 56.370   1123.000   1148.972    -25.972    498.825   1142.314    498.825    505.426    498.825
 56.470   1354.000   1451.001    -97.001    498.882   1443.851    498.882    505.962    498.882
 56.570   1717.000   1813.787    -96.787    498.939   1806.100    498.939    506.557    498.939
 56.670   2134.000   2189.121    -55.121    498.997   2180.851    498.997    507.220    498.997
 56.770   2554.000   2498.579     55.421    499.056   2489.676    499.056    507.965    499.056
 56.870   2535.000   2652.434   -117.434    499.116   2642.831    499.116    508.804    499.116
 56.970   2559.243   2596.805    -37.562    499.176   2586.394    499.176    509.757    499.176
 57.070   2415.693   2353.694     61.999    499.238   2342.312    499.238    510.846    499.238
 57.170   1927.156   2002.509    -75.352    499.300   1989.945    499.300    512.102    499.300
 57.270   1565.222   1630.194    -64.972    499.363   1616.203    499.363    513.570    499.363
 57.370   1350.000   1299.865     50.135    499.427   1284.147    499.427    515.318    499.427
 57.470   1042.000   1043.256     -1.256    499.492   1025.422    499.492    517.451    499.492
 57.570    866.000    865.427      0.573    499.557    844.932    499.557    520.135    499.557
 57.670    771.780    754.790     16.990    499.624    730.830    499.624    523.633    499.624
 57.770    651.000    693.804    -42.804    499.691    665.176    499.691    528.345    499.691
 57.870    679.000    666.780     12.220    499.758    631.705    499.758    534.845    499.758
 57.970    712.000    663.551     48.449    499.827    619.472    499.827    543.905    499.827
 58.070    672.000    679.800     -7.800    499.896    623.219    499.896    556.468    499.896
 58.170    749.000    715.539     33.461    499.966    641.932    499.966    573.553    499.966
 58.270    781.000    772.834      8.166    500.036    676.760    500.036    596.080    500.036
 58.370    858.674    853.409      5.264    500.108    728.868    500.108    624.608    500.108
 58.470    940.000    956.448    -16.448    500.180    797.571    500.180    659.007    500.180
 58.570   1080.000   1076.811      3.189    500.252    878.953    500.252    698.057    500.252
 58.670   1149.013   1204.161    -55.148    500.326    965.498    500.326    738.939    500.326
 58.770   1287.256   1324.177    -36.921    500.400   1047.827    500.400    776.711    500.400
 58.870   1365.000   1421.557    -56.557    500.475   1117.596    500.475    804.412    500.475
 58.970   1440.431   1482.620    -42.189    500.550   1168.097    500.550    815.069    500.550
 59.070   1550.000   1497.455     52.545    500.626   1192.569    500.626    805.527    500.626
 59.170   1546.000   1464.401     81.599    500.702   1186.448    500.702    778.686    500.702
 59.270   1464.000   1393.849     70.151    500.780   1153.242    500.780    741.420    500.780
 59.370   1403.000   1305.184     97.816    500.857   1105.323    500.857    700.739    500.857
 59.470   1195.762   1219.026    -23.264    500.936   1058.265    500.936    661.691    500.936
 59.570   1188.000   1152.932     35.068    501.015   1026.714    501.015    627.191    501.015
 59.670   1080.371   1121.664    -41.293    501.094   1024.144    501.094    598.527    501.094
 59.770   1117.000   1136.257    -19.257    501.174   1061.417    501.174    575.875    501.174
 59.870   1165.355   1199.503    -34.149    501.255   1141.858    501.255    558.704    501.255
 59.970   1331.787   1301.492     30.295    501.336   1256.471    501.336    546.107    501.336
 60.070   1410.000   1418.262     -8.262    501.418   1382.327    501.418    537.064    501.418
 60.170   1545.000   1514.418     30.582    501.500   1484.988    501.500    530.628    501.500
 60.270   1550.000   1552.434     -2.434    501.583   1527.717    501.583    526.021    501.583
 60.370   1566.000   1510.492     55.508    501.666   1489.275    501.666    522.658    501.666
 60.470   1351.437   1395.895    -44.458    501.750   1377.349    501.750    520.136    501.750
 60.570   1303.000   1237.983     65.017    501.834   1221.527    501.834    518.191    501.834
 60.670   1085.760   1070.411     15.349    501.919   1055.618    501.919    516.657    501.919
 60.770    883.000    919.252    -36.252    502.004    905.794    502.004    515.437    502.004
 60.870    810.000    799.127     10.873    502.090    786.735    502.090    514.472    502.090
 60.970    733.783    714.112     19.671    502.176    702.554    502.176    513.727    502.176
 61.070    683.000    661.275     21.725    502.263    650.346    502.263    513.184    502.263
 61.170    657.000    635.092     21.908    502.350    624.601    502.350    512.827    502.350
 61.270    606.000    631.132    -25.132    502.437    620.905    502.437    512.643    502.437
 61.370    632.901    648.098    -15.197    502.525    637.977    502.525    512.612    502.525
 61.470    683.000    687.989     -4.989    502.613    677.847    502.613    512.704    502.613
 61.570    774.000    754.578     19.422    502.701    744.334    502.701    512.871    502.701
 61.670    877.000    850.562     26.438    502.790    840.204    502.790    513.044    502.790
 61.770    922.656    974.076    -51.420    502.880    963.687    502.880    513.131    502.880
 61.870   1048.000   1115.616    -67.616    502.969   1105.375    502.969    513.043    502.969
 61.970   1218.000   1256.470    -38.470    503.059   1246.612    503.059    512.731    503.059
 62.070   1309.000   1369.839    -60.839    503.150   1360.589    503.150    512.214    503.150
 62.170   1427.000   1427.163     -0.163    503.240   1418.677    503.240    511.564    503.240
 62.270   1324.000   1411.083    -87.083    503.331   1403.429    503.331    510.864    503.331
 62.370   1380.094   1326.344     53.750    503.422   1319.508    503.422    510.182    503.422
 62.470   1208.000   1196.378     11.622    503.514   1190.292    503.514    509.563    503.514
 62.570   1029.000   1050.061    -21.061    503.606   1044.629    503.606    509.028    503.606
 62.670    882.000    911.289    -29.289    503.698    906.407    503.698    508.585    503.698
 62.770    762.000    794.934    -32.934    503.790    790.504    503.790    508.231    503.790
 62.870    661.914    706.825    -44.911    503.883    702.761    503.883    507.956    503.883
 62.970    664.000    645.835     18.165    503.976    642.067    503.976    507.749    503.976
 63.070    652.160    606.895     45.265    504.069    603.369    504.069    507.596    504.069
 63.170    572.000    583.817    -11.817    504.162    580.492    504.162    507.485    504.162
 63.270    546.000    571.197    -25.197    504.255    568.041    504.255    507.407    504.255
 63.370    564.000    565.265     -1.265    504.349    562.255    504.349    507.353    504.349
 63.470    560.717    564.004     -3.287    504.443    561.122    504.443    507.317    504.443
 63.570    552.000    566.938    -14.938    504.537    564.168    504.537    507.296    504.537
 63.670    600.125    574.857     25.268    504.631    572.186    504.631    507.287    504.631
 63.770    590.000    589.542      0.458    504.726    586.958    504.726    507.288    504.726
 63.870    634.000    613.389     20.611    504.820    610.881    504.820    507.297    504.820
 63.970    681.240    648.798     32.442    504.915    646.353    504.915    507.313    504.915
 64.070    686.976    697.273    -10.297    505.010    694.883    505.010    507.335    505.010
 64.170    712.000    758.355    -46.355    505.105    756.010    505.105    507.364    505.105
 64.270    816.000    828.600    -12.600    505.200    826.295    505.200    507.397    505.200
 64.370    885.500    900.923    -15.423    505.295    898.657    505.295    507.436    505.295
 64.470   1012.000    964.806     47.194    505.390    962.581    505.390    507.479    505.390
 64.570   1012.000   1008.484      3.516    505.485   1006.309    505.485    507.526    505.485
 64.670    975.165   1023.496    -48.331    505.580   1021.379    505.580    507.577    505.580
 64.770   1034.000   1008.425     25.575    505.676   1006.373    505.676    507.631    505.676
 64.870    996.000    968.503     27.497    505.771    966.518    505.771    507.688    505.771
 64.970    862.013    912.781    -50.769    505.867    910.859    505.867    507.749    505.867
 65.070    836.017    851.169    -15.151    505.962    849.303    505.962    507.813    505.962
 65.170    799.000    791.760      7.240    506.057    789.942    506.057    507.879    506.057
 65.270    716.475    739.308    -22.833    506.153    737.529    506.153    507.948    506.153
 65.370    716.000    695.412     20.588    506.248    693.664    506.248    508.019    506.248
 65.470    687.000    659.804     27.196    506.344    658.078    506.344    508.092    506.344
 65.570    581.000    631.574    -50.574    506.439    629.866    506.439    508.168    506.439
 65.670    627.000    609.698     17.302    506.535    608.002    506.535    508.246    506.535
 65.770    574.452    593.145    -18.693    506.630    591.460    506.630    508.326    506.630
 65.870    565.000    580.964    -15.964    506.725    579.288    506.725    508.408    506.725
 65.970    569.000    572.349     -3.349    506.820    570.681    506.820    508.492    506.820
 66.070    585.520    566.642     18.879    506.915    564.981    506.915    508.577    506.915
 66.170    598.520    563.310     35.210    507.010    561.656    507.010    508.665    507.010
 66.270    558.669    561.929     -3.260    507.105    560.279    507.105    508.754    507.105
 66.370    598.099    562.183     35.916    507.200    560.537    507.200    508.845    507.200
 66.470    589.734    563.906     25.828    507.295    562.262    507.295    508.938    507.295
 66.570    555.000    567.145    -12.145    507.389    565.501    507.389    509.033    507.389
 66.670    595.000    572.284     22.716    507.484    570.639    507.484    509.129    507.484
 66.770    621.279    580.257     41.022    507.578    578.608    507.578    509.227    507.578
 66.870    566.248    592.885    -26.637    507.672    591.229    507.672    509.327    507.672
 66.970    573.477    613.346    -39.868    507.766    611.680    507.766    509.429    507.766
 67.070    677.488    646.662     30.825    507.860    644.984    507.860    509.532    507.860
 67.170    637.000    699.980    -62.980    507.953    698.285    507.953    509.638    507.953
 67.270    736.925    782.257    -45.332    508.046    780.542    508.046    509.745    508.046
 67.370    865.000    902.955    -37.955    508.140    901.218    508.140    509.855    508.140
 67.470   1028.809   1069.541    -40.732    508.232   1067.782    508.232    509.966    508.232
 67.570   1313.000   1284.016     28.984    508.325   1282.240    508.325    510.080    508.325
 67.670   1574.000   1539.271     34.729    508.417   1537.485    508.417    510.196    508.417
 67.770   1848.225   1816.311     31.914    508.510   1814.527    508.510    510.314    508.510
 67.870   1982.000   2083.353   -101.353    508.601   2081.585    508.601    510.435    508.601
 67.970   2406.000   2298.262    107.738    508.693   2296.523    508.693    510.559    508.693
 68.070   2371.000   2417.372    -46.372    508.784   2415.668    508.784    510.685    508.784
 68.170   2414.000   2412.047      1.953    508.875   2410.368    508.875    510.815    508.875
 68.270   2272.405   2283.748    -11.342    508.966   2282.066    508.966    510.948    508.966
 68.370   1995.127   2063.119    -67.992    509.056   2061.400    509.056    511.085    509.056
 68.470   1876.000   1794.181     81.819    509.146   1792.392    509.146    511.225    509.146
 68.570   1519.000   1518.375      0.625    509.236   1516.493    509.236    511.370    509.236
 68.670   1239.000   1266.426    -27.426    509.325   1264.436    509.325    511.519    509.325
 68.770   1050.000   1056.260     -6.260    509.414   1054.157    509.414    511.673    509.414
 68.870    901.000    894.096      6.904    509.503    891.879    509.503    511.832    509.503
 68.970    744.000    777.331    -33.331    509.591    775.002    509.591    511.998    509.591
 69.070    698.000    698.216     -0.216    509.679    695.776    509.679    512.170    509.679
 69.170    663.000    647.253     15.747    509.767    644.704    509.767    512.348    509.767
 69.270    580.153    615.603    -35.450    509.854    612.944    509.854    512.534    509.854
 69.370    632.000    596.290     35.710    509.941    593.514    509.941    512.730    509.941
 69.470    620.000    584.438     35.562    510.027    581.538    510.027    512.936    510.027
 69.570    550.703    576.963    -26.260    510.113    573.930    510.113    513.152    510.113
 69.670    527.764    572.069    -44.304    510.198    568.890    510.198    513.381    510.198
 69.770    536.254    568.776    -32.522    510.283    565.438    510.283    513.624    510.283
 69.870    563.000    566.577     -3.577    510.367    563.064    510.367    513.883    510.367
 69.970    576.000    565.219     10.781    510.451    561.513    510.451    514.159    510.451
 70.070    603.000    564.586     38.414    510.535    560.666    510.535    514.455    510.535
 70.170    564.000    564.641     -0.641    510.618    560.485    510.618    514.774    510.618
 70.270    616.000    565.419     50.581    510.700    560.999    510.700    515.119    510.700
 70.370    548.000    567.041    -19.041    510.782    562.326    510.782    515.494    510.782
 70.470    613.008    569.773     43.235    510.864    564.728    510.864    515.905    510.864
 70.570    550.219    574.133    -23.913    510.944    568.715    510.944    516.356    510.944
 70.670    583.309    581.053      2.256    511.025    575.214    511.025    516.856    511.025
 70.770    568.997    592.111    -23.114    511.105    585.788    511.105    517.414    511.105
 70.870    597.000    609.782    -12.782    511.184    602.900    511.184    518.046    511.184
 70.970    608.000    637.646    -29.646    511.263    630.107    511.263    518.772    511.263
 71.070    592.000    680.396    -88.396    511.341    672.069    511.341    519.623    511.341
 71.170    771.115    743.467     27.648    511.418    734.170    511.418    520.651    511.418
 71.270    811.276    832.149    -20.873    511.495    821.621    511.495    521.932    511.495
 71.370    898.165    950.140    -51.975    511.571    938.002    511.571    523.588    511.571
 71.470   1054.304   1097.767    -43.464    511.647   1083.463    511.647    525.797    511.647
 71.570   1312.000   1270.226     41.774    511.722   1252.950    511.722    528.813    511.722
 71.670   1476.000   1456.335     19.665    511.797   1434.946    511.797    532.974    511.797
 71.770   1607.000   1638.212    -31.212    511.870   1611.150    511.870    538.706    511.870
 71.870   1830.000   1792.449     37.551    511.944   1757.671    511.944    546.499    511.944
 71.970   1968.961   1894.099     74.862    512.016   1849.062    512.016    556.850    512.016
 72.070   1942.000   1924.496     17.504    512.088   1866.227    512.088    570.189    512.088
 72.170   1951.000   1879.867     71.133    512.159   1805.141    512.159    586.759    512.159
 72.270   1856.000   1773.462     82.538    512.229   1679.112    512.229    606.493    512.229
 72.370   1640.000   1628.739     11.261    512.299   1512.100    512.299    628.884    512.299
 72.470   1479.758   1470.028      9.730    512.368   1329.505    512.368    652.860    512.368
 72.570   1321.611   1316.592      5.019    512.437   1152.338    512.437    676.675    512.437
 72.670   1141.479   1180.425    -38.946    512.504    995.051    512.504    697.871    512.504
 72.770   1109.000   1066.274     42.726    512.571    865.349    512.571    713.492    512.571
 72.870   1013.568    973.267     40.301    512.637    765.115    512.637    720.787    512.637
 72.970    857.000    897.601    -40.601    512.702    692.010    512.702    718.291    512.702
 73.070    830.383    835.116     -4.733    512.767    641.326    512.767    706.554    512.767
 73.170    767.391    782.635    -15.244    512.831    607.624    512.831    687.840    512.831
 73.270    684.000    738.100    -54.100    512.894    585.885    512.894    665.108    512.894
 73.370    603.000    700.241    -97.241    512.956    572.099    512.956    641.097    512.956
 73.470    672.345    668.289      4.056    513.018    563.405    513.018    617.902    513.018
 73.570    602.000    641.785    -39.785    513.078    557.954    513.078    596.911    513.078
 73.670    592.000    620.404    -28.404    513.138    554.651    513.138    578.895    513.138
 73.770    604.000    603.817      0.183    513.197    552.901    513.197    564.119    513.197
 73.870    611.000    591.604     19.396    513.255    552.392    513.255    552.477    513.255
 73.970    614.000    583.224     30.776    513.313    552.935    513.313    543.616    513.313
 74.070    585.000    578.028      6.972    513.369    554.356    513.369    537.060    513.369
 74.170    601.000    575.284     25.716    513.425    556.426    513.425    532.308    513.425
 74.270    594.000    574.216     19.784    513.480    558.826    513.480    528.900    513.480
 74.370    550.288    574.021    -23.734    513.534    561.138    513.534    526.454    513.534
 74.470    611.111    573.920     37.190    513.587    562.874    513.587    524.674    513.587
 74.570    634.000    573.235     60.765    513.639    563.569    513.639    523.349    513.639
 74.670    602.586    571.527     31.059    513.690    562.931    513.690    522.330    513.690
 74.770    522.434    568.714    -46.280    513.741    560.974    513.741    521.522    513.741
 74.870    655.000    565.050     89.950    513.790    558.016    513.790    520.862    513.790
 74.970    615.000    560.996     54.004    513.839    554.558    513.839    520.309    513.839
 75.070    527.242    557.076    -29.835    513.886    551.150    513.886    519.838    513.886
 75.170    579.000    553.803     25.197    513.933    548.323    513.933    519.432    513.933
 75.270    575.000    551.665     23.335    513.979    546.578    513.979    519.079    513.979
 75.370    506.596    551.145    -44.549    514.023    546.406    514.023    518.769    514.023
 75.470    580.000    552.742     27.258    514.067    548.314    514.067    518.497    514.067
 75.570    580.000    556.976     23.024    514.110    552.825    514.110    518.257    514.110
 75.670    593.000    564.357     28.643    514.152    560.454    514.152    518.044    514.152
 75.770    531.276    575.304    -44.028    514.193    571.624    514.193    517.855    514.193
 75.870    584.000    590.014     -6.014    514.233    586.534    514.233    517.687    514.233
 75.970    634.000    608.299     25.701    514.272    605.000    514.272    517.536    514.272
 76.070    644.000    629.438     14.562    514.310    626.302    514.310    517.402    514.310
 76.170    676.000    652.070     23.930    514.347    649.082    514.347    517.282    514.347
 76.270    696.000    674.170     21.830    514.382    671.318    514.382    517.174    514.382
 76.370    662.664    693.144    -30.480    514.417    690.419    514.417    517.077    514.417
 76.470    723.382    706.156     17.226    514.451    703.551    514.451    516.989    514.451
 76.570    681.000    710.830    -29.830    514.484    708.339    514.484    516.910    514.484
 76.670    654.000    706.174    -52.174    514.516    703.792    514.516    516.839    514.516
 76.770    665.000    693.060    -28.060    514.546    690.781    514.546    516.774    514.546
 76.870    658.000    673.790    -15.790    514.576    671.610    514.576    516.715    514.576
 76.970    669.000    651.178     17.822    514.605    649.089    514.605    516.662    514.605
 77.070    626.000    627.823     -1.823    514.632    625.819    514.632    516.613    514.632
 77.170    626.641    605.759     20.882    514.659    603.832    514.659    516.568    514.659
 77.270    549.000    586.343    -37.343    514.684    584.487    514.684    516.528    514.684
 77.370    482.000    570.271    -88.271    514.708    568.481    514.708    516.490    514.708
 77.470    514.000    557.676    -43.676    514.731    555.946    514.731    516.456    514.731
 77.570    488.000    548.280    -60.280    514.754    546.606    514.754    516.424    514.754
 77.670    520.639    541.569    -20.930    514.774    539.946    514.774    516.395    514.774
 77.770    538.434    536.947      1.487    514.794    535.372    514.794    516.367    514.794
 77.870    508.000    533.848    -25.848    514.813    532.318    514.813    516.342    514.813
 77.970    509.000    531.802    -22.802    514.831    530.312    514.831    516.318    514.831
 78.070    550.264    530.450     19.813    514.847    529.000    514.847    516.296    514.847
 78.170    518.000    529.547    -11.547    514.862    528.133    514.862    516.275    514.862
 78.270    522.000    528.930     -6.930    514.876    527.550    514.876    516.255    514.876
 78.370    536.533    528.505      8.029    514.889    527.156    514.889    516.237    514.889
 78.470    525.160    528.215     -3.055    514.901    526.897    514.901    516.219    514.901
 78.570    522.631    528.019     -5.388    514.912    526.728    514.912    516.202    514.912
 78.670    513.000    527.925    -14.925    514.921    526.659    514.921    516.186    514.921
 78.770    512.000    527.970    -15.970    514.930    526.728    514.930    516.171    514.930
 78.870    564.000    528.148     35.852    514.937    526.926    514.937    516.157    514.937
 78.970    554.000    528.479     25.521    514.943    527.275    514.943    516.145    514.943
 79.070    535.000    528.988      6.012    514.947    527.799    514.947    516.134    514.947
 79.170    511.000    529.701    -18.701    514.951    528.525    514.951    516.125    514.951
 79.270    529.000    530.650     -1.650    514.953    529.482    514.953    516.119    514.953
 79.370    528.787    531.859     -3.073    514.954    530.694    514.954    516.117    514.954
 79.470    489.000    533.358    -44.358    514.954    532.190    514.954    516.118    514.954
 79.570    500.000    535.183    -35.183    514.953    534.007    514.953    516.124    514.953
 79.670    564.084    537.397     26.687    514.950    536.206    514.950    516.136    514.950
 79.770    510.812    540.098    -29.286    514.946    538.885    514.946    516.154    514.946
 79.870    558.000    543.446     14.554    514.941    542.205    514.941    516.178    514.941
 79.970    549.998    547.684      2.314    514.935    546.406    514.935    516.207    514.935
 80.070    576.069    553.155     22.914    514.927    551.836    514.927    516.242    514.927
 80.170    598.000    560.305     37.695    514.919    558.941    514.919    516.279    514.919
 80.270    513.000    569.626    -56.626    514.909    568.216    514.909    516.318    514.909
 80.370    552.549    581.565    -29.016    514.897    580.110    514.897    516.353    514.897
 80.470    580.000    596.403    -16.403    514.885    594.912    514.885    516.380    514.885
 80.570    583.000    614.150    -31.150    514.871    612.635    514.871    516.394    514.871
 80.670    662.358    634.453     27.905    514.856    632.932    514.856    516.389    514.856
 80.770    645.000    656.552    -11.552    514.839    655.046    514.839    516.364    514.839
 80.870    644.000    679.303    -35.303    514.821    677.833    514.821    516.317    514.821
 80.970    722.000    701.295     20.705    514.802    699.877    514.802    516.251    514.802
 81.070    718.000    721.057     -3.057    514.782    719.705    514.782    516.172    514.782
 81.170    762.000    737.255     24.745    514.761    735.976    514.761    516.085    514.761
 81.270    698.952    748.819    -49.867    514.738    747.613    514.738    515.994    514.738
 81.370    739.000    755.024    -16.024    514.713    753.891    514.713    515.904    514.713
 81.470    772.076    755.584     16.492    514.688    754.518    514.688    515.816    514.688
 81.570    727.000    750.663    -23.663    514.661    749.657    514.661    515.732    514.661
 81.670    762.000    740.810     21.190    514.633    739.856    514.633    515.654    514.633
 81.770    808.000    726.923     81.077    514.604    726.012    514.604    515.582    514.604
 81.870    737.120    710.196     26.924    514.573    709.321    514.573    515.515    514.573
 81.970    707.000    691.964     15.036    514.541    691.117    514.541    515.452    514.541
 82.070    640.073    673.420    -33.347    514.507    672.595    514.507    515.394    514.507
 82.170    674.000    655.411     18.589    514.472    654.603    514.472    515.340    514.472
 82.270    653.000    638.390     14.610    514.436    637.593    514.436    515.288    514.436
 82.370    594.163    622.533    -28.370    514.399    621.745    514.399    515.237    514.399
 82.470    635.000    607.926     27.074    514.360    607.143    514.360    515.188    514.360
 82.570    626.000    594.689     31.311    514.320    593.909    514.320    515.139    514.320
 82.670    619.233    583.004     36.229    514.278    582.225    514.278    515.090    514.278
 82.770    617.884    573.070     44.814    514.235    572.290    514.235    515.041    514.235
 82.870    545.000    565.060    -20.060    514.191    564.278    514.191    514.992    514.191
 82.970    558.000    559.105     -1.105    514.145    558.320    514.145    514.942    514.145
 83.070    547.000    555.275     -8.275    514.098    554.486    514.098    514.891    514.098
 83.170    592.000    553.566     38.434    514.050    552.773    514.050    514.840    514.050
 83.270    592.580    553.878     38.701    514.000    553.081    514.000    514.787    514.000
 83.370    514.928    555.996    -41.068    513.949    555.194    513.949    514.734    513.949
 83.470    518.000    559.581    -41.581    513.897    558.772    513.897    514.680    513.897
 83.570    605.039    564.167     40.872    513.843    563.353    513.843    514.624    513.843
 83.670    573.000    569.178      3.822    513.788    568.360    513.788    514.568    513.788
 83.770    533.000    573.956    -40.956    513.731    573.134    513.731    514.510    513.731
 83.870    558.000    577.805    -19.805    513.673    576.981    513.673    514.452    513.673
 83.970    597.000    580.092     16.908    513.614    579.266    513.614    514.393    513.614
 84.070    559.000    580.368    -21.368    513.553    579.543    513.553    514.332    513.553
 84.170    537.000    578.497    -41.497    513.491    577.674    513.491    514.270    513.491
 84.270    554.000    574.690    -20.690    513.428    573.870    513.428    514.207    513.428
 84.370    568.000    569.414     -1.414    513.363    568.599    513.363    514.144    513.363
 84.470    565.000    563.249      1.751    513.297    562.438    513.297    514.079    513.297
 84.570    558.000    556.763      1.237    513.229    555.956    513.229    514.013    513.229
 84.670    551.149    550.441      0.708    513.160    549.636    513.160    513.945    513.160
 84.770    553.029    544.647      8.383    513.089    543.844    513.089    513.877    513.089
 84.870    535.737    539.617     -3.881    513.018    538.815    513.018    513.808    513.018
 84.970    520.000    535.464    -15.464    512.944    534.662    512.944    513.737    512.944
 85.070    499.000    532.197    -33.197    512.870    531.394    512.870    513.665    512.870
 85.170    534.000    529.751      4.249    512.794    528.946    512.794    513.593    512.794
 85.270    500.708    528.021    -27.313    512.716    527.213    512.716    513.519    512.716
 85.370    492.248    526.889    -34.640    512.637    526.077    512.637    513.444    512.637
 85.470    526.000    526.246     -0.246    512.557    525.430    512.557    513.368    512.557
 85.570    554.000    526.010     27.990    512.475    525.190    512.475    513.290    512.475
 85.670    552.000    526.137     25.863    512.392    525.312    512.392    513.212    512.392
 85.770    538.000    526.622     11.378    512.308    525.790    512.308    513.133    512.308
 85.870    524.000    527.502     -3.502    512.222    526.664    512.222    513.052    512.222
 85.970    535.000    528.860      6.140    512.135    528.014    512.135    512.971    512.135
 86.070    512.523    530.818    -18.294    512.046    529.963    512.046    512.888    512.046
 86.170    493.934    533.531    -39.597    511.956    532.665    511.956    512.805    511.956
 86.270    587.000    537.175     49.825    511.865    536.299    511.865    512.720    511.865
 86.370    537.000    541.930     -4.930    511.772    541.040    511.772    512.634    511.772
 86.470    563.001    547.947     15.054    511.677    547.042    511.677    512.547    511.677
 86.570    523.000    555.319    -32.319    511.582    554.397    511.582    512.460    511.582
 86.670    545.000    564.037    -19.037    511.485    563.097    511.485    512.371    511.485
 86.770    577.000    573.959      3.041    511.386    572.998    511.386    512.281    511.386
 86.870    551.662    584.773    -33.111    511.286    583.791    511.286    512.191    511.286
 86.970    635.000    595.989     39.011    511.185    594.985    511.185    512.099    511.185
 87.070    643.000    606.934     36.066    511.082    605.909    511.082    512.007    511.082
 87.170    573.543    616.792    -43.249    510.978    615.748    510.978    511.913    510.978
 87.270    685.000    624.669     60.331    510.873    623.608    510.873    511.819    510.873
 87.370    706.000    629.737     76.263    510.766    628.663    510.766    511.724    510.766
 87.470    635.000    631.428      3.572    510.658    630.343    510.658    511.628    510.658
 87.570    652.969    629.597     23.372    510.548    628.507    510.548    511.531    510.548
 87.670    646.000    624.575     21.425    510.437    623.480    510.437    511.434    510.437
 87.770    663.000    617.058     45.942    510.325    615.962    510.325    511.336    510.325
 87.870    641.396    607.944     33.452    510.211    606.846    510.211    511.237    510.211
 87.970    592.135    598.165     -6.030    510.096    597.065    510.096    511.137    510.096
 88.070    565.622    588.631    -23.009    509.979    587.527    509.979    511.037    509.979
 88.170    609.691    580.121     29.570    509.861    579.012    509.861    510.937    509.861
 88.270    595.604    573.241     22.362    509.742    572.125    509.742    510.836    509.742
 88.370    538.000    568.420    -30.420    509.621    567.294    509.621    510.735    509.621
 88.470    580.000    565.888     14.112    509.499    564.751    509.499    510.633    509.499
 88.570    607.925    565.688     42.237    509.376    564.538    509.376    510.531    509.376
 88.670    551.134    567.675    -16.541    509.251    566.510    509.251    510.429    509.251
 88.770    610.000    571.537     38.463    509.125    570.356    509.125    510.327    509.125
 88.870    593.000    576.812     16.188    508.997    575.614    508.997    510.224    508.997
 88.970    552.000    582.915    -30.915    508.869    581.697    508.869    510.122    508.869
 89.070    603.000    589.161     13.839    508.738    587.923    508.738    510.021    508.738
 89.170    605.000    594.810     10.190    508.607    593.549    508.607    509.919    508.607
 89.270    638.000    599.128     38.872    508.474    597.841    508.474    509.818    508.474
 89.370    555.000    601.484    -46.484    508.340    600.166    508.340    509.718    508.340
 89.470    563.651    601.471    -37.820    508.204    600.120    508.204    509.618    508.204
 89.570    609.017    599.004     10.013    508.067    597.614    508.067    509.520    508.067
 89.670    581.000    594.326    -13.326    507.929    592.893    507.929    509.423    507.929
 89.770    579.000    587.922     -8.922    507.789    586.441    507.789    509.328    507.789
 89.870    574.994    580.394     -5.399    507.648    578.860    507.648    509.234    507.648
 89.970    565.618    572.343     -6.725    507.506    570.752    507.506    509.142    507.506
 90.070    599.060    564.306     34.754    507.363    562.654    507.363    509.054    507.363
 90.170    549.797    556.714     -6.917    507.218    554.996    507.218    508.968    507.218
 90.270    478.000    549.877    -71.877    507.071    548.089    507.071    508.886    507.071
 90.370    523.000    543.985    -20.985    506.924    542.121    506.924    508.808    506.924
 90.470    572.000    539.118     32.882    506.775    537.173    506.775    508.735    506.775
 90.570    504.000    535.267    -31.267    506.625    533.233    506.625    508.669    506.625
 90.670    550.677    532.356     18.320    506.474    530.226    506.474    508.611    506.474
 90.770    495.000    530.278    -35.278    506.321    528.040    506.321    508.564    506.321
 90.870    557.513    528.911     28.602    506.167    526.551    506.167    508.530    506.167
 90.970    566.561    528.142     38.419    506.012    525.643    506.012    508.512    506.012
 91.070    489.775    527.884    -38.109    505.855    525.222    505.855    508.518    505.855
 91.170    538.000    528.085      9.915    505.698    525.229    505.698    508.553    505.698
 91.270    551.000    528.734     22.266    505.539    525.645    505.539    508.626    505.539
 91.370    542.000    529.866     12.134    505.378    526.492    505.378    508.750    505.378
 91.470    560.000    531.562     28.438    505.217    527.837    505.217    508.938    505.217
 91.570    567.000    533.945     33.055    505.054    529.787    505.054    509.207    505.054
 91.670    527.396    537.155     -9.759    504.890    532.458    504.890    509.579    504.890
 91.770    525.000    541.472    -16.472    504.725    536.109    504.725    510.077    504.725
 91.870    556.876    547.122      9.754    504.559    540.941    504.559    510.726    504.559
 91.970    521.490    554.343    -32.853    504.391    547.166    504.391    511.550    504.391
 92.070    593.567    563.376     30.191    504.222    555.000    504.222    512.576    504.222
 92.170    582.000    574.421      7.579    504.052    564.621    504.052    513.824    504.052
 92.270    629.124    587.610     41.514    503.881    576.146    503.881    515.311    503.881
 92.370    593.461    602.976     -9.515    503.709    589.600    503.709    517.043    503.709
 92.470    625.000    620.425      4.575    503.535    604.895    503.535    519.017    503.535
 92.570    668.000    639.715     28.285    503.360    621.805    503.360    521.215    503.360
 92.670    653.000    660.439     -7.439    503.184    639.959    503.184    523.602    503.184
 92.770    686.000    682.025      3.975    503.007    658.842    503.007    526.122    503.007
 92.870    697.872    703.752     -5.881    502.829    677.809    502.829    528.697    502.829
 92.970    763.406    724.808     38.598    502.650    696.153    502.650    531.226    502.650
 93.070    732.016    744.389    -12.374    502.469    713.198    502.469    533.578    502.469
 93.170    715.145    761.840    -46.696    502.287    728.439    502.287    535.605    502.287
 93.270    813.000    776.762     36.238    502.105    741.639    502.105    537.145    502.105
 93.370    752.000    789.067    -37.067    501.921    752.855    501.921    538.051    501.921
 93.470    819.000    798.925     20.075    501.736    762.361    501.736    538.220    501.736
 93.570    856.342    806.664     49.678    501.550    770.520    501.550    537.617    501.550
 93.670    801.000    812.718    -11.718    501.363    777.719    501.363    536.287    501.363
 93.770    788.578    817.606    -29.028    501.174    784.367    501.174    534.342    501.174
 93.870    852.000    821.944     30.056    500.985    790.927    500.985    531.933    500.985
 93.970    810.369    826.423    -16.054    500.795    797.930    500.795    529.220    500.795
 94.070    884.000    831.718     52.282    500.603    805.904    500.603    526.353    500.603
 94.170    784.342    838.327    -53.985    500.411    815.220    500.411    523.455    500.411
 94.270    869.000    846.395     22.605    500.217    825.926    500.217    520.626    500.217
 94.370    856.000    855.610      0.390    500.023    837.634    500.023    517.941    500.023
 94.470    835.038    865.178    -30.140    499.827    849.499    499.827    515.452    499.827
 94.570    921.000    873.882     47.118    499.631    860.272    499.631    513.191    499.631
 94.670    911.257    880.217     31.040    499.433    868.432    499.433    511.174    499.433
 94.770    914.000    882.616     31.384    499.235    872.410    499.235    509.404    499.235
 94.870    970.000    879.743     90.257    499.035    870.877    499.035    507.872    499.035
 94.970    837.636    870.811    -33.175    498.835    863.065    498.835    506.562    498.835
 95.070    814.154    855.803    -41.649    498.634    848.975    498.634    505.450    498.634
 95.170    920.000    835.484     84.516    498.431    829.398    498.431    504.513    498.431
 95.270    760.208    811.235    -51.028    498.228    805.740    498.228    503.725    498.228
 95.370    748.912    784.801    -35.889    498.024    779.770    498.024    503.061    498.024
 95.470    747.000    758.062    -11.062    497.819    753.390    497.819    502.498    497.819
 95.570    785.061    732.878     52.183    497.613    728.481    497.613    502.017    497.613
 95.670    740.000    710.992     29.008    497.406    706.803    497.406    501.602    497.406
 95.770    700.497    693.977      6.520    497.198    689.940    497.198    501.237    497.198
 95.870    669.284    683.194    -13.910    496.990    679.267    496.990    500.913    496.990
 95.970    665.000    679.850    -14.850    496.780    676.000    496.780    500.621    496.780
 96.070    687.000    684.919      2.081    496.570    681.118    496.570    500.353    496.570
 96.170    702.000    699.177      2.823    496.359    695.402    496.359    500.107    496.359
 96.270    732.000    723.195      8.805    496.147    719.427    496.147    499.877    496.147
 96.370    757.674    757.288      0.386    495.934    753.510    495.934    499.662    495.934
 96.470    769.659    801.447    -31.788    495.721    797.646    495.721    499.460    495.721
 96.570    911.000    855.246     55.754    495.507    851.409    495.507    499.269    495.507
 96.670    865.815    917.745    -51.929    495.292    913.861    495.292    499.090    495.292
 96.770    978.961    987.400     -8.438    495.076    983.459    495.076    498.920    495.076
 96.870   1094.519   1062.006     32.513    494.859   1058.001    494.859    498.760    494.859
 96.970   1138.000   1138.686     -0.686    494.642   1134.608    494.642    498.611    494.642
 97.070   1247.477   1213.918     33.559    494.424   1209.759    494.424    498.473    494.424
 97.170   1229.000   1283.658    -54.658    494.205   1279.409    494.205    498.347    494.205
 97.270   1326.829   1343.573    -16.744    493.986   1339.227    493.986    498.233    493.986
 97.370   1431.137   1389.455     41.682    493.766   1385.005    493.766    498.130    493.766
 97.470   1354.597   1417.811    -63.214    493.545   1413.246    493.545    498.042    493.545
 97.570   1427.000   1426.498      0.502    493.324   1421.807    493.324    497.967    493.324
 97.670   1487.106   1415.158     71.948    493.102   1410.325    493.102    497.909    493.102
 97.770   1337.000   1385.236    -48.236    492.880   1380.241    492.880    497.869    492.880
 97.870   1414.000   1339.608     74.392    492.657   1334.427    492.657    497.851    492.657
 97.970   1339.592   1281.999     57.593    492.433   1276.605    492.433    497.856    492.433
 98.070   1175.000   1216.480    -41.480    492.208   1210.837    492.208    497.891    492.208
 98.170   1104.000   1147.091    -43.091    491.984   1141.159    491.984    497.962    491.984
 98.270   1063.000   1077.604    -14.604    491.758   1071.335    491.758    498.076    491.758
 98.370    983.000   1011.381    -28.381    491.532   1004.716    491.532    498.246    491.532
 98.470    977.000    951.295     25.705    491.306    944.160    491.306    498.487    491.306
 98.570    900.569    899.711      0.859    491.079    892.012    491.079    498.816    491.079
 98.670    841.000    858.499    -17.499    490.852    850.123    490.852    499.260    490.852
 98.770    792.000    829.093    -37.093    490.624    819.892    490.624    499.848    490.624
 98.870    773.000    812.550    -39.550    490.395    802.340    490.395    500.618    490.395
 98.970    771.097    809.624    -38.527    490.167    798.176    490.167    501.618    490.167
 99.070    836.842    820.827     16.014    489.937    807.858    489.937    502.901    489.937
 99.170    891.000    846.458     44.543    489.708    831.623    489.708    504.528    489.708
 99.270    866.000    886.595    -20.595    489.478    869.482    489.478    506.570    489.478
 99.370    950.000    941.060      8.940    489.248    921.181    489.248    509.101    489.248
 99.470    983.000   1009.339    -26.339    489.017    986.131    489.017    512.196    489.017
 99.570   1036.605   1090.489    -53.884    488.786   1063.317    488.786    515.929    488.786
 99.670   1219.925   1183.089     36.835    488.555   1151.250    488.555    520.367    488.555
 99.770   1337.483   1285.100     52.383    488.323   1247.839    488.323    525.563    488.323
 99.870   1385.926   1393.820     -7.894    488.091   1350.349    488.091    531.551    488.091
 99.970   1499.000   1505.895     -6.895    487.859   1455.421    487.859    538.335    487.859
100.070   1603.000   1617.389    -14.389    487.627   1559.147    487.627    545.889    487.627
100.170   1764.825   1723.982     40.843    487.394   1657.274    487.394    554.143    487.394
100.270   1823.000   1821.298      1.702    487.161   1745.542    487.161    562.982    487.161
100.370   1878.387   1905.306    -26.919    486.928   1820.086    486.928    572.238    486.928
100.470   2033.000   1972.651     60.349    486.695   1877.775    486.695    581.686    486.695
100.570   2053.143   2020.809     32.334    486.462   1916.368    486.462    591.041    486.462
100.670   2082.558   2048.061     34.497    486.228   1934.494    486.228    599.955    486.228
100.770   2055.000   2053.438      1.562    485.995   1931.584    485.995    608.025    485.995
100.870   1951.000   2036.796    -85.796    485.761   1907.935    485.761    614.812    485.761
100.970   2073.010   1999.048     73.963    485.528   1864.893    485.528    619.880    485.528
101.070   1952.000   1942.387      9.613    485.294   1805.026    485.294    622.856    485.294
101.170   1921.000   1870.292     50.708    485.060   1732.062    485.060    623.490    485.060
101.270   1805.831   1787.225     18.606    484.826   1650.532    484.826    621.712    484.826
101.370   1709.000   1698.098     10.902    484.592   1565.227    484.592    617.647    484.592
101.470   1601.000   1607.716     -6.716    484.359   1480.658    484.359    611.586    484.359
101.570   1555.000   1520.316     34.684    484.125   1400.667    484.125    603.929    484.125
101.670   1431.974   1439.287     -7.313    483.891   1328.200    483.891    595.118    483.891
101.770   1304.879   1367.014    -62.135    483.657   1265.211    483.657    585.585    483.657
101.870   1328.000   1304.848     23.152    483.424   1212.664    483.424    575.719    483.424
101.970   1185.000   1253.139    -68.139    483.191   1170.579    483.191    565.849    483.191
102.070   1166.712   1211.322    -44.610    482.957   1138.124    482.957    556.244    482.957
102.170   1116.398   1178.051    -61.653    482.724   1113.745    482.724    547.111    482.724
102.270   1178.000   1151.362     26.638    482.491   1095.328    482.491    538.603    482.491
102.370   1121.000   1128.889     -7.889    482.259   1080.402    482.259    530.820    482.259
102.470   1109.000   1108.122      0.878    482.026   1066.404    482.026    523.818    482.026
102.570   1071.000   1086.721    -15.721    481.794   1050.973    481.794    517.616    481.794
102.670   1049.242   1062.813    -13.571    481.562   1032.252    481.562    512.199    481.562
102.770   1029.000   1035.226     -6.226    481.331   1009.106    481.331    507.527    481.331
102.870   1011.000   1003.563      7.437    481.099    981.197    481.099    503.543    481.099
102.970   1038.000    968.121     69.879    480.869    948.890    480.869    500.177    480.869
103.070    877.516    929.693    -52.177    480.638    913.053    480.638    497.353    480.638
103.170    918.000    889.352     28.648    480.408    874.835    480.408    494.997    480.408
103.270    859.000    848.272     10.728    480.178    835.483    480.178    493.035    480.178
103.370    759.853    807.597    -47.744    479.949    796.208    479.949    491.400    479.949
103.470    807.109    768.356     38.753    479.720    758.101    479.720    490.031    479.720
103.570    733.192    731.414      1.778    479.492    722.076    479.492    488.879    479.492
103.670    727.000    697.433     29.567    479.264    688.843    479.264    487.898    479.264
103.770    642.335    666.866    -24.530    479.037    658.887    479.037    487.052    479.037
103.870    625.114    639.951    -14.837    478.810    632.478    478.810    486.313    478.810
103.970    646.000    616.737     29.263    478.584    609.688    478.584    485.659    478.584
104.070    594.000    597.112     -3.112    478.358    590.420    478.358    485.070    478.358
104.170    570.000    580.837    -10.837    478.133    574.452    478.133    484.534    478.133
104.270    617.000    567.589     49.411    477.909    561.470    477.909    484.040    477.909
104.370    561.000    557.004      3.996    477.685    551.118    477.685    483.580    477.685
104.470    555.000    548.706      6.294    477.462    543.026    477.462    483.149    477.462
104.570    515.000    542.331    -27.331    477.240    536.834    477.240    482.741    477.240
104.670    570.000    537.549     32.451    477.019    532.215    477.019    482.355    477.019
104.770    515.000    534.074    -19.074    476.798    528.886    476.798    481.986    476.798
104.870    503.114    531.691    -28.577    476.578    526.635    476.578    481.633    476.578
104.970    516.836    530.225    -13.389    476.359    525.287    476.359    481.295    476.359
105.070    574.000    529.556     44.444    476.141    524.724    476.141    480.970    476.141
105.170    537.000    529.617      7.383    475.924    524.878    475.924    480.657    475.924
105.270    542.000    530.384     11.616    475.708    525.730    475.708    480.355    475.708
105.370    522.000    531.878     -9.878    475.492    527.298    475.492    480.064    475.492
105.470    525.000    534.150     -9.150    475.278    529.635    475.278    479.782    475.278
105.570    535.000    537.278     -2.278    475.065    532.819    475.065    479.510    475.065
105.670    513.779    541.357    -27.578    474.852    536.947    474.852    479.247    474.852
105.770    525.000    546.486    -21.486    474.641    542.118    474.641    478.992    474.641
105.870    586.263    552.754     33.510    474.431    548.419    474.431    478.745    474.431
105.970    562.604    560.224      2.380    474.221    555.916    474.221    478.506    474.221
106.070    536.592    568.921    -32.329    474.013    564.634    474.013    478.274    474.013
106.170    620.000    578.820     41.180    473.807    574.547    473.807    478.049    473.807
106.270    595.000    589.833      5.167    473.601    585.569    473.601    477.832    473.601
106.370    601.000    601.808     -0.808    473.397    597.546    473.397    477.621    473.397
106.470    569.000    614.521    -45.521    473.193    610.257    473.193    477.417    473.193
106.570    645.532    627.684     17.847    472.991    623.413    472.991    477.220    472.991
106.670    668.000    640.947     27.053    472.791    636.663    472.791    477.029    472.791
106.770    636.790    653.908    -17.119    472.592    649.608    472.592    476.845    472.592
106.870    647.004    666.138    -19.134    472.394    661.817    472.394    476.667    472.394
106.970    652.000    677.198    -25.198    472.197    672.852    472.197    476.496    472.197
107.070    640.000    686.684    -46.684    472.002    682.308    472.002    476.331    472.002
107.170    714.677    694.273     20.404    471.809    689.864    471.809    476.173    471.809
107.270    694.000    699.778     -5.778    471.616    695.331    471.616    476.021    471.616
107.370    693.000    703.189    -10.189    471.426    698.700    471.426    475.876    471.426
107.470    648.000    704.680    -56.680    471.237    700.144    471.237    475.737    471.237
107.570    751.866    704.579     47.288    471.049    699.991    471.049    475.606    471.049
107.670    682.000    703.317    -21.317    470.863    698.672    470.863    475.481    470.863
107.770    699.670    701.361     -1.691    470.679    696.653    470.679    475.364    470.679
107.870    653.000    699.150    -46.150    470.497    694.375    470.497    475.254    470.497
107.970    678.000    697.056    -19.056    470.316    692.206    470.316    475.152    470.316
108.070    673.000    695.350    -22.350    470.137    690.420    470.137    475.057    470.137
108.170    663.348    694.187    -30.839    469.959    689.169    469.959    474.970    469.959
108.270    724.295    693.595     30.701    469.784    688.484    469.784    474.892    469.784
108.370    700.000    693.477      6.523    469.610    688.265    469.610    474.822    469.610
108.470    704.000    693.620     10.380    469.438    688.301    469.438    474.761    469.438
108.570    652.000    693.713    -41.713    469.268    688.279    469.268    474.709    469.268
108.670    652.000    693.376    -41.376    469.100    687.818    469.100    474.667    469.100
108.770    689.000    692.205     -3.205    468.934    686.516    468.934    474.636    468.934
108.870    718.000    689.828     28.172    468.770    683.999    468.770    474.615    468.770
108.970    676.730    685.959     -9.229    468.608    679.980    468.608    474.605    468.608
109.070    655.000    680.443    -25.443    468.448    674.304    468.448    474.606    468.448
109.170    667.969    673.274     -5.306    468.291    666.969    468.291    474.615    468.291
109.270    648.000    664.598    -16.598    468.135    658.111    468.135    474.642    468.135
109.370    608.461    654.660    -46.199    467.981    647.979    467.981    474.683    467.981
109.470    657.000    643.775     13.225    467.830    636.886    467.830    474.738    467.830
109.570    626.000    632.288     -6.288    467.681    625.178    467.681    474.810    467.681
109.670    632.000    620.544     11.456    467.534    613.198    467.534    474.898    467.534
109.770    567.000    608.867    -41.867    467.390    601.269    467.390    475.004    467.390
109.870    572.975    597.547    -24.572    467.248    589.680    467.248    475.129    467.248
109.970    591.000    586.832      4.168    467.108    578.677    467.108    475.276    467.108
110.070    585.000    576.921      8.079    466.970    568.456    466.970    475.445    466.970
110.170    557.000    567.959    -10.959    466.836    559.163    466.836    475.640    466.836
110.270    570.860    560.016     10.844    466.703    550.871    466.703    475.855    466.703
110.370    585.000    553.189     31.811    466.573    543.657    466.573    476.110    466.573
110.470    582.000    547.500     34.500    466.446    537.546    466.446    476.403    466.446
110.570    547.000    542.904      4.096    466.321    532.488    466.321    476.739    466.321
110.670    512.558    539.346    -26.788    466.199    528.422    466.199    477.124    466.199
110.770    564.622    536.757     27.865    466.080    525.268    466.080    477.567    466.080
110.870    562.000    535.053     26.947    465.963    522.935    465.963    478.079    465.963
110.970    533.000    534.151     -1.151    465.849    521.323    465.849    478.674    465.849
111.070    564.106    533.967     30.139    465.738    520.332    465.738    479.369    465.738
111.170    547.000    534.426     12.574    465.630    519.868    465.630    480.183    465.630
111.270    572.543    535.464     37.079    465.524    519.840    465.524    481.142    465.524
111.370    491.000    537.030    -46.030    465.422    520.169    465.422    482.276    465.422
111.470    570.000    539.090     30.910    465.322    520.784    465.322    483.620    465.322
111.570    530.000    541.625    -11.625    465.226    521.626    465.226    485.217    465.226
111.670    577.000    544.637     32.363    465.132    522.645    465.132    487.115    465.132
111.770    511.000    548.141    -37.141    465.041    523.804    465.041    489.370    465.041
111.870    526.000    552.176    -26.176    464.954    525.076    464.954    492.045    464.954
111.970    579.000    556.794     22.206    464.870    526.445    464.870    495.209    464.870
112.070    608.069    562.067     46.002    464.789    527.906    464.789    498.939    464.789
112.170    571.964    568.080      3.884    464.711    529.466    464.711    503.315    464.711
112.270    551.000    574.933    -23.933    464.636    531.140    464.636    508.419    464.636
112.370    576.000    582.734     -6.734    464.565    532.951    464.565    514.336    464.565
112.470    570.481    591.595    -21.115    464.497    534.933    464.497    521.148    464.497
112.570    626.000    601.635     24.365    464.432    537.125    464.432    528.931    464.432
112.670    628.435    612.969     15.466    464.371    539.580    464.371    537.749    464.371
112.770    615.000    625.715    -10.715    464.313    542.362    464.313    547.655    464.313
112.870    633.000    639.988     -6.988    464.259    545.553    464.259    558.681    464.259
112.970    647.000    655.903     -8.903    464.208    549.262    464.208    570.836    464.208
113.070    718.179    673.580     44.599    464.161    553.628    464.161    584.100    464.161
113.170    657.000    693.151    -36.151    464.118    558.834    464.118    598.420    464.118
113.270    715.000    714.767      0.233    464.078    565.122    464.078    613.706    464.078
113.370    735.000    738.612     -3.612    464.042    572.807    464.042    629.829    464.042
113.470    724.266    764.922    -40.656    464.010    582.299    464.010    646.612    464.010
113.570    752.133    794.003    -41.869    463.981    594.125    463.981    663.835    463.981
113.670    866.302    826.254     40.049    463.956    608.958    463.956    681.224    463.956
113.770    866.150    862.193      3.957    463.936    627.637    463.936    698.457    463.936
113.870    897.000    902.485     -5.485    463.919    651.204    463.919    715.159    463.919
113.970    990.674    947.973     42.701    463.906    680.920    463.906    730.909    463.906
114.070    941.000    999.704    -58.704    463.897    718.295    463.897    745.245    463.897
114.170   1078.000   1058.964     19.036    463.893    765.091    463.893    757.690    463.893
114.270   1182.948   1127.303     55.644    463.892    823.330    463.892    767.772    463.892
114.370   1201.000   1206.562     -5.562    463.896    895.274    463.896    775.070    463.896
114.470   1288.388   1298.873    -10.485    463.903    983.387    463.903    779.251    463.903
114.570   1380.496   1406.644    -26.148    463.915   1090.275    463.915    780.114    463.915
114.670   1539.000   1532.491      6.509    463.932   1218.599    463.932    777.619    463.932
114.770   1738.000   1679.130     58.870    463.952   1370.953    463.952    771.886    463.952
114.870   1865.000   1849.216     15.784    463.977   1549.719    463.977    763.186    463.977
114.970   2233.000   2045.134    187.866    464.007   1756.905    464.007    751.900    464.007
115.070   2178.221   2268.778    -90.557    464.041   1993.950    464.041    738.481    464.041
115.170   2454.296   2521.304    -67.009    464.079   2261.534    464.079    723.407    464.079
115.270   2870.620   2802.917     67.703    464.122   2559.390    464.122    707.152    464.122
115.370   3198.000   3112.666     85.334    464.170   2886.126    464.170    690.159    464.170
115.470   3356.000   3448.294    -92.294    464.222   3239.086    464.222    672.827    464.222
115.570   3740.000   3806.127    -66.127    464.279   3614.251    464.279    655.506    464.279
115.670   4222.000   4181.033     40.967    464.341   4006.191    464.341    638.494    464.341
115.770   4456.000   4566.429   -110.429    464.408   4408.080    464.408    622.038    464.408
115.870   4793.000   4954.372   -161.372    464.479   4811.778    464.479    606.337    464.479
115.970   5255.000   5335.701    -80.701    464.556   5207.974    464.556    591.543    464.556
116.070   5573.000   5700.268   -127.268    464.637   5586.411    464.637    577.766    464.637
116.170   6069.048   6037.248     31.800    464.724   5936.195    464.724    565.078    464.724
116.270   6326.000   6335.558     -9.558    464.815   6246.208    464.815    553.513    464.815
116.370   6590.000   6584.417      5.583    464.912   6505.663    464.912    543.078    464.912
116.470   6807.000   6774.028     32.972    465.013   6704.784    465.013    533.751    465.013
116.570   6822.073   6896.374    -74.302    465.120   6835.592    465.120    525.491    465.120
116.670   7020.000   6945.988     74.012    465.232   6892.677    465.232    518.237    465.232
116.770   6945.641   6920.556     25.085    465.350   6873.790    465.350    511.919    465.350
116.870   6870.000   6821.179     48.821    465.473   6780.108    465.473    506.458    465.473
116.970   6643.983   6652.226     -8.243    465.601   6616.076    465.601    501.771    465.601
117.070   6389.886   6420.812    -30.926    465.735   6388.889    465.735    497.774    465.735
117.170   6132.000   6136.060     -4.060    465.874   6107.750    465.874    494.384    465.874
117.270   5653.000   5808.302   -155.302    466.019   5783.067    466.019    491.524    466.019
117.370   5379.000   5448.380    -69.380    466.169   5425.753    466.169    489.121    466.169
117.470   4994.000   5067.090    -73.090    466.325   5046.670    466.325    487.108    466.325
117.570   4583.000   4674.639    -91.639    466.487   4656.087    466.487    485.427    466.487
117.670   4347.000   4280.390     66.610    466.655   4263.417    466.655    484.024    466.655
117.770   4079.000   3892.602    186.398    466.828   3876.969    466.828    482.855    466.828
117.870   3749.000   3518.271    230.729    467.008   3503.778    467.008    481.881    467.008
117.970   3207.000   3163.045     43.955    467.193   3149.527    467.193    481.070    467.193
118.070   2862.000   2831.206     30.794    467.384   2818.527    467.384    480.394    467.384
118.170   2600.000   2525.711     74.289    467.581   2513.762    467.581    479.830    467.581
118.270   2203.000   2248.297    -45.297    467.785   2236.986    467.785    479.360    467.785
118.370   1977.000   1999.605    -22.605    467.994   1988.860    467.994    478.969    467.994
118.470   1814.941   1779.350     35.592    468.210   1769.109    468.210    478.645    468.210
118.570   1600.309   1586.485     13.824    468.432   1576.699    468.432    478.379    468.432
118.670   1439.000   1419.386     19.614    468.660   1410.015    468.660    478.163    468.660
118.770   1290.000   1276.018     13.982    468.895   1267.028    468.895    477.990    468.895
118.870   1111.953   1154.096    -42.144    469.136   1145.457    469.136    477.856    469.136
118.970   1072.000   1051.225     20.775    469.383   1042.912    469.383    477.757    469.383
119.070    963.000    965.014     -2.014    469.637    957.006    469.637    477.691    469.637
119.170    881.000    893.172    -12.172    469.898    885.449    469.898    477.653    469.898
119.270    761.000    833.569    -72.569    470.165    826.113    470.165    477.643    470.165
119.370    778.000    784.281     -6.281    470.439    777.074    470.439    477.660    470.439
119.470    715.804    743.608    -27.804    470.720    736.635    470.720    477.701    470.720
119.570    720.000    710.080      9.920    471.008    703.326    471.008    477.767    471.008
119.670    676.000    682.449     -6.449    471.302    675.898    471.302    477.856    471.302
119.770    620.000    659.672    -39.672    471.604    653.308    471.604    477.968    471.604
119.870    618.000    640.886    -22.886    471.912    634.696    471.912    478.102    471.912
119.970    628.776    625.392      3.383    472.228    619.360    472.228    478.260    472.228
120.070    630.000    612.625     17.375    472.550    606.735    472.550    478.440    472.550
120.170    593.126    602.134     -9.008    472.880    596.370    472.880    478.643    472.880
120.270    621.109    593.560     27.549    473.217    587.907    473.217    478.870    473.217
120.370    546.000    586.621    -40.621    473.561    581.063    473.561    479.120    473.561
120.470    554.000    581.096    -27.096    473.913    575.615    473.913    479.395    473.913
120.570    614.402    576.810     37.592    474.272    571.390    474.272    479.694    474.272
120.670    582.000    573.628      8.372    474.638    568.251    474.638    480.019    474.638
120.770    557.000    571.444    -14.444    475.012    566.090    475.012    480.369    475.012
120.870    567.000    570.172     -3.172    475.394    564.824    475.394    480.746    475.394
120.970    553.000    569.744    -16.744    475.783    564.382    475.783    481.151    475.783
121.070    533.000    570.102    -37.102    476.180    564.707    476.180    481.582    476.180
121.170    596.000    571.195     24.805    476.585    565.746    476.585    482.042    476.585
121.270    578.000    572.973      5.027    476.997    567.451    476.997    482.529    476.997
121.370    574.000    575.388     -1.388    477.418    569.773    477.418    483.044    477.418
121.470    560.000    578.387    -18.387    477.846    572.659    477.846    483.586    477.846
121.570    586.007    581.910      4.097    478.282    576.052    478.282    484.155    478.282
121.670    568.000    585.894    -17.894    478.727    579.888    478.727    484.750    478.727
121.770    573.000    590.263    -17.263    479.180    584.093    479.180    485.369    479.180
121.870    595.000    594.936      0.064    479.640    588.587    479.640    486.011    479.640
121.970    604.000    599.819      4.181    480.109    593.281    480.109    486.673    480.109
122.070    623.000    604.814     18.186    480.587    598.075    480.587    487.353    480.587
122.170    581.000    609.810    -28.810    481.073    602.866    481.073    488.048    481.073
122.270    582.377    614.695    -32.318    481.567    607.541    481.567    488.754    481.567
122.370    593.207    619.349    -26.141    482.070    611.987    482.070    489.467    482.070
122.470    677.000    623.654     53.346    482.581    616.090    482.581    490.183    482.581
122.570    633.000    627.495      5.505    483.101    619.740    483.101    490.898    483.101
122.670    665.050    630.769     34.281    483.630    622.838    483.630    491.604    483.630
122.770    595.689    633.387    -37.697    484.167    625.301    484.167    492.299    484.167
122.870    637.647    635.281      2.366    484.714    627.067    484.714    492.974    484.714
122.970    604.215    636.410    -32.195    485.269    628.100    485.269    493.627    485.269
123.070    641.000    636.763      4.237    485.833    628.393    485.833    494.251    485.833
123.170    650.000    636.354     13.646    486.407    627.965    486.407    494.843    486.407
123.270    657.000    635.225     21.775    486.989    626.859    486.989    495.402    486.989
123.370    701.000    633.438     67.562    487.581    625.139    487.581    495.925    487.581
123.470    681.000    631.067     49.933    488.181    622.879    488.181    496.414    488.181
123.570    622.000    628.200     -6.200    488.792    620.163    488.792    496.870    488.792
123.670    672.478    624.926     47.552    489.411    617.078    489.411    497.298    489.411
123.770    612.000    621.336     -9.336    490.040    613.711    490.040    497.701    490.040
123.870    651.584    617.517     34.067    490.679    610.143    490.679    498.086    490.679
123.970    605.176    613.550     -8.373    491.327    606.450    491.327    498.457    491.327
124.070    657.075    609.508     47.567    491.984    602.700    491.984    498.820    491.984
124.170    597.000    605.454     -8.454    492.652    598.951    492.652    499.179    492.652
124.270    601.000    601.440     -0.440    493.329    595.249    493.329    499.541    493.329
124.370    590.967    597.505     -6.538    494.016    591.630    494.016    499.909    494.016
124.470    611.000    593.678     17.322    494.713    588.119    494.713    500.288    494.713
124.570    616.377    589.977     26.400    495.420    584.729    495.420    500.681    495.420
124.670    579.000    586.409     -7.409    496.137    581.467    496.137    501.091    496.137
124.770    565.000    582.978    -17.978    496.865    578.331    496.865    501.521    496.865
124.870    547.000    579.678    -32.678    497.602    575.315    497.602    501.972    497.602
124.970    557.000    576.503    -19.503    498.350    572.411    498.350    502.448    498.350
