neutron_powder_diffraction_0127
R_wp: 3.829
Temperature (K): 1022.134
Counts: 83940.00
Wavelength (Ã…): 2.52098
COMMENTS
Test file for demonstrating the .xyy file format in Reel1.0
END OF HEADER
   tth       Y_obs     Y_calc      Y_res    Background    Phase_1_Nuc    Phase_1_Mag    Phase_2_Nuc    Phase_2_Mag
  9.970    542.274    567.043    -24.768    565.987    566.938    565.987    566.091    565.987
 10.070    617.000    567.247     49.753    566.108    567.142    566.108    566.212    566.108
 10.170    545.000    567.457    -22.457    566.222    567.352    566.222    566.327    566.222
 10.270    629.000    567.676     61.324    566.330    567.570    566.330    566.435    566.330
 10.370    525.383    567.905    -42.522    566.431    567.798    566.431    566.537    566.431
 10.470    593.434    568.148     25.285    566.526    568.041    566.526    566.632    566.526
 10.570    584.528    568.412     16.116    566.614    568.304    566.614    566.721    566.614
 10.670    578.711    568.703     10.008    566.696    568.595    566.696    566.803    566.696
 10.770    551.863    569.030    -17.167    566.772    568.921    566.772    566.880    566.772
 10.870    586.000    569.406     16.594    566.842    569.297    566.842    566.950    566.842
 10.970    616.128    569.848     46.280    566.906    569.738    566.906    567.014    566.906
 11.070    563.222    570.381     -7.159    566.964    570.270    566.964    567.072    566.964
 11.170    607.000    571.039     35.961    567.015    570.928    567.015    567.125    567.015
 11.270    567.295    571.881     -4.586    567.061    571.768    567.061    567.171    567.061
 11.370    578.000    573.010      4.990    567.101    572.896    567.101    567.211    567.101
 11.470    650.000    574.657     75.343    567.135    574.542    567.135    567.246    567.135
 11.570    583.000    577.379      5.621    567.163    577.262    567.163    567.274    567.163
 11.670    622.000    582.425     39.575    567.186    582.305    567.186    567.297    567.186
 11.770    624.000    592.052     31.948    567.203    591.926    567.203    567.315    567.203
 11.870    614.000    609.141      4.859    567.214    609.005    567.214    567.327    567.214
 11.970    614.000    635.251    -21.251    567.220    635.100    567.220    567.333    567.220
 12.070    666.860    666.917     -0.057    567.220    666.748    567.220    567.334    567.220
 12.170    669.258    692.101    -22.842    567.215    691.917    567.215    567.329    567.215
 12.270    655.000    695.137    -40.137    567.204    694.951    567.204    567.319    567.204
 12.370    654.000    673.504    -19.504    567.188    673.330    567.188    567.304    567.188
 12.470    621.997    641.690    -19.694    567.167    641.533    567.167    567.283    567.167
 12.570    598.096    613.751    -15.655    567.141    613.609    567.141    567.257    567.141
 12.670    576.000    594.752    -18.752    567.110    594.620    567.110    567.226    567.110
 12.770    595.000    583.800     11.200    567.073    583.673    567.073    567.190    567.073
 12.870    555.000    578.031    -23.031    567.031    577.907    567.031    567.149    567.031
 12.970    581.854    574.962      6.891    566.985    574.839    566.985    567.103    566.985
 13.070    570.000    573.149     -3.149    566.933    573.027    566.933    567.052    566.933
 13.170    571.000    571.928     -0.928    566.877    571.806    566.877    566.996    566.877
 13.270    565.000    571.026     -6.026    566.815    570.903    566.815    566.935    566.815
 13.370    617.000    570.323     46.677    566.749    570.201    566.749    566.870    566.749
 13.470    547.000    569.758    -22.758    566.678    569.635    566.678    566.800    566.678
 13.570    620.000    569.290     50.710    566.603    569.167    566.603    566.725    566.603
 13.670    498.000    568.894    -70.894    566.523    568.770    566.523    566.645    566.523
 13.770    536.129    568.551    -32.422    566.438    568.427    566.438    566.561    566.438
 13.870    556.000    568.249    -12.249    566.349    568.125    566.349    566.473    566.349
 13.970    559.218    567.978     -8.759    566.255    567.853    566.255    566.379    566.255
 14.070    573.000    567.730      5.270    566.157    567.604    566.157    566.282    566.157
 14.170    591.000    567.500     23.500    566.055    567.373    566.055    566.180    566.055
 14.270    571.000    567.284      3.716    565.948    567.157    565.948    566.074    565.948
 14.370    608.300    567.081     41.220    565.837    566.953    565.837    565.963    565.837
 14.470    558.000    566.885     -8.885    565.721    566.757    565.721    565.849    565.721
 14.570    525.850    566.694    -40.844    565.602    566.566    565.602    565.730    565.602
 14.670    585.000    566.509     18.491    565.478    566.379    565.478    565.607    565.478
 14.770    564.000    566.326     -2.326    565.350    566.196    565.350    565.480    565.350
 14.870    537.514    566.146    -28.632    565.219    566.015    565.219    565.349    565.219
 14.970    563.699    565.968     -2.269    565.083    565.837    565.083    565.214    565.083
 15.070    561.487    565.790     -4.303    564.943    565.659    564.943    565.075    564.943
 15.170    602.234    565.613     36.621    564.800    565.480    564.800    564.932    564.800
 15.270    599.014    565.435     33.579    564.652    565.302    564.652    564.785    564.652
 15.370    535.000    565.259    -30.259    564.501    565.125    564.501    564.635    564.501
 15.470    554.000    565.079    -11.079    564.346    564.945    564.346    564.481    564.346
 15.570    570.713    564.899      5.814    564.188    564.764    564.188    564.323    564.188
 15.670    568.000    564.717      3.283    564.025    564.581    564.025    564.161    564.025
 15.770    537.738    564.533    -26.795    563.859    564.396    563.859    563.996    563.859
 15.870    548.000    564.348    -16.348    563.690    564.210    563.690    563.827    563.690
 15.970    530.000    564.160    -34.160    563.517    564.022    563.517    563.655    563.517
 16.070    524.000    563.971    -39.971    563.341    563.832    563.341    563.479    563.341
 16.170    565.000    563.779      1.221    563.161    563.639    563.161    563.300    563.161
 16.270    549.404    563.586    -14.182    562.977    563.445    562.977    563.118    562.977
 16.370    569.000    563.390      5.610    562.791    563.248    562.791    562.932    562.791
 16.470    571.476    563.191      8.284    562.601    563.049    562.601    562.743    562.601
 16.570    566.303    562.991      3.312    562.408    562.848    562.408    562.551    562.408
 16.670    579.766    562.788     16.978    562.212    562.644    562.212    562.356    562.212
 16.770    582.000    562.583     19.417    562.012    562.438    562.012    562.157    562.012
 16.870    588.000    562.384     25.616    561.810    562.238    561.810    561.955    561.810
 16.970    551.000    562.193    -11.193    561.604    562.046    561.604    561.751    561.604
 17.070    577.000    561.982     15.018    561.395    561.835    561.395    561.543    561.395
 17.170    534.000    561.768    -27.768    561.184    561.619    561.184    561.332    561.184
 17.270    506.000    561.551    -55.551    560.969    561.401    560.969    561.118    560.969
 17.370    563.503    561.331      2.172    560.752    561.181    560.752    560.902    560.752
 17.470    567.000    561.110      5.890    560.531    560.958    560.531    560.683    560.531
 17.570    569.000    560.886      8.114    560.308    560.733    560.308    560.460    560.308
 17.670    548.000    560.660    -12.660    560.082    560.506    560.082    560.236    560.082
 17.770    505.000    560.431    -55.431    559.854    560.277    559.854    560.008    559.854
 17.870    576.000    560.200     15.800    559.622    560.045    559.622    559.778    559.622
 17.970    604.000    559.967     44.033    559.388    559.811    559.388    559.545    559.388
 18.070    514.921    559.732    -44.811    559.152    559.574    559.152    559.309    559.152
 18.170    532.180    559.495    -27.315    558.912    559.336    558.912    559.071    558.912
 18.270    499.000    559.255    -60.255    558.671    559.095    558.671    558.831    558.671
 18.370    577.869    559.014     18.855    558.427    558.853    558.427    558.588    558.427
 18.470    553.000    558.772     -5.772    558.180    558.609    558.180    558.342    558.180
 18.570    596.000    558.531     37.469    557.931    558.367    557.931    558.094    557.931
 18.670    529.000    558.309    -29.309    557.680    558.144    557.680    557.844    557.680
 18.770    578.000    558.144     19.856    557.426    557.978    557.426    557.592    557.426
 18.870    560.182    557.901      2.282    557.170    557.734    557.170    557.337    557.170
 18.970    553.756    557.648     -3.892    556.912    557.480    556.912    557.080    556.912
 19.070    534.000    557.393    -23.393    556.651    557.223    556.651    556.821    556.651
 19.170    598.328    557.137     41.191    556.389    556.966    556.389    556.559    556.389
 19.270    548.000    556.885     -8.885    556.124    556.713    556.124    556.296    556.124
 19.370    574.738    556.626     18.113    555.857    556.452    555.857    556.031    555.857
 19.470    557.000    556.364      0.636    555.588    556.189    555.588    555.763    555.588
 19.570    571.000    556.101     14.899    555.317    555.925    555.317    555.494    555.317
 19.670    545.000    555.837    -10.837    555.044    555.659    555.044    555.222    555.044
 19.770    594.839    555.571     39.268    554.769    555.392    554.769    554.949    554.769
 19.870    536.481    555.304    -18.823    554.493    555.123    554.493    554.674    554.493
 19.970    563.124    555.035      8.089    554.214    554.853    554.214    554.397    554.214
 20.070    570.000    554.765     15.235    553.934    554.581    553.934    554.118    553.934
 20.170    566.102    554.494     11.607    553.651    554.309    553.651    553.837    553.651
 20.270    522.982    554.225    -31.244    553.367    554.038    553.367    553.555    553.367
 20.370    592.134    553.987     38.147    553.082    553.798    553.082    553.271    553.082
 20.470    559.000    553.748      5.252    552.794    553.557    552.794    552.985    552.794
 20.570    593.856    553.476     40.380    552.505    553.284    552.505    552.698    552.505
 20.670    550.000    553.201     -3.201    552.214    553.007    552.214    552.409    552.214
 20.770    518.000    552.925    -34.925    551.922    552.729    551.922    552.118    551.922
 20.870    581.542    552.649     28.893    551.628    552.450    551.628    551.826    551.628
 20.970    518.550    552.373    -33.823    551.333    552.173    551.333    551.533    551.333
 21.070    567.000    552.099     14.901    551.036    551.896    551.036    551.238    551.036
 21.170    591.399    551.824     39.575    550.738    551.619    550.738    550.942    550.738
 21.270    517.800    551.547    -33.747    550.438    551.340    550.438    550.644    550.438
 21.370    557.000    551.269      5.731    550.137    551.061    550.137    550.346    550.137
 21.470    566.000    550.993     15.007    549.834    550.782    549.834    550.045    549.834
 21.570    534.000    550.717    -16.717    549.530    550.504    549.530    549.744    549.530
 21.670    567.097    550.455     16.642    549.225    550.239    549.225    549.441    549.225
 21.770    562.379    550.215     12.164    548.919    549.996    548.919    549.137    548.919
 21.870    530.000    549.945    -19.945    548.612    549.725    548.612    548.832    548.612
 21.970    547.000    549.675     -2.675    548.303    549.452    548.303    548.526    548.303
 22.070    555.000    549.412      5.588    547.993    549.186    547.993    548.219    547.993
 22.170    602.000    549.152     52.848    547.682    548.923    547.682    547.911    547.682
 22.270    555.000    548.889      6.111    547.370    548.658    547.370    547.602    547.370
 22.370    544.000    548.630     -4.630    547.057    548.396    547.057    547.292    547.057
 22.470    540.000    548.378     -8.378    546.743    548.140    546.743    546.981    546.743
 22.570    567.000    548.150     18.850    546.427    547.909    546.427    546.669    546.427
 22.670    573.000    547.925     25.075    546.111    547.680    546.111    546.356    546.111
 22.770    506.000    547.693    -41.693    545.794    547.446    545.794    546.042    545.794
 22.870    539.000    547.471     -8.471    545.476    547.220    545.476    545.728    545.476
 22.970    548.000    547.261      0.739    545.157    547.006    545.157    545.413    545.157
 23.070    519.135    547.066    -27.931    544.838    546.807    544.838    545.097    544.838
 23.170    550.000    546.891      3.109    544.517    546.628    544.517    544.781    544.517
 23.270    543.721    546.751     -3.029    544.196    546.484    544.196    544.463    544.196
 23.370    541.000    546.646     -5.646    543.874    546.375    543.874    544.146    543.874
 23.470    527.107    546.572    -19.465    543.551    546.297    543.551    543.827    543.551
 23.570    594.000    546.558     47.442    543.228    546.278    543.228    543.509    543.228
 23.670    534.625    546.613    -11.989    542.904    546.329    542.904    543.190    542.904
 23.770    531.107    546.768    -15.661    542.579    546.479    542.579    542.870    542.579
 23.870    554.000    547.089      6.911    542.253    546.795    542.253    542.550    542.253
 23.970    582.589    547.595     34.994    541.927    547.296    541.927    542.229    541.927
 24.070    540.000    548.513     -8.513    541.601    548.208    541.601    541.909    541.601
 24.170    552.273    550.292      1.981    541.274    549.983    541.274    541.588    541.274
 24.270    577.000    553.852     23.148    540.946    553.540    540.946    541.267    540.946
 24.370    597.000    560.768     36.232    540.618    560.454    540.618    540.946    540.618
 24.470    566.664    572.719     -6.054    540.290    572.407    540.290    540.624    540.290
 24.570    558.594    590.283    -31.689    539.961    589.976    539.961    540.303    539.961
 24.670    605.000    610.541     -5.541    539.632    610.241    539.632    539.981    539.632
 24.770    633.000    625.190      7.810    539.302    624.892    539.302    539.660    539.302
 24.870    583.806    624.932    -41.126    538.972    624.626    538.972    539.339    538.972
 24.970    610.000    609.756      0.244    538.642    609.430    538.642    539.018    538.642
 25.070    574.000    588.967    -14.967    538.311    588.616    538.311    538.697    538.311
 25.170    572.000    570.850      1.150    537.981    570.476    537.981    538.377    537.981
 25.270    546.032    558.357    -12.325    537.649    557.963    537.649    538.057    537.649
 25.370    546.000    550.939     -4.939    537.318    550.528    537.318    537.737    537.318
 25.470    512.846    546.845    -33.999    536.987    546.419    536.987    537.418    536.987
 25.570    570.553    544.540     26.013    536.655    544.099    536.655    537.100    536.655
 25.670    528.790    543.099    -14.309    536.323    542.643    536.323    536.783    536.323
 25.770    566.000    542.079     23.921    535.992    541.607    535.992    536.466    535.992
 25.870    556.000    541.295     14.705    535.660    540.806    535.660    536.150    535.660
 25.970    573.000    540.661     32.339    535.328    540.154    535.328    535.836    535.328
 26.070    584.000    540.136     43.864    534.996    539.610    534.996    535.523    534.996
 26.170    574.000    539.699     34.301    534.664    539.152    534.664    535.211    534.664
 26.270    571.426    539.334     32.093    534.332    538.765    534.332    534.901    534.332
 26.370    576.000    539.032     36.968    534.000    538.439    534.000    534.593    534.000
 26.470    576.000    538.790     37.210    533.668    538.171    533.668    534.287    533.668
 26.570    572.000    538.607     33.393    533.336    537.959    533.336    533.984    533.336
 26.670    520.000    538.486    -18.486    533.004    537.807    533.004    533.683    533.004
 26.770    526.000    538.435    -12.435    532.672    537.723    532.672    533.385    532.672
 26.870    575.112    538.461     36.651    532.341    537.712    532.341    533.090    532.341
 26.970    541.000    538.581      2.419    532.010    537.791    532.010    532.800    532.010
 27.070    544.000    538.818      5.182    531.679    537.983    531.679    532.514    531.679
 27.170    572.000    539.207     32.793    531.348    538.321    531.348    532.232    531.348
 27.270    554.000    539.796     14.204    531.017    538.855    531.017    531.957    531.017
 27.370    533.000    540.665     -7.665    530.687    539.662    530.687    531.689    530.687
 27.470    574.000    541.957     32.043    530.357    540.885    530.357    531.428    530.357
 27.570    569.017    544.054     24.962    530.027    542.903    530.027    531.176    530.027
 27.670    552.000    548.308      3.692    529.697    547.066    529.697    530.936    529.697
 27.770    591.000    559.225     31.775    529.368    557.878    529.368    530.708    529.368
 27.870    602.000    588.025     13.975    529.039    586.552    529.039    530.495    529.039
 27.970    665.000    652.017     12.983    528.711    650.390    528.711    530.301    528.711
 28.070    711.841    759.315    -47.475    528.383    757.502    528.383    530.130    528.383
 28.170    864.000    881.826    -17.826    528.056    879.804    528.056    529.986    528.056
 28.270    966.488    949.443     17.045    527.728    947.207    527.728    529.875    527.728
 28.370    906.000    911.111     -5.111    527.402    908.653    527.402    529.804    527.402
 28.470    855.000    807.673     47.327    527.076    804.946    527.076    529.781    527.076
 28.570    743.000    719.376     23.624    526.750    716.303    526.750    529.816    526.750
 28.670    649.674    694.037    -44.363    526.425    690.536    526.425    529.919    526.425
 28.770    716.000    731.435    -15.435    526.100    727.420    526.100    530.100    526.100
 28.870    851.173    795.368     55.805    525.776    790.756    525.776    530.370    525.776
 28.970    814.000    830.216    -16.216    525.453    824.923    525.453    530.736    525.453
 29.070    777.000    799.519    -22.519    525.130    793.456    525.130    531.199    525.130
 29.170    722.000    724.923     -2.923    524.808    717.997    524.808    531.750    524.808
 29.270    656.000    649.394      6.606    524.486    641.541    524.486    532.355    524.486
 29.370    639.000    596.708     42.292    524.166    587.930    524.166    532.954    524.166
 29.470    575.000    568.249      6.751    523.845    558.646    523.845    533.454    523.845
 29.570    564.363    555.271      9.092    523.526    545.062    523.526    533.737    523.526
 29.670    587.000    549.457     37.543    523.207    538.966    523.207    533.698    523.207
 29.770    547.926    546.245      1.681    522.889    535.853    522.889    533.281    522.889
 29.870    530.517    543.872    -13.355    522.572    533.936    522.572    532.507    522.572
 29.970    558.000    541.835     16.165    522.255    532.625    522.255    531.464    522.255
 30.070    563.000    540.065     22.935    521.939    531.737    521.939    530.266    521.939
 30.170    563.000    538.638     24.362    521.624    531.240    521.624    529.021    521.624
 30.270    540.824    537.760      3.064    521.310    531.262    521.310    527.806    521.310
 30.370    583.331    537.919     45.411    520.997    532.247    520.997    526.666    520.997
 30.470    537.000    540.216     -3.216    520.684    535.274    520.684    525.619    520.684
 30.570    588.000    546.464     41.536    520.372    542.155    520.372    524.671    520.372
 30.670    614.000    558.462     55.538    520.062    554.688    520.062    523.815    520.062
 30.770    608.519    575.992     32.527    519.752    572.667    519.752    523.044    519.752
 30.870    601.705    594.341      7.365    519.443    591.393    519.443    522.346    519.443
 30.970    571.000    603.869    -32.869    519.135    601.245    519.135    521.710    519.135
 31.070    588.000    597.381     -9.381    518.828    595.039    518.828    521.128    518.828
 31.170    545.805    579.361    -33.557    518.521    577.263    518.521    520.590    518.521
 31.270    542.000    559.598    -17.598    518.216    557.708    518.216    520.089    518.216
 31.370    553.000    544.336      8.664    517.912    542.620    517.912    519.619    517.912
 31.470    488.000    534.917    -46.917    517.609    533.347    517.609    519.174    517.609
 31.570    505.000    529.918    -24.918    517.307    528.473    517.307    518.749    517.307
 31.670    512.000    527.417    -15.417    517.005    526.078    517.005    518.343    517.005
 31.770    511.128    526.089    -14.960    516.705    524.842    516.705    517.951    516.705
 31.870    524.976    525.283     -0.306    516.406    524.116    516.406    517.571    516.406
 31.970    484.937    524.743    -39.805    516.108    523.647    516.108    517.202    516.108
 32.070    491.000    524.377    -33.377    515.811    523.345    515.811    516.843    515.811
 32.170    506.852    524.154    -17.302    515.515    523.178    515.515    516.491    515.515
 32.270    541.000    524.062     16.938    515.221    523.135    515.221    516.147    515.221
 32.370    533.000    524.101      8.899    514.927    523.219    514.927    515.808    514.927
 32.470    552.000    524.282     27.718    514.635    523.440    514.635    515.476    514.635
 32.570    532.000    524.623      7.377    514.343    523.816    514.343    515.149    514.343
 32.670    512.327    525.154    -12.827    514.053    524.381    514.053    514.826    514.053
 32.770    533.000    525.922      7.078    513.764    525.177    513.764    514.508    513.764
 32.870    559.000    526.990     32.010    513.476    526.272    513.476    514.193    513.476
 32.970    518.000    528.456    -10.456    513.190    527.762    513.190    513.883    513.190
 33.070    509.824    530.475    -20.651    512.904    529.803    512.904    513.575    512.904
 33.170    498.164    533.338    -35.174    512.620    532.686    512.620    513.271    512.620
 33.270    546.315    537.718      8.598    512.337    537.083    512.337    512.970    512.337
 33.370    584.000    545.291     38.709    512.056    544.672    512.056    512.671    512.056
 33.470    583.000    559.958     23.042    511.775    559.352    511.775    512.375    511.775
 33.570    559.000    589.191    -30.191    511.496    588.595    511.496    512.082    511.496
 33.670    631.567    643.587    -12.019    511.218    642.995    511.218    511.791    511.218
 33.770    739.000    731.782      7.218    510.941    731.191    510.941    511.503    510.941
 33.870    870.000    850.064     19.936    510.666    849.471    510.666    511.217    510.666
 33.970   1011.000    970.333     40.667    510.392    969.744    510.392    510.933    510.392
 34.070   1046.000   1038.375      7.625    510.120   1037.806    510.120    510.651    510.120
 34.170    972.000   1011.587    -39.587    509.848   1011.048    509.848    510.372    509.848
 34.270    901.000    908.747     -7.747    509.578    908.234    509.578    510.094    509.578
 34.370    777.000    784.559     -7.559    509.310    784.060    509.310    509.818    509.310
 34.470    672.000    680.113     -8.113    509.042    679.621    509.042    509.545    509.042
 34.570    575.000    609.548    -34.548    508.776    609.059    508.776    509.273    508.776
 34.670    524.315    568.813    -44.498    508.512    568.326    508.512    509.003    508.512
 34.770    570.000    547.471     22.529    508.249    546.987    508.249    508.735    508.249
 34.870    553.874    536.392     17.482    507.987    535.910    507.987    508.469    507.987
 34.970    545.965    530.092     15.873    507.727    529.614    507.727    508.205    507.727
 35.070    488.000    525.975    -37.975    507.468    525.501    507.468    507.942    507.468
 35.170    489.000    522.970    -33.970    507.210    522.498    507.210    507.681    507.210
 35.270    506.000    520.632    -14.632    506.954    520.163    506.954    507.423    506.954
 35.370    494.000    518.749    -24.749    506.700    518.284    506.700    507.165    506.700
 35.470    508.000    517.200     -9.200    506.447    516.736    506.447    506.910    506.447
 35.570    520.000    515.900      4.100    506.195    515.439    506.195    506.656    506.195
 35.670    521.746    514.794      6.952    505.945    514.334    505.945    506.404    505.945
 35.770    493.000    513.839    -20.839    505.696    513.381    505.696    506.154    505.696
 35.870    561.000    513.005     47.995    505.449    512.549    505.449    505.906    505.449
 35.970    480.000    512.270    -32.270    505.203    511.814    505.203    505.659    505.203
 36.070    531.357    511.617     19.740    504.959    511.162    504.959    505.414    504.959
 36.170    512.000    511.032      0.968    504.716    510.577    504.716    505.171    504.716
 36.270    546.114    510.507     35.607    504.475    510.053    504.475    504.929    504.475
 36.370    471.893    510.034    -38.142    504.235    509.580    504.235    504.690    504.235
 36.470    531.000    509.611     21.389    503.997    509.157    503.997    504.451    503.997
 36.570    549.327    509.235     40.092    503.761    508.780    503.761    504.215    503.761
 36.670    488.076    508.908    -20.831    503.526    508.453    503.526    503.980    503.526
 36.770    523.000    508.638     14.362    503.292    508.183    503.292    503.748    503.292
 36.870    516.070    508.451      7.619    503.060    507.995    503.060    503.516    503.060
 36.970    528.000    508.401     19.599    502.830    507.944    502.830    503.287    502.830
 37.070    477.000    508.598    -31.598    502.601    508.141    502.601    503.059    502.601
 37.170    497.000    509.225    -12.225    502.374    508.766    502.374    502.833    502.374
 37.270    564.000    510.510     53.490    502.148    510.051    502.148    502.609    502.148
 37.370    474.193    512.628    -38.436    501.924    512.167    501.924    502.387    501.924
 37.470    535.573    515.519     20.054    501.702    515.057    501.702    502.166    501.702
 37.570    551.000    518.661     32.339    501.481    518.198    501.481    501.947    501.481
 37.670    603.000    520.968     82.032    501.262    520.505    501.262    501.730    501.262
 37.770    525.000    521.299      3.701    501.044    520.836    501.044    501.514    501.044
 37.870    530.000    519.512     10.488    500.828    519.048    500.828    501.300    500.828
 37.970    528.563    516.542     12.021    500.614    516.078    500.614    501.088    500.614
 38.070    492.464    513.355    -20.891    500.401    512.888    500.401    500.878    500.401
 38.170    486.000    510.448    -24.448    500.190    509.978    500.190    500.670    500.190
 38.270    523.663    508.076     15.588    499.980    507.601    499.980    500.463    499.980
 38.370    498.000    506.317     -8.317    499.772    505.837    499.772    500.258    499.772
 38.470    511.557    505.092      6.465    499.566    504.607    499.566    500.055    499.566
 38.570    494.370    504.257     -9.887    499.362    503.767    499.362    499.854    499.362
 38.670    489.878    503.677    -13.799    499.159    503.183    499.159    499.654    499.159
 38.770    480.947    503.250    -22.303    498.957    502.751    498.957    499.457    498.957
 38.870    494.000    502.909     -8.909    498.758    502.406    498.758    499.261    498.758
 38.970    524.511    502.618     21.893    498.560    502.112    498.560    499.067    498.560
 39.070    489.846    502.358    -12.512    498.364    501.848    498.364    498.875    498.364
 39.170    510.000    502.120      7.880    498.169    501.606    498.169    498.684    498.169
 39.270    509.994    501.900      8.094    497.976    501.382    497.976    498.496    497.976
 39.370    509.733    501.695      8.038    497.785    501.171    497.785    498.309    497.785
 39.470    520.000    501.502     18.498    497.596    500.974    497.596    498.124    497.596
 39.570    501.000    501.320     -0.320    497.408    500.788    497.408    497.941    497.408
 39.670    457.000    501.149    -44.149    497.222    500.612    497.222    497.760    497.222
 39.770    502.000    500.989      1.011    497.037    500.447    497.037    497.580    497.037
 39.870    495.949    500.839     -4.890    496.855    500.291    496.855    497.403    496.855
 39.970    478.000    500.699    -22.699    496.673    500.145    496.673    497.227    496.673
 40.070    466.963    500.569    -33.606    496.494    500.010    496.494    497.053    496.494
 40.170    497.000    500.450     -3.450    496.317    499.886    496.317    496.882    496.317
 40.270    520.000    500.343     19.657    496.141    499.773    496.141    496.712    496.141
 40.370    495.000    500.249     -5.249    495.966    499.672    495.966    496.544    495.966
 40.470    468.000    500.168    -32.168    495.794    499.585    495.794    496.377    495.794
 40.570    492.656    500.103     -7.446    495.623    499.513    495.623    496.213    495.623
 40.670    498.000    500.055     -2.055    495.454    499.459    495.454    496.051    495.454
 40.770    511.441    500.028     11.414    495.287    499.425    495.287    495.891    495.287
 40.870    519.000    500.024     18.976    495.121    499.414    495.121    495.732    495.121
 40.970    537.577    500.049     37.528    494.957    499.431    494.957    495.576    494.957
 41.070    526.476    500.107     26.369    494.795    499.482    494.795    495.421    494.795
 41.170    495.000    500.207     -5.207    494.634    499.574    494.634    495.269    494.634
 41.270    473.000    500.358    -27.358    494.476    499.717    494.476    495.118    494.476
 41.370    495.000    500.574     -5.574    494.319    499.924    494.319    494.970    494.319
 41.470    510.284    500.875      9.408    494.163    500.217    494.163    494.823    494.163
 41.570    491.000    501.293    -10.293    494.010    500.626    494.010    494.679    494.010
 41.670    531.483    501.885     29.598    493.858    501.210    493.858    494.536    493.858
 41.770    469.000    502.777    -33.777    493.708    502.091    493.708    494.396    493.708
 41.870    527.328    504.236     23.092    493.559    503.542    493.559    494.257    493.559
 41.970    520.126    506.819     13.307    493.413    506.115    493.413    494.121    493.413
 42.070    504.000    511.515     -7.515    493.268    510.803    493.268    493.987    493.268
 42.170    499.000    519.773    -20.773    493.124    519.053    493.124    493.855    493.124
 42.270    541.000    533.142      7.858    492.983    532.417    492.983    493.725    492.983
 42.370    486.000    552.405    -66.405    492.843    551.679    492.843    493.597    492.843
 42.470    491.000    576.299    -85.299    492.705    575.574    492.705    493.471    492.705
 42.570    619.000    600.241     18.759    492.569    599.516    492.569    493.347    492.569
 42.670    579.000    616.253    -37.253    492.434    615.527    492.434    493.226    492.434
 42.770    603.000    616.864    -13.864    492.301    616.127    492.301    493.107    492.301
 42.870    577.000    601.681    -24.681    492.170    600.924    492.170    492.990    492.170
 42.970    568.000    577.853     -9.853    492.041    577.068    492.041    492.876    492.041
 43.070    552.023    553.564     -1.541    491.913    552.749    491.913    492.763    491.913
 43.170    544.000    533.696     10.304    491.787    532.854    491.787    492.653    491.787
 43.270    477.000    519.727    -42.727    491.663    518.859    491.663    492.546    491.663
 43.370    504.000    510.978     -6.978    491.540    510.087    491.540    492.441    491.540
 43.470    436.000    505.917    -69.917    491.420    505.004    491.420    492.338    491.420
 43.570    446.000    503.067    -57.067    491.300    502.134    491.300    492.238    491.300
 43.670    508.355    501.399      6.956    491.183    500.445    491.183    492.140    491.183
 43.770    504.000    500.330      3.670    491.067    499.355    491.067    492.045    491.067
 43.870    536.000    499.575     36.425    490.954    498.579    490.954    491.953    490.954
 43.970    467.851    499.004    -31.153    490.841    497.984    490.841    491.863    490.841
 44.070    518.000    498.555     19.445    490.731    497.512    490.731    491.776    490.731
 44.170    476.321    498.196    -21.875    490.622    497.127    490.622    491.692    490.622
 44.270    567.000    497.906     69.094    490.515    496.811    490.515    491.611    490.515
 44.370    502.000    497.672      4.328    490.410    496.550    490.410    491.532    490.410
 44.470    455.548    497.484    -41.936    490.306    496.334    490.306    491.457    490.306
 44.570    482.768    497.335    -14.566    490.204    496.154    490.204    491.385    490.204
 44.670    466.107    497.219    -31.112    490.104    496.007    490.104    491.316    490.104
 44.770    494.477    497.132     -2.655    490.005    495.887    490.005    491.251    490.005
 44.870    488.000    497.072     -9.072    489.908    495.791    489.908    491.189    489.908
 44.970    461.000    497.036    -36.036    489.813    495.718    489.813    491.131    489.813
 45.070    538.418    497.022     41.396    489.719    495.666    489.719    491.077    489.719
 45.170    512.000    497.031     14.969    489.628    495.633    489.628    491.026    489.628
 45.270    519.010    497.061     21.949    489.537    495.619    489.537    490.980    489.537
 45.370    501.000    497.112      3.888    489.449    495.623    489.449    490.938    489.449
 45.470    500.019    497.186      2.833    489.362    495.647    489.362    490.901    489.362
 45.570    489.000    497.281     -8.281    489.277    495.689    489.277    490.869    489.277
 45.670    461.609    497.401    -35.792    489.194    495.752    489.194    490.842    489.194
 45.770    494.000    497.545     -3.545    489.112    495.836    489.112    490.821    489.112
 45.870    465.000    497.717    -32.717    489.032    495.943    489.032    490.805    489.032
 45.970    509.000    497.919     11.081    488.953    496.076    488.953    490.796    488.953
 46.070    491.000    498.155     -7.155    488.876    496.237    488.876    490.794    488.876
 46.170    504.492    498.428      6.064    488.801    496.430    488.801    490.799    488.801
 46.270    487.000    498.745    -11.745    488.728    496.660    488.728    490.812    488.728
 46.370    472.099    499.112    -27.013    488.656    496.934    488.656    490.834    488.656
 46.470    478.000    499.540    -21.540    488.585    497.259    488.585    490.865    488.585
 46.570    474.000    500.040    -26.040    488.517    497.649    488.517    490.907    488.517
 46.670    484.000    500.633    -16.633    488.450    498.122    488.450    490.960    488.450
 46.770    518.000    501.355     16.645    488.385    498.711    488.385    491.027    488.385
 46.870    492.000    502.272    -10.272    488.321    499.484    488.321    491.107    488.321
 46.970    476.000    503.526    -27.526    488.259    500.579    488.259    491.204    488.259
 47.070    529.129    505.387     23.742    488.198    502.263    488.198    491.319    488.198
 47.170    546.000    508.324     37.676    488.139    505.004    488.139    491.454    488.139
 47.270    520.000    513.033      6.967    488.082    509.493    488.082    491.614    488.082
 47.370    481.112    520.328    -39.216    488.026    516.539    488.026    491.801    488.026
 47.470    492.101    530.835    -38.734    487.972    526.766    487.972    492.021    487.972
 47.570    563.000    544.501     18.499    487.920    540.111    487.920    492.280    487.920
 47.670    563.000    560.023      2.977    487.869    555.267    487.869    492.584    487.869
 47.770    586.821    574.412     12.409    487.819    569.238    487.819    492.944    487.819
 47.870    597.000    583.379     13.621    487.772    577.726    487.772    493.371    487.772
 47.970    594.000    583.613     10.387    487.725    577.409    487.725    493.879    487.725
 48.070    597.000    575.640     21.360    487.681    568.792    487.681    494.486    487.681
 48.170    583.000    563.304     19.696    487.638    555.696    487.638    495.213    487.638
 48.270    511.534    550.769    -39.235    487.596    542.259    487.596    496.083    487.596
 48.370    511.402    540.715    -29.313    487.556    531.131    487.556    497.125    487.556
 48.470    522.000    534.218    -12.218    487.518    523.356    487.518    498.370    487.518
 48.570    576.000    531.232     44.768    487.481    518.860    487.481    499.847    487.481
 48.670    568.000    531.157     36.843    487.446    517.010    487.446    501.589    487.446
 48.770    513.000    533.299    -20.299    487.412    517.086    487.412    503.622    487.412
 48.870    502.000    537.134    -35.134    487.379    518.551    487.379    505.961    487.379
 48.970    514.000    542.402    -28.402    487.348    521.150    487.348    508.600    487.348
 49.070    549.000    549.131     -0.131    487.319    524.949    487.319    511.499    487.319
 49.170    524.000    557.786    -33.786    487.291    530.513    487.291    514.563    487.291
 49.270    568.951    569.837     -0.886    487.265    539.482    487.265    517.617    487.265
 49.370    583.000    589.122     -6.122    487.240    555.956    487.240    520.398    487.240
 49.470    594.000    624.288    -30.288    487.217    588.913    487.217    522.574    487.217
 49.570    687.000    691.648     -4.648    487.195    654.991    487.195    523.814    487.195
 49.670    869.828    815.843     53.985    487.174    779.051    487.174    523.900    487.174
 49.770   1049.617   1023.909     25.708    487.155    988.148    487.155    522.813    487.155
 49.870   1340.914   1329.807     11.106    487.138   1296.065    487.138    520.749    487.138
 49.970   1758.306   1713.181     45.125    487.122   1682.141    487.122    518.030    487.122
 50.070   2096.671   2104.291     -7.620    487.107   2076.319    487.107    514.992    487.107
 50.170   2375.000   2390.843    -15.843    487.094   2366.032    487.094    511.913    487.094
 50.270   2408.000   2462.544    -54.544    487.082   2440.769    487.082    508.979    487.082
 50.370   2229.000   2286.174    -57.174    487.072   2267.153    487.072    506.296    487.072
 50.470   2014.000   1936.509     77.491    487.063   1919.887    487.063    503.911    487.063
 50.570   1481.715   1535.507    -53.791    487.055   1520.931    487.055    501.833    487.055
 50.670   1168.656   1181.719    -13.063    487.049   1168.875    487.049    500.049    487.049
 50.770    900.000    923.441    -23.441    487.045    912.060    487.045    498.534    487.045
 50.870    752.000    763.273    -11.273    487.041    753.130    487.041    497.257    487.041
 50.970    705.000    677.455     27.545    487.039    668.360    487.039    496.188    487.039
 51.070    633.000    635.805     -2.805    487.039    627.593    487.039    495.295    487.039
 51.170    613.000    614.025     -1.025    487.039    606.554    487.039    494.550    487.039
 51.270    564.522    598.075    -33.552    487.041    591.222    487.041    493.928    487.041
 51.370    555.097    583.033    -27.936    487.045    576.697    487.045    493.409    487.045
 51.470    599.000    568.815     30.185    487.050    562.912    487.050    492.974    487.050
 51.570    608.000    556.491     51.509    487.056    550.955    487.056    492.609    487.056
 51.670    524.000    546.808    -22.808    487.063    541.582    487.063    492.302    487.063
 51.770    497.971    539.927    -41.955    487.072    534.965    487.072    492.043    487.072
 51.870    526.000    535.561     -9.561    487.082    530.826    487.082    491.824    487.082
 51.970    589.000    533.223     55.777    487.093    528.682    487.093    491.640    487.093
 52.070    553.000    532.444     20.556    487.106    528.069    487.106    491.485    487.106
 52.170    556.000    532.915     23.085    487.120    528.682    487.120    491.356    487.120
 52.270    547.684    534.551     13.133    487.135    530.440    487.135    491.250    487.135
 52.370    555.000    537.567     17.433    487.151    533.558    487.151    491.164    487.151
 52.470    585.552    542.621     42.930    487.169    538.698    487.169    491.095    487.169
 52.570    544.083    551.096     -7.013    487.188    547.243    487.188    491.043    487.188
 52.670    614.000    565.474     48.526    487.208    561.679    487.208    491.006    487.208
 52.770    622.146    589.648     32.498    487.230    585.897    487.230    490.983    487.230
 52.870    640.015    628.779     11.236    487.252    625.061    487.252    490.972    487.252
 52.970    701.000    688.281     12.719    487.276    684.586    487.276    490.974    487.276
 53.070    755.490    771.696    -16.206    487.301    768.016    487.301    490.987    487.301
 53.170    874.000    877.711     -3.711    487.328    874.038    487.328    491.010    487.328
 53.270    958.000    997.041    -39.041    487.355    993.370    487.355    491.044    487.355
 53.370   1096.000   1110.153    -14.153    487.384   1106.479    487.384    491.089    487.384
 53.470   1184.000   1188.550     -4.550    487.413   1184.866    487.413    491.143    487.413
 53.570   1290.000   1205.369     84.631    487.444   1201.665    487.444    491.206    487.444
 53.670   1160.000   1153.792      6.208    487.477   1150.051    487.477    491.280    487.477
 53.770   1017.000   1053.317    -36.317    487.510   1049.524    487.510    491.363    487.510
 53.870    922.000    934.199    -12.199    487.544    930.338    487.544    491.456    487.544
 53.970    844.000    820.905     23.095    487.580    816.966    487.580    491.559    487.580
 54.070    718.000    727.262     -9.262    487.616    723.236    487.616    491.672    487.616
 54.170    612.000    657.851    -45.851    487.654    653.731    487.654    491.795    487.654
 54.270    656.000    610.933     45.067    487.693    606.711    487.693    491.929    487.693
 54.370    590.219    581.590      8.629    487.733    577.260    487.733    492.073    487.733
 54.470    578.207    564.321     13.887    487.774    559.872    487.774    492.230    487.774
 54.570    586.186    554.573     31.614    487.816    549.996    487.816    492.399    487.816
 54.670    562.000    549.232     12.768    487.859    544.516    487.859    492.580    487.859
 54.770    527.195    546.455    -19.261    487.903    541.587    487.903    492.776    487.903
 54.870    565.000    545.268     19.732    487.949    540.235    487.949    492.986    487.949
 54.970    601.000    545.204     55.796    487.995    539.991    487.995    493.211    487.995
 55.070    571.000    546.062     24.938    488.042    540.654    488.042    493.454    488.042
 55.170    573.000    547.785     25.215    488.090    542.165    488.090    493.714    488.090
 55.270    610.000    550.395     59.605    488.140    544.544    488.140    493.994    488.140
 55.370    601.000    553.983     47.017    488.190    547.881    488.190    494.296    488.190
 55.470    513.794    558.746    -44.951    488.241    552.370    488.241    494.621    488.241
 55.570    570.000    565.068      4.932    488.294    558.394    488.294    494.971    488.294
 55.670    591.000    573.739     17.261    488.347    566.739    488.347    495.350    488.347
 55.770    594.000    586.373      7.627    488.401    579.017    488.401    495.760    488.401
 55.870    594.337    606.155    -11.817    488.456    598.408    488.456    496.205    488.456
 55.970    658.000    638.882     19.118    488.512    630.705    488.512    496.688    488.512
 56.070    695.000    694.022      0.978    488.569    685.371    488.569    497.215    488.569
 56.170    727.000    785.010    -58.010    488.627    775.834    488.627    497.791    488.627
 56.270    906.000    927.639    -21.639    488.686    917.884    488.686    498.422    488.686
 56.370   1096.000   1135.569    -39.569    488.746   1125.174    488.746    499.117    488.746
 56.470   1380.000   1413.075    -33.075    488.806   1401.976    488.806    499.885    488.806
 56.570   1642.000   1746.755   -104.755    488.868   1734.884    488.868    500.740    488.868
 56.670   2093.000   2098.892     -5.892    488.930   2086.171    488.930    501.695    488.930
 56.770   2373.000   2405.904    -32.904    488.993   2392.237    488.993    502.771    488.993
 56.870   2445.000   2589.840   -144.840    489.057   2575.105    489.057    503.990    489.057
 56.970   2585.000   2592.355     -7.355    489.122   2576.371    489.122    505.382    489.122
 57.070   2431.738   2413.319     18.419    489.188   2395.843    489.188    506.984    489.188
 57.170   2074.814   2110.970    -36.156    489.254   2091.704    489.254    508.840    489.254
 57.270   1865.000   1763.388    101.612    489.321   1741.990    489.321    511.002    489.321
 57.370   1426.000   1434.402     -8.402    489.389   1410.486    489.389    513.532    489.389
 57.470   1200.339   1162.024     38.315    489.458   1135.148    489.458    516.502    489.458
 57.570    953.000    959.991     -6.991    489.528    929.643    489.528    519.993    489.528
 57.670    845.000    824.474     20.526    489.598    790.058    489.598    524.089    489.598
 57.770    733.000    742.492     -9.492    489.669    703.327    489.669    528.881    489.669
 57.870    739.000    699.381     39.619    489.741    654.691    489.741    534.459    489.741
 57.970    651.606    683.511    -31.906    489.814    632.435    489.814    540.904    489.814
 58.070    737.277    688.020     49.257    489.887    629.630    489.887    548.280    489.887
 58.170    719.000    710.353      8.647    489.961    643.689    489.961    556.619    489.961
 58.270    735.000    750.600    -15.600    490.036    674.726    490.036    565.894    490.036
 58.370    848.118    809.416     38.702    490.111    723.512    490.111    575.991    490.111
 58.470    862.000    886.023    -24.023    490.187    789.525    490.187    586.655    490.187
 58.570    925.983    976.637    -50.654    490.264    869.426    490.264    597.445    490.264
 58.670   1074.000   1073.737      0.263    490.341    956.363    490.341    607.691    490.341
 58.770   1182.544   1167.094     15.450    490.419   1040.986    490.419    616.516    490.419
 58.870   1279.879   1246.825     33.054    490.498   1114.381    490.498    622.948    490.498
 58.970   1337.212   1305.267     31.946    490.577   1169.724    490.577    626.144    490.577
 59.070   1338.928   1335.734      3.194    490.657   1200.789    490.657    625.645    490.657
 59.170   1382.093   1333.379     48.714    490.738   1202.628    490.738    621.544    490.738
 59.270   1316.000   1300.450     15.550    490.819   1176.882    490.819    614.443    490.819
 59.370   1295.000   1248.601     46.399    490.900   1134.288    490.900    605.254    490.900
 59.470   1221.000   1193.653     27.347    490.983   1089.714    490.983    594.937    490.983
 59.570   1177.000   1150.074     26.926    491.065   1056.811    491.065    584.308    491.065
 59.670   1104.442   1130.339    -25.896    491.149   1047.461    491.149    573.964    491.149
 59.770   1100.000   1144.887    -44.887    491.233   1071.726    491.233    564.284    491.233
 59.870   1240.000   1198.404     41.596    491.317   1134.090    491.317    555.474    491.317
 59.970   1309.467   1285.217     24.250    491.402   1228.800    491.402    547.618    491.402
 60.070   1337.333   1387.531    -50.198    491.487   1338.064    491.487    540.723    491.487
 60.170   1503.000   1477.160     25.840    491.573   1433.748    491.573    534.744    491.573
 60.270   1593.000   1522.116     70.884    491.659   1483.939    491.659    529.613    491.659
 60.370   1556.000   1499.772     56.228    491.746   1466.091    491.746    525.246    491.746
 60.470   1427.000   1409.624     17.376    491.833   1379.775    491.833    521.552    491.833
 60.570   1224.844   1272.396    -47.551    491.921   1245.790    491.921    518.444    491.921
 60.670   1146.000   1117.049     28.951    492.009   1093.175    492.009    515.838    492.009
 60.770    938.000    968.859    -30.859    492.098    947.278    492.098    513.658    492.098
 60.870    855.000    844.307     10.693    492.187    824.651    492.187    511.835    492.187
 60.970    769.764    750.706     19.059    492.276    732.668    492.276    510.310    492.276
 61.070    743.000    688.345     54.655    492.366    671.671    492.366    509.035    492.366
 61.170    640.000    653.860    -13.860    492.456    638.340    492.456    507.966    492.456
 61.270    677.650    643.544     34.107    492.547    629.006    492.547    507.067    492.547
 61.370    626.000    655.585    -29.585    492.637    641.885    492.637    506.308    492.637
 61.470    655.741    690.716    -34.975    492.729    677.739    492.729    505.662    492.729
 61.570    747.000    751.282     -4.282    492.820    738.934    492.820    505.104    492.820
 61.670    828.000    839.046    -11.046    492.912    827.261    492.912    504.610    492.912
 61.770    928.814    952.386    -23.572    493.004    941.119    493.004    504.160    493.004
 61.870   1014.000   1083.678    -69.678    493.096   1072.909    493.096    503.735    493.096
 61.970   1170.961   1217.727    -46.766    493.189   1207.452    493.189    503.323    493.189
 62.070   1384.327   1332.105     52.222    493.282   1322.334    493.282    502.917    493.282
 62.170   1366.000   1401.237    -35.237    493.375   1391.982    493.375    502.517    493.375
 62.270   1344.388   1406.032    -61.644    493.469   1397.295    493.469    502.126    493.469
 62.370   1328.000   1344.619    -16.619    493.563   1336.387    493.563    501.752    493.563
 62.470   1208.000   1233.648    -25.648    493.657   1225.893    493.657    501.398    493.657
 62.570   1102.848   1098.440      4.408    493.751   1091.127    493.751    501.071    493.751
 62.670    919.926    962.365    -42.440    493.845    955.456    493.845    500.771    493.845
 62.770    824.000    841.785    -17.785    493.940    835.242    493.940    500.501    493.940
 62.870    765.000    745.169     19.831    494.035    738.960    494.035    500.260    494.035
 62.970    696.000    674.238     21.762    494.130    668.333    494.130    500.046    494.130
 63.070    649.935    626.133     23.802    494.225    620.505    494.225    499.859    494.225
 63.170    599.000    595.852      3.148    494.320    590.479    494.320    499.696    494.320
 63.270    549.000    578.248    -29.248    494.415    573.107    494.415    499.555    494.415
 63.370    565.000    569.234     -4.234    494.511    564.306    494.511    499.436    494.511
 63.470    580.273    566.252     14.021    494.606    561.518    494.606    499.335    494.606
 63.570    551.828    568.269    -16.441    494.702    563.712    494.702    499.251    494.702
 63.670    593.000    575.557     17.443    494.798    571.160    494.798    499.182    494.798
 63.770    613.000    589.386     23.614    494.894    585.134    494.894    499.127    494.894
 63.870    626.000    611.635     14.365    494.990    607.513    494.990    499.084    494.990
 63.970    647.000    644.243      2.757    495.086    640.238    495.086    499.053    495.086
 64.070    688.000    688.488     -0.488    495.182    684.586    495.182    499.031    495.182
 64.170    744.319    744.128      0.191    495.278    740.318    495.278    499.019    495.278
 64.270    831.000    808.567     22.433    495.374    804.842    495.374    499.015    495.374
 64.370    871.115    876.216     -5.100    495.470    872.570    495.470    499.019    495.470
 64.470    901.806    938.421    -36.615    495.566    934.855    495.566    499.029    495.566
 64.570    962.889    984.819    -21.930    495.663    981.335    495.663    499.046    495.663
 64.670    967.086   1006.716    -39.630    495.759   1003.318    495.759    499.069    495.759
 64.770    942.528   1000.781    -58.253    495.855    997.471    495.855    499.097    495.855
 64.870    919.000    969.983    -50.983    495.951    966.759    495.951    499.131    495.951
 64.970    900.587    921.682    -21.096    496.047    918.539    496.047    499.169    496.047
 65.070    853.000    864.885    -11.885    496.143    861.814    496.143    499.211    496.143
 65.170    825.276    807.631     17.645    496.238    804.626    496.238    499.258    496.238
 65.270    722.000    755.256    -33.256    496.334    752.307    496.334    499.309    496.334
 65.370    733.000    710.134     22.866    496.430    707.231    496.430    499.364    496.430
 65.470    630.000    672.614    -42.614    496.525    669.749    496.525    499.422    496.525
 65.570    627.000    642.200    -15.200    496.621    639.367    496.621    499.484    496.621
 65.670    580.829    618.173    -37.344    496.716    615.365    496.716    499.549    496.716
 65.770    588.549    599.708    -11.158    496.811    596.921    496.811    499.618    496.811
 65.870    614.163    585.926     28.237    496.906    583.157    496.906    499.689    496.906
 65.970    585.000    575.997      9.003    497.001    573.244    497.001    499.764    497.001
 66.070    611.047    569.220     41.827    497.095    566.481    497.095    499.841    497.095
 66.170    557.000    565.038     -8.038    497.190    562.311    497.190    499.922    497.190
 66.270    566.000    563.025      2.975    497.284    560.307    497.284    500.005    497.284
 66.370    603.149    562.874     40.275    497.378    560.164    497.378    500.091    497.378
 66.470    559.000    564.426     -5.426    497.472    561.722    497.472    500.180    497.472
 66.570    543.000    567.735    -24.735    497.565    565.033    497.565    500.272    497.565
 66.670    577.000    573.183      3.817    497.659    570.481    497.659    500.366    497.659
 66.770    572.000    581.682     -9.682    497.752    578.975    497.752    500.463    497.752
 66.870    610.000    594.956     15.044    497.844    592.242    497.844    500.563    497.844
 66.970    646.000    615.916     30.084    497.937    613.190    497.937    500.666    497.937
 67.070    637.000    649.019    -12.019    498.029    646.279    498.029    500.772    498.029
 67.170    742.387    700.442     41.946    498.121    697.683    498.121    500.881    498.121
 67.270    740.000    777.779    -37.779    498.212    775.000    498.212    500.993    498.212
 67.370    906.000    889.003     16.997    498.304    886.203    498.304    501.108    498.304
 67.470    981.000   1040.527    -59.527    498.395   1037.709    498.395    501.226    498.395
 67.570   1158.000   1234.559    -76.559    498.485   1231.727    498.485    501.348    498.485
 67.670   1486.056   1466.244     19.812    498.575   1463.409    498.575    501.473    498.575
 67.770   1732.400   1721.323     11.077    498.665   1718.495    498.665    501.602    498.665
 67.870   1950.000   1974.923    -24.923    498.754   1972.114    498.754    501.736    498.754
 67.970   2291.000   2192.395     98.605    498.844   2189.613    498.844    501.873    498.844
 68.070   2331.289   2334.463     -3.175    498.932   2331.705    498.932    502.015    498.932
 68.170   2318.886   2369.387    -50.501    499.020   2366.635    499.020    502.161    499.020
 68.270   2264.000   2288.356    -24.356    499.108   2285.575    499.108    502.313    499.108
 68.370   2170.425   2110.869     59.556    499.196   2108.017    499.196    502.470    499.196
 68.470   1936.000   1873.881     62.119    499.282   1870.921    499.282    502.633    499.282
 68.570   1655.000   1616.063     38.937    499.369   1612.967    499.369    502.802    499.369
 68.670   1359.000   1368.428     -9.428    499.455   1365.180    499.455    502.978    499.455
 68.770   1215.131   1151.431     63.700    499.540   1148.024    499.540    503.161    499.540
 68.870    981.000    975.223      5.777    499.625    971.654    499.625    503.353    499.625
 68.970    820.000    841.399    -21.399    499.710    837.668    499.710    503.553    499.710
 69.070    698.497    745.639    -47.142    499.794    741.748    499.794    503.763    499.794
 69.170    645.359    680.563    -35.203    499.877    676.510    499.877    503.984    499.877
 69.270    660.000    638.133     21.867    499.960    633.914    499.960    504.216    499.960
 69.370    606.000    611.229     -5.229    500.043    606.836    500.043    504.461    500.043
 69.470    635.000    594.351     40.649    500.125    589.774    500.125    504.720    500.125
 69.570    563.500    583.681    -20.181    500.206    578.906    500.206    504.995    500.206
 69.670    619.571    576.791     42.781    500.287    571.801    500.287    505.288    500.287
 69.770    556.000    572.244    -16.244    500.367    567.020    500.367    505.600    500.367
 69.870    575.389    569.243      6.146    500.446    563.762    500.446    505.935    500.446
 69.970    538.000    567.369    -29.369    500.525    561.606    500.525    506.295    500.525
 70.070    539.294    566.415    -27.121    500.604    560.340    500.604    506.684    500.604
 70.170    519.806    566.303    -46.497    500.681    559.883    500.681    507.106    500.681
 70.270    586.000    567.050     18.950    500.758    560.245    500.758    507.567    500.758
 70.370    559.000    568.774     -9.774    500.835    561.539    500.835    508.073    500.835
 70.470    564.000    571.745     -7.745    500.911    564.023    500.911    508.633    500.911
 70.570    564.000    576.473    -12.473    500.986    568.199    500.986    509.259    500.986
 70.670    607.000    583.853     23.147    501.060    574.945    501.060    509.965    501.060
 70.770    578.000    595.343    -17.343    501.134    585.703    501.134    510.769    501.134
 70.870    598.000    613.175    -15.175    501.207    602.678    501.207    511.694    501.207
 70.970    607.122    640.493    -33.371    501.279    628.987    501.279    512.770    501.279
 71.070    669.122    681.346    -12.224    501.351    668.640    501.351    514.032    501.351
 71.170    727.000    740.380    -13.380    501.422    726.240    501.422    515.524    501.422
 71.270    770.296    822.128    -51.832    501.492    806.268    501.492    517.298    501.492
 71.370    879.752    929.892    -50.140    501.561    911.968    501.561    519.413    501.561
 71.470   1096.000   1064.338     31.662    501.630   1043.940    501.630    521.935    501.630
 71.570   1193.000   1222.081    -29.081    501.698   1198.731    501.698    524.934    501.698
 71.670   1352.000   1394.565    -42.565    501.765   1367.717    501.765    528.482    501.765
 71.770   1518.000   1567.484    -49.484    501.831   1536.529    501.831    532.645    501.831
 71.870   1679.427   1721.063    -41.637    501.897   1685.340    501.897    537.480    501.897
 71.970   1776.681   1832.277    -55.596    501.962   1791.088    501.962    543.025    501.962
 72.070   1935.000   1880.680     54.320    502.026   1833.319    502.026    549.288    502.026
 72.170   1905.000   1856.961     48.039    502.089   1802.753    502.089    556.235    502.089
 72.270   1782.000   1767.848     14.152    502.151   1706.207    502.151    563.768    502.151
 72.370   1660.000   1632.306     27.694    502.212   1562.824    502.212    571.702    502.212
 72.470   1438.000   1473.079    -35.079    502.273   1395.642    502.273    579.739    502.273
 72.570   1348.434   1310.268     38.166    502.333   1225.198    502.333    587.443    502.333
 72.670   1135.618   1158.615    -22.997    502.391   1066.808    502.391    594.242    502.391
 72.770   1022.000   1027.020     -5.020    502.449    930.028    502.449    599.483    502.449
 72.870    878.000    919.120    -41.120    502.506    819.110    502.506    602.554    502.506
 72.970    813.318    834.507    -21.189    502.563    734.051    502.563    603.049    502.563
 73.070    725.410    770.245    -44.836    502.618    671.983    502.618    600.905    502.618
 73.170    703.283    722.315    -19.033    502.672    628.584    502.672    596.422    502.672
 73.270    651.590    686.683    -35.093    502.726    599.259    502.726    590.165    502.726
 73.370    637.000    659.913    -22.913    502.778    579.914    502.778    582.790    502.778
 73.470    686.943    639.393     47.550    502.830    567.326    502.830    574.907    502.830
 73.570    614.721    623.315     -8.593    502.880    559.204    502.880    567.000    502.880
 73.670    623.878    610.528     13.349    502.930    554.056    502.930    559.412    502.930
 73.770    630.000    600.346     29.654    502.978    550.976    502.978    552.361    502.978
 73.870    604.099    592.371     11.727    503.026    549.443    503.026    545.969    503.026
 73.970    595.000    586.349      8.651    503.073    549.150    503.073    540.290    503.073
 74.070    568.000    582.059    -14.059    503.118    549.872    503.118    535.328    503.118
 74.170    615.743    579.242     36.501    503.163    551.381    503.163    531.053    503.163
 74.270    608.000    577.563     30.437    503.207    553.390    503.207    527.413    503.207
 74.370    643.000    576.585     66.415    503.250    555.530    503.250    524.344    503.250
 74.470    597.000    575.789     21.211    503.291    557.349    503.291    521.775    503.291
 74.570    627.000    574.624     52.376    503.332    558.368    503.332    519.636    503.332
 74.670    596.824    572.639     24.185    503.371    558.201    503.371    517.858    503.371
 74.770    619.000    569.645     49.355    503.410    556.722    503.410    516.380    503.410
 74.870    548.786    565.788    -17.001    503.447    554.131    503.447    515.148    503.447
 74.970    590.000    561.470     28.530    503.484    550.877    503.484    514.116    503.484
 75.070    638.000    557.201     80.799    503.519    547.508    503.519    513.244    503.519
 75.170    632.000    553.496     78.504    503.553    544.572    503.553    512.502    503.553
 75.270    600.000    550.851     49.149    503.586    542.591    503.586    511.864    503.586
 75.370    577.000    549.748     27.252    503.618    542.067    503.618    511.311    503.618
 75.470    544.000    550.668     -6.668    503.649    543.495    503.649    510.827    503.649
 75.570    581.000    554.088     26.912    503.679    547.366    503.679    510.401    503.679
 75.670    550.000    560.459    -10.459    503.707    554.139    503.707    510.021    503.707
 75.770    574.201    570.141      4.060    503.735    564.181    503.735    509.682    503.735
 75.870    546.000    583.310    -37.310    503.761    577.674    503.761    509.377    503.761
 75.970    624.000    599.837     24.163    503.786    594.495    503.786    509.102    503.786
 76.070    651.097    619.172     31.925    503.810    614.096    503.810    508.851    503.810
 76.170    618.455    640.244    -21.789    503.833    635.412    503.833    508.624    503.833
 76.270    670.000    661.420      8.580    503.855    656.811    503.855    508.416    503.855
 76.370    708.000    680.526     27.474    503.876    676.124    503.876    508.225    503.876
 76.470    645.000    695.051    -50.051    503.895    690.842    503.895    508.050    503.895
 76.570    731.000    702.632     28.368    503.913    698.604    503.913    507.889    503.913
 76.670    744.938    701.818     43.120    503.930    697.960    503.930    507.740    503.930
 76.770    669.000    692.681    -23.681    503.946    688.983    503.946    507.602    503.946
 76.870    671.149    676.778     -5.628    503.960    673.229    503.960    507.473    503.960
 76.970    661.000    656.497      4.503    503.974    653.088    503.974    507.354    503.974
 77.070    638.000    634.309      3.691    503.986    631.031    503.986    507.243    503.986
 77.170    627.000    612.308     14.692    503.997    609.150    503.997    507.139    503.997
 77.270    591.000    592.031     -1.031    504.006    588.985    504.006    507.041    504.006
 77.370    575.000    574.434      0.566    504.015    571.491    504.015    506.950    504.015
 77.470    590.207    559.944     30.264    504.022    557.097    504.022    506.863    504.022
 77.570    581.834    548.561     33.273    504.028    545.804    504.028    506.782    504.028
 77.670    510.000    539.988    -29.988    504.032    537.314    504.032    506.705    504.032
 77.770    546.022    533.762     12.260    504.036    531.165    504.036    506.631    504.036
 77.870    509.651    529.371    -19.721    504.038    526.847    504.038    506.561    504.038
 77.970    589.000    526.337     62.663    504.039    523.880    504.039    506.495    504.039
 78.070    523.000    524.260     -1.260    504.038    521.867    504.038    506.431    504.038
 78.170    502.000    522.835    -20.835    504.036    520.501    504.036    506.370    504.036
 78.270    488.000    521.845    -33.845    504.033    519.566    504.033    506.312    504.033
 78.370    510.000    521.146    -11.146    504.029    518.919    504.029    506.256    504.029
 78.470    496.691    520.652    -23.961    504.023    518.473    504.023    506.202    504.023
 78.570    530.370    520.312     10.058    504.016    518.178    504.016    506.150    504.016
 78.670    483.840    520.103    -36.263    504.007    518.011    504.007    506.100    504.007
 78.770    506.976    520.011    -13.035    503.998    517.958    503.998    506.051    503.998
 78.870    516.685    520.035     -3.350    503.987    518.017    503.987    506.005    503.987
 78.970    497.929    520.243    -22.315    503.974    518.258    503.974    505.960    503.974
 79.070    529.273    520.634      8.640    503.961    518.677    503.961    505.917    503.961
 79.170    493.000    521.230    -28.230    503.945    519.300    503.945    505.875    503.945
 79.270    482.550    522.063    -39.514    503.929    520.156    503.929    505.835    503.929
 79.370    515.000    523.166     -8.166    503.911    521.279    503.911    505.797    503.911
 79.470    560.000    524.578     35.422    503.892    522.708    503.892    505.760    503.892
 79.570    514.000    526.346    -12.346    503.871    524.491    503.871    505.724    503.871
 79.670    503.587    528.541    -24.954    503.850    526.696    503.850    505.690    503.850
 79.770    508.000    531.262    -23.262    503.826    529.427    503.826    505.658    503.826
 79.870    572.000    534.656     37.344    503.802    532.827    503.802    505.626    503.802
 79.970    570.000    538.929     31.071    503.775    537.106    503.775    505.596    503.775
 80.070    561.000    544.367     16.633    503.748    542.547    503.748    505.565    503.748
 80.170    526.000    551.343    -25.343    503.719    549.526    503.719    505.535    503.719
 80.270    562.000    560.288      1.712    503.689    558.474    503.689    505.503    503.689
 80.370    526.472    571.620    -45.149    503.657    569.811    503.657    505.470    503.657
 80.470    553.000    585.634    -32.634    503.624    583.830    503.624    505.434    503.624
 80.570    535.000    602.390    -67.390    503.589    600.596    503.589    505.394    503.589
 80.670    591.000    621.634    -30.634    503.553    619.854    503.553    505.350    503.553
 80.770    612.000    642.745    -30.745    503.516    640.985    503.516    505.299    503.516
 80.870    677.000    664.743     12.257    503.477    663.006    503.477    505.243    503.477
 80.970    653.000    686.372    -33.372    503.437    684.664    503.437    505.181    503.437
 81.070    677.000    706.268    -29.268    503.395    704.592    503.395    505.114    503.395
 81.170    743.770    723.141     20.629    503.352    721.501    503.352    505.043    503.352
 81.270    777.497    735.915     41.581    503.308    734.311    503.308    504.968    503.308
 81.370    795.423    743.813     51.610    503.262    742.246    503.262    504.892    503.262
 81.470    785.609    746.431     39.178    503.214    744.899    503.214    504.814    503.214
 81.570    761.476    743.773     17.703    503.165    742.276    503.165    504.736    503.165
 81.670    791.000    736.191     54.809    503.115    734.725    503.115    504.657    503.115
 81.770    711.000    724.330    -13.330    503.063    722.892    503.063    504.579    503.063
 81.870    737.829    709.135     28.694    503.010    707.722    503.010    504.500    503.010
 81.970    716.000    691.790     24.210    502.955    690.398    502.955    504.422    502.955
 82.070    663.395    673.511    -10.116    502.899    672.137    502.899    504.345    502.899
 82.170    667.438    655.296     12.143    502.841    653.936    502.841    504.268    502.841
 82.270    631.000    637.792     -6.792    502.782    636.445    502.782    504.191    502.782
 82.370    612.371    621.341     -8.970    502.721    620.005    502.721    504.115    502.721
 82.470    637.109    606.121     30.989    502.659    604.793    502.659    504.038    502.659
 82.570    590.289    592.277     -1.988    502.596    590.956    502.596    503.962    502.596
 82.670    559.419    579.986    -20.567    502.531    578.668    502.531    503.886    502.531
 82.770    559.658    569.431     -9.774    502.464    568.117    502.464    503.809    502.464
 82.870    548.340    560.779    -12.440    502.396    559.466    502.396    503.733    502.396
 82.970    515.000    554.149    -39.149    502.326    552.836    502.326    503.655    502.326
 83.070    584.797    549.605     35.191    502.255    548.292    502.255    503.578    502.255
 83.170    538.000    547.144     -9.144    502.183    545.828    502.183    503.500    502.183
 83.270    538.076    546.678     -8.602    502.109    545.360    502.109    503.421    502.109
 83.370    508.933    548.023    -39.090    502.033    546.701    502.033    503.341    502.033
 83.470    589.000    550.884     38.116    501.956    549.557    501.956    503.261    501.956
 83.570    583.704    554.854     28.849    501.878    553.524    501.878    503.180    501.878
 83.670    525.419    559.426    -34.007    501.798    558.091    501.798    503.098    501.798
 83.770    527.000    564.005    -37.005    501.717    562.666    501.717    503.015    501.717
 83.870    567.000    567.951     -0.951    501.634    566.609    501.634    502.931    501.634
 83.970    556.271    570.640    -14.369    501.549    569.297    501.549    502.846    501.549
 84.070    540.000    571.578    -31.578    501.463    570.234    501.463    502.760    501.463
 84.170    577.000    570.516      6.484    501.376    569.173    501.376    502.673    501.376
 84.270    550.894    567.520    -16.626    501.287    566.180    501.287    502.586    501.287
 84.370    538.000    562.931    -24.931    501.196    561.593    501.196    502.497    501.196
 84.470    551.000    557.245     -6.245    501.104    555.910    501.104    502.407    501.104
 84.570    520.000    550.993    -30.993    501.011    549.662    501.011    502.316    501.011
 84.670    518.000    544.662    -26.662    500.916    543.332    500.916    502.224    500.916
 84.770    513.000    538.643    -25.643    500.819    537.314    500.819    502.131    500.819
 84.870    554.847    533.221     21.626    500.721    531.892    500.721    502.037    500.721
 84.970    510.993    528.567    -17.574    500.622    527.237    500.622    501.942    500.622
 85.070    506.000    524.753    -18.753    500.521    523.420    500.521    501.846    500.521
 85.170    538.000    521.768     16.232    500.418    520.431    500.418    501.748    500.418
 85.270    523.000    519.546      3.454    500.314    518.205    500.314    501.650    500.314
 85.370    520.000    517.994      2.006    500.208    516.646    500.208    501.551    500.208
 85.470    494.813    517.010    -22.197    500.101    515.656    500.101    501.451    500.101
 85.570    537.000    516.509     20.491    499.993    515.148    499.993    501.349    499.993
 85.670    545.000    516.432     28.568    499.883    515.063    499.883    501.247    499.883
 85.770    552.587    516.756     35.831    499.771    515.377    499.771    501.144    499.771
 85.870    505.000    517.496    -12.496    499.658    516.107    499.658    501.040    499.658
 85.970    479.348    518.708    -39.360    499.544    517.308    499.544    500.934    499.544
 86.070    538.000    520.487     17.513    499.428    519.075    499.428    500.828    499.428
 86.170    517.000    522.962     -5.962    499.310    521.536    499.310    500.721    499.310
 86.270    508.000    526.281    -18.281    499.191    524.840    499.191    500.613    499.191
 86.370    487.000    530.600    -43.600    499.071    529.143    499.071    500.504    499.071
 86.470    548.000    536.061     11.939    498.949    534.585    498.949    500.395    498.949
 86.570    542.850    542.760      0.089    498.825    541.264    498.825    500.284    498.825
 86.670    574.231    550.723     23.508    498.701    549.204    498.701    500.172    498.701
 86.770    571.000    559.867     11.133    498.574    558.324    498.574    500.060    498.574
 86.870    598.051    569.977     28.075    498.446    568.408    498.446    499.947    498.446
 86.970    558.563    580.682    -22.119    498.317    579.087    498.317    499.833    498.317
 87.070    632.000    591.450     40.550    498.186    589.829    498.186    499.719    498.186
 87.170    590.691    601.598    -10.908    498.054    599.951    498.054    499.604    498.054
 87.270    595.506    610.324    -14.818    497.920    608.653    497.920    499.488    497.920
 87.370    600.000    616.805    -16.805    497.785    615.112    497.785    499.371    497.785
 87.470    608.584    620.356    -11.772    497.648    618.644    497.648    499.255    497.648
 87.570    677.000    620.617     56.383    497.510    618.888    497.510    499.137    497.510
 87.670    580.249    617.662    -37.414    497.370    615.920    497.370    499.019    497.370
 87.770    659.000    611.974     47.026    497.229    610.219    497.229    498.901    497.229
 87.870    618.000    604.302     13.698    497.087    602.536    497.087    498.782    497.087
 87.970    588.973    595.513     -6.540    496.943    593.734    496.943    498.663    496.943
 88.070    616.000    586.472     29.528    496.797    584.679    496.797    498.544    496.797
 88.170    590.000    577.969     12.031    496.650    576.160    496.650    498.425    496.650
 88.270    567.000    570.668     -3.668    496.502    568.841    496.502    498.306    496.502
 88.370    575.000    565.071      9.929    496.352    563.224    496.352    498.186    496.352
 88.470    570.000    561.503      8.497    496.201    559.633    496.201    498.067    496.201
 88.570    529.000    560.101    -31.101    496.049    558.206    496.049    497.948    496.049
 88.670    554.724    560.822     -6.098    495.895    558.899    495.895    497.830    495.895
 88.770    575.000    563.454     11.546    495.740    561.502    495.740    497.712    495.740
 88.870    571.000    567.633      3.367    495.583    565.649    495.583    497.595    495.583
 88.970    569.000    572.865     -3.865    495.425    570.848    495.425    497.478    495.425
 89.070    595.000    578.553     16.447    495.265    576.499    495.265    497.363    495.265
 89.170    592.806    584.025      8.781    495.104    581.931    495.104    497.248    495.104
 89.270    625.534    588.582     36.951    494.942    586.445    494.942    497.135    494.942
 89.370    630.156    591.574     38.582    494.778    589.389    494.778    497.024    494.778
 89.470    603.000    592.505     10.495    494.613    590.268    494.613    496.915    494.613
 89.570    590.000    591.145     -1.145    494.446    588.849    494.446    496.808    494.446
 89.670    591.000    587.573      3.427    494.279    585.212    494.279    496.704    494.279
 89.770    579.000    582.142     -3.142    494.109    579.710    494.109    496.604    494.109
 89.870    595.000    575.362     19.638    493.939    572.852    493.939    496.507    493.939
 89.970    543.000    567.793    -24.793    493.767    565.198    493.767    496.414    493.767
 90.070    546.000    559.959    -13.959    493.594    557.272    493.594    496.327    493.594
 90.170    539.972    552.301    -12.329    493.419    549.513    493.419    496.246    493.419
 90.270    548.000    545.165      2.835    493.243    542.268    493.243    496.173    493.243
 90.370    545.000    538.822      6.178    493.066    535.806    493.066    496.108    493.066
 90.470    529.563    533.401     -3.838    492.888    530.256    492.888    496.054    492.888
 90.570    516.831    528.953    -12.122    492.708    525.667    492.708    496.011    492.708
 90.670    506.000    525.462    -19.462    492.527    522.020    492.527    495.981    492.527
 90.770    504.000    522.861    -18.861    492.345    519.246    492.345    495.968    492.345
 90.870    556.047    521.056     34.990    492.161    517.250    492.161    495.973    492.161
 90.970    534.000    519.949     14.051    491.976    515.930    491.976    495.999    491.976
 91.070    505.000    519.452    -14.452    491.790    515.196    491.790    496.049    491.790
 91.170    531.000    519.502     11.498    491.602    514.980    491.602    496.125    491.602
 91.270    531.000    520.069     10.931    491.414    515.250    491.414    496.232    491.414
 91.370    488.263    521.161    -32.897    491.224    516.010    491.224    496.373    491.224
 91.470    554.000    522.828     31.172    491.032    517.308    491.032    496.551    491.032
 91.570    527.000    525.163      1.837    490.840    519.231    490.840    496.769    490.840
 91.670    545.469    528.297     17.172    490.646    521.907    490.646    497.030    490.646
 91.770    485.000    532.393    -47.393    490.452    525.498    490.452    497.339    490.452
 91.870    497.000    537.641    -40.641    490.256    530.190    490.256    497.696    490.256
 91.970    536.539    544.242     -7.702    490.058    536.182    490.058    498.104    490.058
 92.070    562.000    552.389      9.611    489.860    543.666    489.860    498.565    489.860
 92.170    550.000    562.251    -12.251    489.660    552.811    489.660    499.078    489.660
 92.270    572.000    573.945     -1.945    489.460    563.735    489.460    499.642    489.460
 92.370    583.188    587.514     -4.326    489.258    576.485    489.258    500.254    489.258
 92.470    599.000    602.918     -3.918    489.055    591.025    489.055    500.910    489.055
 92.570    655.000    619.992     35.008    488.851    607.198    488.851    501.600    488.851
 92.670    668.175    638.447     29.728    488.645    624.728    488.645    502.313    488.645
 92.770    642.000    657.861    -15.861    488.439    643.208    488.439    503.034    488.439
 92.870    669.000    677.683     -8.683    488.231    662.110    488.231    503.744    488.231
 92.970    652.000    697.270    -45.270    488.023    680.811    488.023    504.415    488.023
 93.070    734.000    715.953     18.047    487.813    698.678    487.813    505.020    487.813
 93.170    705.000    733.162    -28.162    487.602    715.169    487.602    505.526    487.602
 93.270    762.908    748.535     14.373    487.391    729.956    487.391    505.899    487.391
 93.370    765.000    761.979      3.021    487.178    742.978    487.178    506.111    487.178
 93.470    786.000    773.610     12.390    486.964    754.370    486.964    506.137    486.964
 93.570    806.257    783.728     22.529    486.749    764.448    486.749    505.964    486.749
 93.670    750.000    792.663    -42.663    486.533    773.540    486.533    505.594    486.533
 93.770    809.463    800.673      8.791    486.316    781.892    486.316    505.037    486.316
 93.870    780.465    808.056    -27.592    486.098    789.781    486.098    504.317    486.098
 93.970    834.000    815.187     18.813    485.879    797.550    485.879    503.464    485.879
 94.070    865.000    822.505     42.495    485.660    805.606    485.660    502.509    485.660
 94.170    859.189    830.418     28.771    485.439    814.323    485.439    501.487    485.439
 94.270    849.000    839.145      9.855    485.217    823.893    485.217    500.427    485.217
 94.370    864.000    848.592     15.408    484.994    834.194    484.994    499.354    484.994
 94.470    929.000    858.239     70.761    484.771    844.687    484.771    498.290    484.771
 94.570    925.300    867.183     58.118    484.546    854.452    484.546    497.249    484.546
 94.670    907.348    874.214     33.133    484.321    862.269    484.321    496.245    484.321
 94.770    884.000    877.982      6.018    484.095    866.778    484.095    495.285    484.095
 94.870    921.000    877.221     43.779    483.868    866.708    483.868    494.374    483.868
 94.970    851.000    871.034    -20.034    483.640    861.159    483.640    493.517    483.640
 95.070    937.000    859.134     77.866    483.411    849.840    483.411    492.715    483.411
 95.170    917.000    841.949     75.051    483.181    833.178    483.181    491.967    483.181
 95.270    853.000    820.544     32.456    482.951    812.240    482.951    491.274    482.951
 95.370    850.000    796.421     53.579    482.720    788.530    482.720    490.633    482.720
 95.470    792.000    771.307     20.693    482.488    763.776    482.488    490.042    482.488
 95.570    769.000    746.983     22.017    482.255    739.761    482.255    489.498    482.255
 95.670    760.000    725.174     34.826    482.021    718.216    482.021    488.999    482.021
 95.770    706.000    707.484     -1.484    481.787    700.745    481.787    488.541    481.787
 95.870    695.000    695.351     -0.351    481.552    688.792    481.552    488.122    481.552
 95.970    695.000    690.026      4.974    481.317    683.610    481.317    487.738    481.317
 96.070    683.000    692.556     -9.556    481.080    686.248    481.080    487.387    481.080
 96.170    737.967    703.773     34.193    480.843    697.542    480.843    487.065    480.843
 96.270    732.806    724.284      8.522    480.605    718.102    480.605    486.771    480.605
 96.370    707.000    754.437    -47.437    480.367    748.279    480.367    486.502    480.367
 96.470    839.714    794.282     45.432    480.128    788.123    480.128    486.256    480.128
 96.570    819.000    843.503    -24.503    479.889    837.321    479.889    486.032    479.889
 96.670    854.468    901.347    -46.879    479.649    895.122    479.649    485.829    479.649
 96.770    971.000    966.556      4.444    479.408    960.268    479.408    485.645    479.408
 96.870   1000.319   1037.313    -36.994    479.166   1030.945    479.166    485.481    479.166
 96.970   1092.965   1111.212    -18.246    478.925   1104.746    478.925    485.336    478.925
 97.070   1197.000   1185.252     11.748    478.682   1178.672    478.682    485.210    478.682
 97.170   1300.000   1255.930     44.070    478.439   1249.218    478.439    485.104    478.439
 97.270   1271.801   1319.339    -47.538    478.196   1312.478    478.196    485.019    478.196
 97.370   1347.000   1371.434    -24.434    477.952   1364.405    477.952    484.956    477.952
 97.470   1436.000   1408.513     27.487    477.708   1401.294    477.708    484.918    477.708
 97.570   1393.179   1427.809    -34.630    477.463   1420.375    477.463    484.906    477.463
 97.670   1430.000   1428.042      1.958    477.218   1420.366    477.218    484.923    477.218
 97.770   1396.000   1409.680    -13.680    476.973   1401.726    476.973    484.974    476.973
 97.870   1427.000   1374.764     52.236    476.727   1366.493    476.727    485.062    476.727
 97.970   1289.000   1326.439    -37.439    476.480   1317.805    476.480    485.193    476.480
 98.070   1291.046   1268.409     22.637    476.234   1259.359    476.234    485.371    476.234
 98.170   1200.135   1204.502     -4.367    475.987   1194.977    475.987    485.604    475.987
 98.270   1199.000   1138.401     60.599    475.739   1128.335    475.739    485.899    475.739
 98.370   1073.000   1073.484     -0.484    475.492   1062.802    475.492    486.265    475.492
 98.470    990.000   1012.737    -22.737    475.244   1001.356    475.244    486.710    475.244
 98.570    908.000    958.723    -50.723    474.996    946.552    474.996    487.245    474.996
 98.670    931.000    913.574     17.426    474.748    900.510    474.748    487.880    474.748
 98.770    833.000    879.002    -46.002    474.499    864.934    474.499    488.627    474.499
 98.870    822.000    856.331    -34.331    474.250    841.133    474.250    489.498    474.250
 98.970    840.000    846.529     -6.529    474.002    830.067    474.002    490.504    474.002
 99.070    806.890    850.253    -43.363    473.753    832.380    473.753    491.657    473.753
 99.170    860.000    867.880     -7.880    473.503    848.439    473.503    492.969    473.503
 99.270    872.620    899.521    -26.901    473.254    878.344    473.254    494.451    473.254
 99.370    941.286    945.013     -3.728    473.005    921.923    473.005    496.113    473.005
 99.470   1038.000   1003.885     34.115    472.755    978.697    472.755    497.961    472.755
 99.570   1084.000   1075.305      8.695    472.506   1047.830    472.506    500.001    472.506
 99.670   1149.859   1158.023     -8.164    472.256   1128.070    472.256    502.237    472.256
 99.770   1304.358   1250.302     54.057    472.007   1217.681    472.007    504.666    472.007
 99.870   1351.000   1349.868      1.132    471.758   1314.394    471.758    507.283    471.758
 99.970   1480.000   1453.880     26.120    471.508   1415.382    471.508    510.077    471.508
100.070   1591.000   1558.981     32.019    471.259   1517.304    471.259    513.030    471.259
100.170   1708.959   1661.386     47.573    471.010   1616.400    471.010    516.114    471.010
100.270   1683.000   1757.131    -74.131    470.760   1708.744    470.760    519.294    470.760
100.370   1786.000   1842.395    -56.395    470.511   1790.562    470.511    522.521    470.511
100.470   2003.000   1913.828     89.172    470.263   1858.564    470.263    525.733    470.263
100.570   1951.906   1968.753    -16.847    470.014   1910.147    470.014    528.855    470.014
100.670   2080.731   2005.211     75.521    469.765   1943.441    469.765    531.795    469.765
100.770   1941.079   2021.895    -80.816    469.517   1957.241    469.517    534.453    469.517
100.870   2025.000   2018.164      6.836    469.269   1951.012    469.269    536.720    469.269
100.970   2073.655   1994.201     79.454    469.022   1925.045    469.022    538.488    469.022
101.070   1981.000   1951.274     29.726    468.774   1880.703    468.774    539.661    468.774
101.170   1921.810   1891.894     29.916    468.527   1820.568    468.527    540.167    468.527
101.270   1887.000   1819.716     67.284    468.280   1748.339    468.280    539.965    468.280
101.370   1735.000   1739.143     -4.143    468.034   1668.418    468.034    539.055    468.034
101.470   1595.162   1654.733    -59.571    467.788   1585.328    467.788    537.472    467.788
101.570   1560.000   1570.736    -10.736    467.542   1503.252    467.542    535.287    467.542
101.670   1488.000   1490.737     -2.737    467.297   1425.680    467.297    532.595    467.297
101.770   1429.000   1417.458     11.542    467.053   1355.228    467.053    529.502    467.053
101.870   1316.000   1352.688    -36.688    466.809   1293.579    466.809    526.118    466.809
101.970   1233.401   1297.292    -63.891    466.565   1241.496    466.565    522.544    466.565
102.070   1200.000   1251.267    -51.267    466.322   1198.883    466.322    518.873    466.322
102.170   1223.183   1213.828      9.355    466.080   1164.880    466.080    515.182    466.080
102.270   1214.000   1183.529     30.471    465.838   1137.977    465.838    511.534    465.838
102.370   1173.365   1158.423     14.941    465.597   1116.179    465.597    507.977    465.597
102.470   1133.000   1136.269     -3.269    465.356   1097.206    465.356    504.551    465.356
102.570   1090.000   1114.786    -24.786    465.116   1078.750    465.116    501.282    465.116
102.670   1139.479   1091.949     47.530    464.877   1058.765    464.877    498.189    464.877
102.770   1098.000   1066.249     31.751    464.639   1035.730    464.639    495.284    464.639
102.870   1090.903   1036.861     54.042    464.401   1008.813    464.401    492.573    464.401
102.970   1009.852   1003.660      6.193    464.164    977.887    464.164    490.058    464.164
103.070    918.036    967.097    -49.062    463.928    943.407    463.928    487.736    463.928
103.170    937.000    928.015      8.985    463.693    906.217    463.693    485.603    463.693
103.270    871.000    887.448    -16.448    463.459    867.361    463.459    483.650    463.459
103.370    829.000    846.477    -17.477    463.226    827.931    463.226    481.869    463.226
103.470    844.575    806.131     38.444    462.993    788.965    462.993    480.249    462.993
103.570    798.000    767.322     30.678    462.762    751.386    462.762    478.778    462.762
103.670    717.000    730.803    -13.803    462.531    715.962    462.531    477.444    462.531
103.770    681.238    697.156    -15.918    462.302    683.285    462.302    476.236    462.302
103.870    710.000    666.773     43.227    462.073    653.759    462.073    475.141    462.073
103.970    677.000    639.866     37.134    461.846    627.610    461.846    474.149    461.846
104.070    642.000    616.484     25.516    461.620    604.895    461.620    473.248    461.620
104.170    622.804    596.532     26.272    461.395    585.531    461.395    472.429    461.395
104.270    571.000    579.810     -8.810    461.171    569.327    461.171    471.681    461.171
104.370    627.000    566.038     60.962    460.949    556.011    460.949    470.997    460.949
104.470    576.269    554.895     21.374    460.727    545.271    460.727    470.369    460.727
104.570    557.000    546.048     10.952    460.507    536.779    460.507    469.790    460.507
104.670    598.000    539.170     58.830    460.288    530.215    460.288    469.255    460.288
104.770    552.000    533.965     18.035    460.071    525.286    460.071    468.757    460.071
104.870    560.000    530.174     29.826    459.855    521.741    459.855    468.294    459.855
104.970    505.122    527.586    -22.464    459.640    519.370    459.640    467.860    459.640
105.070    527.824    526.040      1.783    459.427    518.017    459.427    467.452    459.427
105.170    575.000    525.424     49.576    459.215    517.570    459.215    467.068    459.215
105.270    561.122    525.668     35.454    459.005    517.965    459.005    466.706    459.005
105.370    521.000    526.747     -5.747    458.796    519.177    458.796    466.363    458.796
105.470    538.000    528.669      9.331    458.589    521.216    458.589    466.038    458.589
105.570    517.000    531.473    -14.473    458.383    524.120    458.383    465.729    458.383
105.670    583.000    535.215     47.785    458.179    527.951    458.179    465.435    458.179
105.770    573.215    539.966     33.249    457.977    532.777    457.977    465.155    457.977
105.870    571.506    545.792     25.713    457.776    538.667    457.776    464.888    457.776
105.970    528.398    552.747    -24.349    457.577    545.674    457.577    464.634    457.577
106.070    565.000    560.855      4.145    457.380    553.823    457.380    464.393    457.380
106.170    576.599    570.102      6.497    457.185    563.102    457.185    464.163    457.185
106.270    589.470    580.423      9.047    456.991    573.446    456.991    463.944    456.991
106.370    624.000    591.700     32.300    456.800    584.736    456.800    463.736    456.800
106.470    586.541    603.761    -17.220    456.610    596.802    456.610    463.539    456.610
106.570    612.000    616.369     -4.369    456.422    609.407    456.422    463.352    456.422
106.670    649.000    629.235     19.765    456.237    622.261    456.237    463.175    456.237
106.770    648.021    642.019      6.002    456.053    635.027    456.053    463.009    456.053
106.870    688.000    654.347     33.653    455.871    647.329    455.871    462.852    455.871
106.970    683.000    665.823     17.177    455.691    658.772    455.691    462.706    455.691
107.070    648.390    676.061    -27.671    455.514    668.969    455.514    462.569    455.514
107.170    714.000    684.715     29.285    455.338    677.576    455.338    462.443    455.338
107.270    666.096    691.546    -25.451    455.165    684.353    455.165    462.326    455.165
107.370    675.000    696.448    -21.448    454.994    689.194    454.994    462.220    454.994
107.470    676.556    699.469    -22.912    454.826    692.145    454.826    462.124    454.826
107.570    651.000    700.817    -49.817    454.659    693.418    454.659    462.038    454.659
107.670    707.344    700.829      6.516    454.495    693.345    454.495    461.963    454.495
107.770    687.760    699.907    -12.147    454.334    692.330    454.334    461.899    454.334
107.870    684.038    698.470    -14.432    454.174    690.792    454.174    461.846    454.174
107.970    696.000    696.897     -0.897    454.018    689.109    454.018    461.803    454.018
108.070    630.000    695.496    -65.496    453.863    687.589    453.863    461.773    453.863
108.170    680.000    694.478    -14.478    453.712    686.442    453.712    461.754    453.712
108.270    730.602    693.942     36.659    453.562    685.768    453.562    461.748    453.562
108.370    678.000    693.876    -15.876    453.416    685.553    453.416    461.755    453.416
108.470    693.000    694.151     -1.151    453.272    685.668    453.272    461.775    453.272
108.570    665.000    694.535    -29.535    453.131    685.881    453.131    461.808    453.131
108.670    651.194    694.708    -43.514    452.992    685.870    452.992    461.856    452.992
108.770    652.178    694.295    -42.117    452.857    685.261    452.857    461.920    452.857
108.870    680.000    692.909    -12.909    452.724    683.666    452.724    461.999    452.724
108.970    687.000    690.205     -3.205    452.594    680.738    452.594    462.096    452.594
109.070    651.561    685.933    -34.372    452.467    676.227    452.467    462.210    452.467
109.170    638.828    679.981    -41.152    452.343    670.018    452.343    462.343    452.343
109.270    683.263    672.383     10.880    452.222    662.146    452.222    462.497    452.222
109.370    685.390    663.310     22.080    452.103    652.779    452.103    462.673    452.103
109.470    651.000    653.033     -2.033    451.988    642.187    451.988    462.872    451.988
109.570    603.000    641.881    -38.881    451.876    630.696    451.876    463.097    451.876
109.670    608.865    630.201    -21.336    451.768    618.653    451.768    463.350    451.768
109.770    616.000    618.335     -2.335    451.662    606.396    451.662    463.633    451.662
109.870    557.000    606.596    -49.596    451.560    594.236    451.560    463.949    451.560
109.970    628.495    595.266     33.229    451.460    582.451    451.460    464.301    451.460
110.070    576.000    584.579     -8.579    451.365    571.272    451.365    464.694    451.365
110.170    596.000    574.725     21.275    451.272    560.886    451.272    465.131    451.272
110.270    544.398    565.845    -21.448    451.183    551.428    451.183    465.618    451.183
110.370    561.000    558.037      2.963    451.098    542.991    451.098    466.158    451.098
110.470    553.000    551.351      1.649    451.016    535.619    451.016    466.759    451.016
110.570    585.000    545.801     39.199    450.937    529.321    450.937    467.427    450.937
110.670    536.886    541.367     -4.481    450.862    524.067    450.862    468.169    450.862
110.770    592.000    538.003     53.997    450.791    519.805    450.791    468.994    450.791
110.870    537.000    535.643      1.357    450.723    516.460    450.723    469.910    450.723
110.970    554.000    534.211     19.789    450.659    513.945    450.659    470.927    450.659
111.070    513.000    533.622    -20.622    450.599    512.167    450.599    472.055    450.599
111.170    538.000    533.793      4.207    450.543    511.029    450.543    473.307    450.543
111.270    519.000    534.643    -15.643    450.490    510.439    450.490    474.693    450.490
111.370    533.836    536.099     -2.263    450.442    510.311    450.442    476.227    450.442
111.470    528.000    538.094    -10.094    450.397    510.567    450.397    477.921    450.397
111.570    574.095    540.575     33.520    450.357    511.137    450.357    479.790    450.357
111.670    536.000    543.496     -7.496    450.320    511.964    450.320    481.847    450.320
111.770    567.222    546.823     20.399    450.288    512.999    450.288    484.107    450.288
111.870    581.790    550.534     31.256    450.259    514.205    450.259    486.583    450.259
111.970    559.000    554.618      4.382    450.235    515.558    450.235    489.289    450.235
112.070    526.438    559.072    -32.635    450.215    517.043    450.215    492.239    450.215
112.170    598.000    563.908     34.092    450.200    518.657    450.200    495.443    450.200
112.270    529.619    569.142    -39.523    450.189    520.409    450.189    498.914    450.189
112.370    573.000    574.802     -1.802    450.182    522.316    450.182    502.660    450.182
112.470    619.154    580.910     38.244    450.179    524.394    450.179    506.687    450.179
112.570    630.061    587.496     42.564    450.181    526.668    450.181    511.001    450.181
112.670    570.000    594.678    -24.678    450.188    529.254    450.188    515.603    450.188
112.770    610.000    602.485      7.515    450.199    532.185    450.199    520.490    450.199
112.870    601.000    610.991     -9.991    450.215    535.541    450.215    525.656    450.215
112.970    654.165    620.296     33.869    450.235    539.432    450.235    531.089    450.235
113.070    606.000    630.525    -24.525    450.261    544.003    450.261    536.772    450.261
113.170    616.000    641.841    -25.841    450.291    549.439    450.291    542.680    450.291
113.270    597.000    654.454    -57.454    450.326    555.984    450.326    548.782    450.326
113.370    587.000    668.638    -81.638    450.365    563.950    450.365    555.038    450.365
113.470    653.546    684.742    -31.196    450.410    573.738    450.410    561.395    450.410
113.570    715.673    703.214     12.459    450.460    585.859    450.460    567.793    450.460
113.670    683.000    724.619    -41.619    450.514    600.951    450.514    574.156    450.514
113.770    752.711    749.662      3.049    450.574    619.806    450.574    580.398    450.574
113.870    744.000    779.209    -35.209    450.639    643.390    450.639    586.419    450.639
113.970    775.000    814.310    -39.310    450.709    672.864    450.709    592.107    450.709
114.070    859.954    856.217      3.737    450.785    709.600    450.785    597.344    450.785
114.170    868.591    906.396    -37.805    450.866    755.187    450.866    602.004    450.866
114.270   1019.341    966.532     52.809    450.952    811.432    450.952    605.966    450.952
114.370   1051.000   1038.518     12.482    451.043    880.343    451.043    609.115    451.043
114.470   1073.462   1124.435    -50.973    451.140    964.096    451.140    611.356    451.140
114.570   1241.000   1226.503     14.497    451.243   1064.981    451.243    612.618    451.243
114.670   1359.000   1347.015     11.985    451.351   1185.334    451.351    612.860    451.351
114.770   1466.954   1488.244    -21.290    451.465   1327.430    451.465    612.078    451.465
114.870   1657.346   1652.323      5.023    451.584   1493.374    451.584    610.303    451.584
114.970   1811.424   1841.106    -29.682    451.709   1684.956    451.709    607.597    451.709
115.070   2076.923   2056.008     20.915    451.840   1903.503    451.840    604.052    451.840
115.170   2373.000   2297.841     75.159    451.977   2149.718    451.977    599.777    451.977
115.270   2592.741   2566.647     26.094    452.120   2423.521    452.120    594.893    452.120
115.370   2760.953   2861.543   -100.590    452.268   2723.909    452.268    589.524    452.268
115.470   3162.000   3180.594    -18.594    452.423   3048.827    452.423    583.792    452.423
115.570   3453.837   3520.719    -66.882    452.584   3395.080    452.584    577.811    452.584
115.670   3871.000   3877.633     -6.633    452.751   3758.283    452.751    571.684    452.751
115.770   4359.933   4245.845    114.089    452.924   4132.854    452.924    565.501    452.924
115.870   4542.000   4618.700    -76.700    453.104   4512.064    453.104    559.342    453.104
115.970   4902.239   4988.482    -86.243    453.289   4888.131    453.289    553.270    453.289
116.070   5362.000   5346.566     15.434    453.482   5252.378    453.482    547.340    453.482
116.170   5708.000   5683.642     24.358    453.680   5595.451    453.680    541.596    453.680
116.270   5994.000   5990.011      3.989    453.885   5907.617    453.885    536.071    453.885
116.370   6241.000   6255.981    -14.981    454.097   6179.157    454.097    530.792    454.097
116.470   6537.000   6472.381     64.619    454.315   6400.879    454.315    525.778    454.315
116.570   6753.000   6631.169    121.831    454.540   6564.725    454.540    521.042    454.540
116.670   6747.000   6726.095     20.905    454.772   6664.433    454.772    516.592    454.772
116.770   6657.312   6753.308    -95.996    455.010   6696.146    455.010    512.432    455.010
116.870   6757.000   6711.771     45.229    455.255   6658.821    455.255    508.562    455.255
116.970   6456.487   6603.373   -146.886    455.507   6554.347    455.507    504.977    455.507
117.070   6495.000   6432.705     62.295    455.767   6387.318    455.767    501.672    455.767
117.170   6189.000   6206.566    -17.566    456.033   6164.539    456.033    498.638    456.033
117.270   5864.000   5933.320    -69.320    456.306   5894.384    456.306    495.865    456.306
117.370   5543.000   5622.241    -79.241    456.586   5586.136    456.586    493.341    456.586
117.470   5108.000   5282.928   -174.928    456.874   5249.410    456.874    491.055    456.874
117.570   4955.000   4924.844     30.156    457.169   4893.682    457.169    488.991    457.169
117.670   4577.000   4556.949     20.051    457.471   4527.929    457.471    487.138    457.471
117.770   4119.629   4187.442    -67.813    457.781   4160.363    457.781    485.480    457.781
117.870   3719.011   3823.566   -104.555    458.098   3798.245    458.098    484.003    458.098
117.970   3397.796   3471.487    -73.691    458.423   3447.757    458.423    482.695    458.423
118.070   3106.899   3136.224    -29.325    458.755   3113.932    458.755    481.541    458.755
118.170   2867.000   2821.639     45.361    459.095   2800.649    459.095    480.530    459.095
118.270   2570.000   2530.475     39.525    459.443   2510.662    459.443    479.649    459.443
118.370   2279.000   2264.429     14.571    459.798   2245.683    459.798    478.886    459.798
118.470   1939.000   2024.260    -85.260    460.162   2006.484    460.162    478.232    460.162
118.570   1813.000   1809.919      3.081    460.533   1793.024    460.533    477.677    460.533
118.670   1630.000   1620.678      9.322    460.912   1604.587    460.912    477.210    460.912
118.770   1428.394   1455.279    -26.885    461.300   1439.923    461.300    476.826    461.300
118.870   1228.000   1312.069    -84.069    461.695   1297.386    461.695    476.515    461.695
118.970   1177.069   1189.134    -12.065    462.099   1175.070    462.099    476.272    462.099
119.070   1096.513   1084.420     12.093    462.511   1070.926    462.511    476.090    462.511
119.170   1034.225    995.836     38.389    462.931    982.868    462.931    475.965    462.931
119.270    897.000    921.337    -24.337    463.359    908.856    463.359    475.891    463.359
119.370    892.000    858.990     33.010    463.796    846.960    463.796    475.865    463.796
119.470    816.000    807.017      8.983    464.242    795.406    464.242    475.882    464.242
119.570    778.000    763.820     14.180    464.696    752.598    464.696    475.941    464.696
119.670    717.630    727.994    -10.364    465.159    717.132    465.159    476.037    465.159
119.770    715.052    698.319     16.733    465.631    687.793    465.631    476.169    465.631
119.870    678.896    673.736      5.160    466.111    663.523    466.111    476.335    466.111
119.970    657.623    653.438      4.185    466.600    643.515    466.600    476.532    466.600
120.070    620.397    636.685    -16.287    467.098    627.032    467.098    476.760    467.098
120.170    596.000    622.885    -26.885    467.605    613.482    467.605    477.016    467.605
120.270    607.000    611.561     -4.561    468.122    602.390    468.122    477.301    468.122
120.370    577.342    602.329    -24.987    468.647    593.372    468.647    477.612    468.647
120.470    576.874    594.881    -18.007    469.182    586.121    469.182    477.949    469.182
120.570    569.000    588.970    -19.970    469.725    580.393    469.725    478.311    469.725
120.670    574.000    584.402    -10.402    470.279    575.992    470.279    478.698    470.279
120.770    593.000    581.018     11.982    470.841    572.761    470.841    479.108    470.841
120.870    616.000    578.694     37.306    471.413    570.576    471.413    479.542    471.413
120.970    564.766    577.326    -12.560    471.995    569.335    471.995    479.998    471.995
121.070    536.000    576.830    -40.830    472.587    568.952    472.587    480.477    472.587
121.170    576.000    577.132     -1.132    473.188    569.356    473.188    480.977    473.188
121.270    539.810    578.167    -38.357    473.799    570.482    473.799    481.499    473.799
121.370    600.637    579.873     20.764    474.419    572.269    474.419    482.041    474.419
121.470    565.000    582.191    -17.191    475.050    574.656    475.050    482.603    475.050
121.570    624.942    585.058     39.884    475.691    577.584    475.691    483.186    475.691
121.670    610.000    588.409     21.591    476.341    580.986    476.341    483.787    476.341
121.770    644.000    592.173     51.827    477.002    584.793    477.002    484.407    477.002
121.870    589.000    596.273     -7.273    477.674    588.929    477.674    485.045    477.674
121.970    577.000    600.625    -23.625    478.355    593.311    478.355    485.700    478.355
122.070    609.000    605.140      3.860    479.047    597.850    479.047    486.370    479.047
122.170    601.000    609.720     -8.720    479.749    602.449    479.749    487.056    479.749
122.270    588.000    614.261    -26.261    480.462    607.007    480.462    487.755    480.462
122.370    662.000    618.657     43.343    481.186    611.417    481.186    488.467    481.186
122.470    635.000    622.797     12.203    481.920    615.571    481.920    489.191    481.920
122.570    581.785    626.573    -44.788    482.665    619.361    482.665    489.924    482.665
122.670    646.000    629.880     16.120    483.421    622.684    483.421    490.666    483.421
122.770    642.000    632.625      9.375    484.187    625.449    484.187    491.415    484.187
122.870    640.000    634.730      5.270    484.965    627.579    484.965    492.169    484.965
122.970    632.838    636.135     -3.297    485.754    629.016    485.754    492.927    485.754
123.070    617.000    636.807    -19.807    486.554    629.728    486.554    493.687    486.554
123.170    615.000    636.737    -21.737    487.365    629.708    487.365    494.449    487.365
123.270    610.000    635.940    -25.940    488.187    628.972    488.187    495.211    488.187
123.370    660.000    634.455     25.545    489.021    627.558    489.021    495.972    489.021
123.470    641.732    632.336      9.396    489.867    625.522    489.867    496.734    489.867
123.570    618.321    629.651    -11.330    490.724    622.932    490.724    497.495    490.724
123.670    659.000    626.477     32.523    491.592    619.862    491.592    498.256    491.592
123.770    632.000    622.893      9.107    492.472    616.395    492.472    499.018    492.472
123.870    655.409    618.982     36.427    493.364    612.609    493.364    499.781    493.364
123.970    595.000    614.825    -19.825    494.268    608.586    494.268    500.548    494.268
124.070    617.064    610.500      6.564    495.184    604.402    495.184    501.320    495.184
124.170    593.000    606.078    -13.078    496.112    600.128    496.112    502.097    496.112
124.270    605.000    601.626      3.374    497.052    595.828    497.052    502.882    497.052
124.370    642.000    597.203     44.797    498.004    591.560    498.004    503.676    498.004
124.470    595.000    592.858      2.142    498.969    587.372    498.969    504.481    498.969
124.570    625.835    588.633     37.202    499.946    583.305    499.946    505.297    499.946
124.670    598.000    584.563     13.437    500.935    579.393    500.935    506.125    500.935
124.770    562.000    580.673    -18.673    501.937    575.660    501.937    506.967    501.937
124.870    596.000    576.983     19.017    502.951    572.126    502.951    507.824    502.951
124.970    563.000    573.509    -10.509    503.978    568.804    503.978    508.696    503.978
