neutron_powder_diffraction_0191
R_wp: 3.934
Temperature (K): 1074.000
Counts: 83548.00
Wavelength (Ã…): 2.52098
COMMENTS
Test file for demonstrating the .xyy file format in Reel1.0
END OF HEADER
   tth       Y_obs     Y_calc      Y_res    Background    Phase_1_Nuc    Phase_1_Mag    Phase_2_Nuc    Phase_2_Mag
  9.970    581.000    571.983      9.017    571.287    571.928    571.287    571.341    571.287
 10.070    619.000    572.022     46.978    571.268    571.964    571.268    571.325    571.268
 10.170    564.000    572.062     -8.062    571.244    572.004    571.244    571.303    571.244
 10.270    566.000    572.108     -6.108    571.217    572.048    571.217    571.276    571.217
 10.370    593.426    572.161     21.266    571.185    572.101    571.185    571.244    571.185
 10.470    585.000    572.224     12.776    571.148    572.164    571.148    571.208    571.148
 10.570    630.000    572.301     57.699    571.108    572.240    571.108    571.168    571.108
 10.670    534.523    572.397    -37.873    571.063    572.336    571.063    571.124    571.063
 10.770    588.000    572.517     15.483    571.015    572.456    571.015    571.075    571.015
 10.870    597.000    572.671     24.329    570.962    572.610    570.962    571.023    570.962
 10.970    559.807    572.871    -13.064    570.905    572.809    570.905    570.967    570.905
 11.070    567.000    573.133     -6.133    570.845    573.070    570.845    570.906    570.845
 11.170    603.993    573.483     30.510    570.780    573.419    570.780    570.842    570.780
 11.270    597.000    573.958     23.042    570.712    573.895    570.712    570.774    570.712
 11.370    559.000    574.626    -15.626    570.639    574.562    570.639    570.702    570.639
 11.470    630.000    575.631     54.369    570.563    575.566    570.563    570.626    570.563
 11.570    612.400    577.374     35.026    570.483    577.308    570.483    570.546    570.483
 11.670    637.000    581.010     55.990    570.400    580.941    570.400    570.463    570.400
 11.770    618.290    589.244     29.046    570.313    589.170    570.313    570.376    570.313
 11.870    661.000    606.486     54.514    570.222    606.402    570.222    570.286    570.222
 11.970    640.000    636.209      3.791    570.127    636.108    570.127    570.191    570.127
 12.070    674.000    674.617     -0.617    570.029    674.495    570.029    570.094    570.029
 12.170    717.754    704.867     12.887    569.928    704.728    569.928    569.992    569.928
 12.270    650.000    705.753    -55.753    569.823    705.613    569.823    569.888    569.823
 12.370    608.000    676.381    -68.381    569.714    676.257    569.714    569.779    569.714
 12.470    661.766    637.587     24.180    569.602    637.484    569.602    569.668    569.602
 12.570    596.000    606.970    -10.970    569.487    606.884    569.487    569.553    569.487
 12.670    572.000    588.920    -16.920    569.369    588.843    569.369    569.435    569.369
 12.770    544.313    580.141    -35.828    569.247    580.068    569.247    569.313    569.247
 12.870    574.089    576.155     -2.066    569.122    576.084    569.122    569.189    569.122
 12.970    620.000    574.152     45.848    568.993    574.081    568.993    569.062    568.993
 13.070    548.000    572.920    -24.920    568.862    572.849    568.862    568.931    568.862
 13.170    528.588    572.035    -43.447    568.727    571.964    568.727    568.797    568.727
 13.270    607.909    571.348     36.561    568.590    571.276    568.590    568.660    568.590
 13.370    591.000    570.790     20.210    568.449    570.718    568.449    568.519    568.449
 13.470    563.000    570.322     -7.322    568.305    570.250    568.305    568.376    568.305
 13.570    530.618    569.919    -39.301    568.158    569.847    568.158    568.229    568.158
 13.670    581.000    569.563     11.437    568.009    569.491    568.009    568.080    568.009
 13.770    556.000    569.242    -13.242    567.856    569.170    567.856    567.928    567.856
 13.870    564.000    568.948     -4.948    567.700    568.875    567.700    567.773    567.700
 13.970    543.531    568.674    -25.143    567.542    568.601    567.542    567.615    567.542
 14.070    579.737    568.415     11.322    567.381    568.342    567.381    567.454    567.381
 14.170    526.000    568.169    -42.169    567.217    568.095    567.217    567.290    567.217
 14.270    561.000    567.931     -6.931    567.050    567.857    567.050    567.124    567.050
 14.370    546.000    567.701    -21.701    566.881    567.627    566.881    566.955    566.881
 14.470    567.559    567.476      0.083    566.709    567.402    566.709    566.783    566.709
 14.570    575.000    567.259      7.741    566.534    567.184    566.534    566.609    566.534
 14.670    558.000    567.043     -9.043    566.357    566.967    566.357    566.432    566.357
 14.770    563.000    566.828     -3.828    566.177    566.752    566.177    566.253    566.177
 14.870    583.000    566.614     16.386    565.995    566.538    565.995    566.071    565.995
 14.970    529.000    566.402    -37.402    565.810    566.325    565.810    565.887    565.810
 15.070    565.722    566.190     -0.467    565.623    566.113    565.623    565.700    565.623
 15.170    540.043    565.978    -25.935    565.433    565.901    565.433    565.511    565.433
 15.270    576.000    565.767     10.233    565.241    565.689    565.241    565.319    565.241
 15.370    529.129    565.555    -36.426    565.047    565.477    565.047    565.125    565.047
 15.470    567.000    565.343      1.657    564.850    565.264    564.850    564.929    564.850
 15.570    571.000    565.130      5.870    564.651    565.051    564.651    564.730    564.651
 15.670    533.176    564.916    -31.740    564.450    564.836    564.450    564.529    564.450
 15.770    587.812    564.702     23.110    564.246    564.621    564.246    564.327    564.246
 15.870    561.000    564.490     -3.490    564.040    564.405    564.040    564.126    564.040
 15.970    518.844    564.275    -45.431    563.833    564.188    563.833    563.920    563.833
 16.070    583.000    564.058     18.942    563.623    563.969    563.623    563.711    563.623
 16.170    583.000    563.838     19.162    563.410    563.750    563.410    563.499    563.410
 16.270    595.246    563.618     31.628    563.196    563.529    563.196    563.285    563.196
 16.370    536.635    563.397    -26.762    562.980    563.307    562.980    563.070    562.980
 16.470    564.000    563.176      0.824    562.762    563.085    562.762    562.852    562.762
 16.570    561.533    562.951     -1.418    562.542    562.860    562.542    562.633    562.542
 16.670    556.000    562.725     -6.725    562.320    562.634    562.320    562.411    562.320
 16.770    577.000    562.498     14.502    562.096    562.406    562.096    562.188    562.096
 16.870    568.994    562.270      6.724    561.870    562.177    561.870    561.962    561.870
 16.970    527.000    562.040    -35.040    561.642    561.946    561.642    561.735    561.642
 17.070    553.000    561.808     -8.808    561.413    561.715    561.413    561.506    561.413
 17.170    539.000    561.576    -22.576    561.181    561.482    561.181    561.276    561.181
 17.270    597.000    561.342     35.658    560.948    561.247    560.948    561.043    560.948
 17.370    509.000    561.109    -52.109    560.713    561.013    560.713    560.809    560.713
 17.470    579.000    560.873     18.127    560.477    560.776    560.477    560.573    560.477
 17.570    574.000    560.635     13.365    560.239    560.538    560.239    560.336    560.239
 17.670    545.987    560.395    -14.408    559.999    560.298    559.999    560.097    559.999
 17.770    531.000    560.154    -29.154    559.758    560.056    559.758    559.856    559.758
 17.870    558.000    559.912     -1.912    559.515    559.814    559.515    559.614    559.515
 17.970    537.000    559.669    -22.669    559.270    559.570    559.270    559.370    559.270
 18.070    604.164    559.425     44.739    559.024    559.325    559.024    559.124    559.024
 18.170    541.000    559.179    -18.179    558.777    559.078    558.777    558.878    558.777
 18.270    586.787    558.932     27.855    558.528    558.831    558.528    558.629    558.528
 18.370    597.616    558.684     38.931    558.278    558.582    558.278    558.380    558.278
 18.470    576.000    558.435     17.565    558.026    558.332    558.026    558.129    558.026
 18.570    555.000    558.185     -3.185    557.773    558.081    557.773    557.876    557.773
 18.670    536.999    557.934    -20.935    557.518    557.829    557.518    557.623    557.518
 18.770    584.629    557.682     26.947    557.262    557.577    557.262    557.368    557.262
 18.870    585.312    557.430     27.883    557.005    557.323    557.005    557.111    557.005
 18.970    525.000    557.175    -32.175    556.747    557.069    556.747    556.854    556.747
 19.070    541.814    556.920    -15.106    556.487    556.813    556.487    556.595    556.487
 19.170    541.000    556.664    -15.664    556.227    556.556    556.227    556.335    556.227
 19.270    562.389    556.407      5.981    555.965    556.298    555.965    556.074    555.965
 19.370    593.717    556.150     37.567    555.701    556.039    555.701    555.812    555.701
 19.470    596.812    555.891     40.921    555.437    555.780    555.437    555.548    555.437
 19.570    528.000    555.633    -27.633    555.172    555.521    555.172    555.284    555.172
 19.670    563.000    555.374      7.626    554.905    555.261    554.905    555.019    554.905
 19.770    508.730    555.113    -46.383    554.638    554.999    554.638    554.752    554.638
 19.870    510.000    554.852    -44.852    554.369    554.737    554.369    554.484    554.369
 19.970    555.000    554.591      0.409    554.100    554.475    554.100    554.216    554.100
 20.070    515.291    554.342    -39.051    553.829    554.225    553.829    553.946    553.829
 20.170    562.000    554.090      7.910    553.558    553.971    553.558    553.676    553.558
 20.270    583.000    553.827     29.173    553.286    553.708    553.286    553.405    553.286
 20.370    522.659    553.564    -30.905    553.012    553.443    553.012    553.133    553.012
 20.470    554.000    553.300      0.700    552.738    553.178    552.738    552.860    552.738
 20.570    551.867    553.038     -1.171    552.463    552.913    552.463    552.588    552.463
 20.670    552.887    552.775      0.112    552.187    552.647    552.187    552.315    552.187
 20.770    541.000    552.510    -11.510    551.911    552.382    551.911    552.039    551.911
 20.870    520.000    552.246    -32.246    551.633    552.116    551.633    551.763    551.633
 20.970    539.000    551.981    -12.981    551.355    551.850    551.355    551.486    551.355
 21.070    595.702    551.717     43.985    551.077    551.585    551.077    551.209    551.077
 21.170    533.000    551.453    -18.453    550.797    551.319    550.797    550.931    550.797
 21.270    557.000    551.189      5.811    550.517    551.054    550.517    550.652    550.517
 21.370    521.000    550.926    -29.926    550.236    550.789    550.236    550.373    550.236
 21.470    543.000    550.663     -7.663    549.954    550.525    549.954    550.093    549.954
 21.570    523.000    550.401    -27.401    549.672    550.262    549.672    549.812    549.672
 21.670    552.000    550.148      1.852    549.390    550.007    549.390    549.531    549.390
 21.770    551.000    549.973      1.027    549.106    549.830    549.106    549.249    549.106
 21.870    566.000    549.738     16.262    548.823    549.594    548.823    548.967    548.823
 21.970    584.000    549.504     34.496    548.538    549.358    548.538    548.685    548.538
 22.070    539.000    549.278    -10.278    548.254    549.130    548.254    548.402    548.254
 22.170    527.332    549.028    -21.696    547.968    548.878    547.968    548.118    547.968
 22.270    521.076    548.782    -27.707    547.683    548.631    547.683    547.834    547.683
 22.370    522.000    548.581    -26.581    547.397    548.428    547.397    547.550    547.397
 22.470    512.892    548.357    -35.465    547.110    548.201    547.110    547.266    547.110
 22.570    570.000    548.120     21.880    546.823    547.962    546.823    546.981    546.823
 22.670    564.000    547.889     16.111    546.536    547.729    546.536    546.696    546.536
 22.770    493.000    547.665    -54.665    546.248    547.503    546.248    546.411    546.248
 22.870    569.000    547.446     21.554    545.960    547.282    545.960    546.125    545.960
 22.970    538.925    547.235     -8.310    545.672    547.069    545.672    545.839    545.672
 23.070    576.000    547.036     28.964    545.384    546.867    545.384    545.553    545.384
 23.170    554.125    546.850      7.275    545.095    546.678    545.095    545.267    545.095
 23.270    513.322    546.682    -33.360    544.806    546.507    544.806    544.981    544.806
 23.370    563.000    546.535     16.465    544.517    546.358    544.517    544.695    544.517
 23.470    527.000    546.417    -19.417    544.227    546.237    544.227    544.408    544.227
 23.570    558.000    546.337     11.663    543.938    546.154    543.938    544.122    543.938
 23.670    586.075    546.307     39.768    543.648    546.121    543.648    543.835    543.648
 23.770    556.000    546.349      9.651    543.358    546.160    543.358    543.549    543.358
 23.870    549.000    546.486      2.514    543.068    546.294    543.068    543.263    543.068
 23.970    527.000    546.776    -19.776    542.778    546.580    542.778    542.976    542.778
 24.070    565.000    547.344     17.656    542.488    547.145    542.488    542.690    542.488
 24.170    558.000    548.550      9.450    542.198    548.348    542.198    542.404    542.198
 24.270    558.898    551.368      7.530    541.908    551.163    541.908    542.118    541.908
 24.370    602.000    557.857     44.143    541.618    557.653    541.618    541.832    541.618
 24.470    574.005    570.911      3.094    541.328    570.712    541.328    541.547    541.328
 24.570    572.881    592.007    -19.125    541.037    591.818    541.037    541.262    541.037
 24.670    648.000    617.044     30.956    540.747    616.869    540.747    540.977    540.747
 24.770    634.519    633.668      0.851    540.457    633.501    540.457    540.692    540.457
 24.870    627.000    629.620     -2.620    540.167    629.462    540.167    540.408    540.167
 24.970    637.677    608.243     29.434    539.877    608.051    539.877    540.124    539.877
 25.070    594.000    583.284     10.716    539.588    583.062    539.588    539.841    539.588
 25.170    581.003    564.321     16.682    539.298    564.078    539.298    539.559    539.298
 25.270    597.000    553.189     43.811    539.008    552.930    539.008    539.277    539.008
 25.370    516.000    547.650    -31.650    538.719    547.379    538.719    538.995    538.719
 25.470    552.000    545.007      6.993    538.430    544.726    538.430    538.714    538.430
 25.570    537.219    543.595     -6.376    538.141    543.304    538.141    538.435    538.141
 25.670    566.000    542.682     23.318    537.852    542.381    537.852    538.156    537.852
 25.770    508.000    542.007    -34.007    537.564    541.694    537.564    537.877    537.564
 25.870    510.356    541.474    -31.118    537.276    541.151    537.276    537.600    537.276
 25.970    536.000    541.039     -5.039    536.988    540.703    536.988    537.324    536.988
 26.070    579.235    540.681     38.554    536.700    540.332    536.700    537.050    536.700
 26.170    551.000    540.388     10.612    536.413    540.024    536.413    536.776    536.413
 26.270    558.000    540.175     17.825    536.126    539.796    536.126    536.505    536.126
 26.370    500.716    540.010    -39.294    535.839    539.615    535.839    536.235    535.839
 26.470    553.109    539.874     13.235    535.553    539.460    535.553    535.966    535.553
 26.570    548.000    539.788      8.212    535.267    539.355    535.267    535.700    535.267
 26.670    555.092    539.764     15.327    534.981    539.309    534.981    535.436    534.981
 26.770    547.000    539.811      7.189    534.696    539.332    534.696    535.175    534.696
 26.870    517.000    539.931    -22.931    534.411    539.425    534.411    534.916    534.411
 26.970    542.000    540.150      1.850    534.127    539.615    534.127    534.661    534.127
 27.070    555.000    540.505     14.495    533.843    539.938    533.843    534.410    533.843
 27.170    539.000    541.043     -2.043    533.560    540.440    533.560    534.162    533.560
 27.270    582.451    541.788     40.663    533.277    541.144    533.277    533.920    533.277
 27.370    586.000    542.828     43.172    532.995    542.138    532.995    533.683    532.995
 27.470    552.000    544.338      7.662    532.713    543.597    532.713    533.453    532.713
 27.570    570.000    546.739     23.261    532.431    545.938    532.431    533.230    532.431
 27.670    574.000    551.468     22.532    532.150    550.598    532.150    533.017    532.150
 27.770    524.132    563.238    -39.106    531.870    562.287    531.870    532.814    531.870
 27.870    587.407    593.596     -6.189    531.591    592.544    531.591    532.624    531.591
 27.970    611.836    659.926    -48.089    531.311    658.748    531.311    532.450    531.311
 28.070    746.239    769.290    -23.051    531.033    767.958    531.033    532.295    531.033
 28.170    941.428    890.874     50.553    530.755    889.368    530.755    532.165    530.755
 28.270    895.000    950.926    -55.926    530.478    949.245    530.478    532.065    530.478
 28.370    927.000    900.626     26.374    530.201    898.764    530.201    532.004    530.201
 28.470    813.000    792.093     20.907    529.925    789.997    529.925    531.997    529.925
 28.570    683.928    707.999    -24.071    529.650    705.574    529.650    532.063    529.650
 28.670    729.000    690.898     38.102    529.375    688.019    529.375    532.240    529.375
 28.770    704.000    736.167    -32.167    529.101    732.662    529.101    532.588    529.101
 28.870    744.000    804.428    -60.428    528.828    800.039    528.828    533.206    528.828
 28.970    810.424    836.730    -26.306    528.555    831.046    528.555    534.243    528.555
 29.070    779.000    798.055    -19.055    528.283    790.456    528.283    535.895    528.283
 29.170    746.000    718.894     27.106    528.012    708.544    528.012    538.376    528.012
 29.270    626.000    646.201    -20.201    527.742    632.103    527.742    541.848    527.742
 29.370    627.000    601.148     25.852    527.473    582.330    527.473    546.294    527.473
 29.470    584.703    581.135      3.568    527.204    557.070    527.204    551.268    527.204
 29.570    531.412    574.640    -43.228    526.936    545.999    526.936    555.575    526.936
 29.670    617.000    571.778     45.222    526.669    541.053    526.669    557.392    526.669
 29.770    520.746    567.618    -46.872    526.402    538.394    526.402    555.625    526.402
 29.870    571.000    561.638      9.362    526.137    536.671    526.137    551.102    526.137
 29.970    560.000    555.218      4.782    525.872    535.465    525.872    545.624    525.872
 30.070    575.975    549.547     26.428    525.608    534.641    525.608    540.513    525.608
 30.170    506.317    545.156    -38.839    525.345    534.171    525.345    536.328    525.345
 30.270    573.363    542.231     31.132    525.083    534.166    525.083    533.146    525.083
 30.370    567.076    541.072     26.004    524.822    535.064    524.822    530.827    524.822
 30.470    558.000    542.616     15.384    524.562    538.011    524.562    529.161    524.562
 30.570    549.000    548.769      0.231    524.302    545.112    524.302    527.947    524.302
 30.670    590.000    561.650     28.350    524.044    558.645    524.044    527.026    524.044
 30.770    614.137    581.048     33.089    523.786    578.505    523.786    526.293    523.786
 30.870    597.000    601.175     -4.175    523.530    598.976    523.530    525.679    523.530
 30.970    597.000    610.350    -13.350    523.274    608.425    523.274    525.145    523.274
 31.070    605.334    600.826      4.508    523.020    599.134    523.020    524.667    523.020
 31.170    589.000    579.782      9.218    522.766    578.287    522.766    524.231    522.766
 31.270    543.000    558.891    -15.891    522.513    557.560    522.513    523.828    522.513
 31.370    554.000    544.170      9.830    522.261    542.974    522.261    523.450    522.261
 31.470    561.000    535.930     25.070    522.011    534.844    522.011    523.093    522.011
 31.570    512.000    531.941    -19.941    521.761    530.947    521.761    522.752    521.761
 31.670    529.000    530.044     -1.044    521.512    529.128    521.512    522.426    521.512
 31.770    554.997    529.021     25.976    521.265    528.173    521.265    522.111    521.265
 31.870    568.730    528.372     40.359    521.018    527.582    521.018    521.806    521.018
 31.970    558.000    527.922     30.078    520.772    527.185    520.772    521.509    520.772
 32.070    576.000    527.617     48.383    520.528    526.924    520.528    521.220    520.528
 32.170    538.000    527.429     10.571    520.284    526.776    520.284    520.937    520.284
 32.270    605.000    527.349     77.651    520.042    526.731    520.042    520.659    520.042
 32.370    550.000    527.380     22.620    519.801    526.793    519.801    520.387    519.801
 32.470    535.641    527.529      8.112    519.561    526.970    519.561    520.119    519.561
 32.570    586.000    527.814     58.186    519.322    527.280    519.322    519.855    519.322
 32.670    528.000    528.260     -0.260    519.084    527.749    519.084    519.594    519.084
 32.770    563.000    528.906     34.094    518.847    528.415    518.847    519.337    518.847
 32.870    534.000    529.809      4.191    518.611    529.335    518.611    519.083    518.611
 32.970    548.000    531.050     16.950    518.376    530.593    518.376    518.832    518.376
 33.070    552.000    532.760     19.240    518.143    532.318    518.143    518.584    518.143
 33.170    597.000    535.174     61.826    517.911    534.744    517.911    518.338    517.911
 33.270    523.000    538.830    -15.830    517.680    538.413    517.680    518.094    517.680
 33.370    555.000    545.193      9.807    517.450    544.786    517.450    517.853    517.450
 33.470    561.000    558.079      2.921    517.221    557.680    517.221    517.614    517.221
 33.570    609.000    585.692     23.308    516.993    585.297    516.993    517.377    516.993
 33.670    646.000    640.914      5.086    516.767    640.519    516.767    517.142    516.767
 33.770    745.130    735.310      9.820    516.542    734.908    516.542    516.909    516.542
 33.870    832.869    865.042    -32.172    516.318    864.631    516.318    516.678    516.318
 33.970    967.000    994.990    -27.990    516.095    994.577    516.095    516.449    516.095
 34.070   1012.000   1058.657    -46.657    515.873   1058.260    515.873    516.221    515.873
 34.170   1007.000   1010.859     -3.859    515.653   1010.493    515.653    515.995    515.653
 34.270    845.000    887.003    -42.003    515.434    886.664    515.434    515.771    515.434
 34.370    782.000    754.016     27.984    515.216    753.693    515.216    515.548    515.216
 34.470    617.000    652.595    -35.595    514.999    652.277    514.999    515.328    514.999
 34.570    593.000    590.879      2.121    514.784    590.561    514.784    515.108    514.784
 34.670    559.000    558.923      0.077    514.570    558.604    514.570    514.891    514.570
 34.770    503.204    543.600    -40.395    514.357    543.283    514.357    514.675    514.357
 34.870    570.654    535.898     34.757    514.145    535.583    514.145    514.460    514.145
 34.970    510.000    531.384    -21.384    513.935    531.072    513.935    514.247    513.935
 35.070    522.000    528.294     -6.294    513.726    527.984    513.726    514.036    513.726
 35.170    530.912    525.971      4.940    513.518    525.663    513.518    513.826    513.518
 35.270    523.000    524.143     -1.143    513.312    523.837    513.312    513.618    513.312
 35.370    515.000    522.664     -7.664    513.107    522.360    513.107    513.411    513.107
 35.470    507.099    521.443    -14.344    512.903    521.140    512.903    513.206    512.903
 35.570    509.000    520.417    -11.417    512.700    520.115    512.700    513.002    512.700
 35.670    562.302    519.541     42.761    512.499    519.241    512.499    512.799    512.499
 35.770    538.000    518.784     19.216    512.299    518.485    512.299    512.599    512.299
 35.870    534.442    518.122     16.320    512.101    517.823    512.101    512.399    512.101
 35.970    513.000    517.537     -4.537    511.903    517.238    511.903    512.201    511.903
 36.070    533.000    517.015     15.985    511.707    516.717    511.707    512.005    511.707
 36.170    500.393    516.548    -16.154    511.513    516.250    511.513    511.810    511.513
 36.270    479.873    516.126    -36.254    511.320    515.829    511.320    511.617    511.320
 36.370    553.683    515.747     37.936    511.128    515.450    511.128    511.425    511.128
 36.470    478.000    515.405    -37.405    510.937    515.108    510.937    511.234    510.937
 36.570    488.000    515.099    -27.099    510.748    514.802    510.748    511.046    510.748
 36.670    552.833    514.832     38.001    510.560    514.534    510.560    510.858    510.560
 36.770    549.846    514.607     35.240    510.374    514.309    510.374    510.672    510.374
 36.870    480.816    514.442    -33.626    510.189    514.144    510.189    510.488    510.189
 36.970    521.000    514.388      6.612    510.005    514.089    510.005    510.305    510.005
 37.070    541.071    514.564     26.507    509.823    514.265    509.823    510.123    509.823
 37.170    542.000    515.210     26.790    509.642    514.910    509.642    509.943    509.642
 37.270    514.000    516.676     -2.676    509.463    516.375    509.463    509.764    509.463
 37.370    562.969    519.264     43.706    509.285    518.962    509.285    509.587    509.285
 37.470    522.000    522.894     -0.894    509.108    522.592    509.108    509.412    509.108
 37.570    533.000    526.735      6.265    508.933    526.433    508.933    509.238    508.933
 37.670    541.603    529.159     12.444    508.759    528.858    508.759    509.065    508.759
 37.770    509.274    528.802    -19.528    508.586    528.500    508.586    508.894    508.586
 37.870    560.000    526.014     33.986    508.415    525.713    508.415    508.724    508.415
 37.970    486.000    522.292    -36.292    508.245    521.992    508.245    508.556    508.245
 38.070    536.000    518.799     17.201    508.077    518.497    508.077    508.390    508.077
 38.170    513.000    515.986     -2.986    507.910    515.681    507.910    508.225    507.910
 38.270    494.090    513.931    -19.841    507.745    513.622    507.745    508.061    507.745
 38.370    524.000    512.532     11.468    507.581    512.219    507.581    507.899    507.581
 38.470    545.910    511.613     34.297    507.418    511.295    507.418    507.739    507.418
 38.570    515.345    511.010      4.335    507.257    510.689    507.257    507.580    507.257
 38.670    477.244    510.598    -33.354    507.097    510.274    507.097    507.422    507.097
 38.770    496.000    510.294    -14.294    506.939    509.967    506.939    507.266    506.939
 38.870    529.194    510.047     19.146    506.782    509.718    506.782    507.112    506.782
 38.970    533.000    509.833     23.167    506.626    509.501    506.626    506.959    506.626
 39.070    500.000    509.639     -9.639    506.472    509.305    506.472    506.807    506.472
 39.170    483.000    509.461    -26.461    506.320    509.124    506.320    506.658    506.320
 39.270    490.000    509.295    -19.295    506.169    508.954    506.169    506.509    506.169
 39.370    451.000    509.139    -58.139    506.019    508.795    506.019    506.362    506.019
 39.470    544.348    508.992     35.357    505.871    508.646    505.871    506.217    505.871
 39.570    478.872    508.854    -29.981    505.724    508.504    505.724    506.074    505.724
 39.670    507.000    508.723     -1.723    505.579    508.371    505.579    505.932    505.579
 39.770    536.351    508.601     27.750    505.435    508.245    505.435    505.791    505.435
 39.870    539.000    508.486     30.514    505.292    508.127    505.292    505.652    505.292
 39.970    496.000    508.379    -12.379    505.151    508.016    505.151    505.515    505.151
 40.070    519.000    508.281     10.719    505.012    507.914    505.012    505.379    505.012
 40.170    505.000    508.190     -3.190    504.874    507.820    504.874    505.245    504.874
 40.270    546.000    508.109     37.891    504.737    507.734    504.737    505.112    504.737
 40.370    466.662    508.037    -41.376    504.602    507.659    504.602    504.981    504.602
 40.470    508.379    507.977      0.403    504.468    507.594    504.468    504.851    504.468
 40.570    500.000    507.928     -7.928    504.336    507.541    504.336    504.723    504.336
 40.670    481.000    507.894    -26.894    504.205    507.502    504.205    504.597    504.205
 40.770    548.678    507.875     40.802    504.076    507.479    504.076    504.472    504.076
 40.870    508.389    507.876      0.513    503.948    507.475    503.948    504.349    503.948
 40.970    518.000    507.898     10.102    503.821    507.492    503.821    504.228    503.821
 41.070    499.000    507.948     -8.948    503.696    507.537    503.696    504.108    503.696
 41.170    543.491    508.030     35.461    503.573    507.614    503.573    503.990    503.573
 41.270    504.947    508.154     -3.207    503.451    507.733    503.451    503.873    503.451
 41.370    534.000    508.330     25.670    503.330    507.903    503.330    503.758    503.330
 41.470    527.303    508.575     18.728    503.211    508.142    503.211    503.645    503.211
 41.570    513.000    508.912      4.088    503.093    508.473    503.093    503.533    503.093
 41.670    486.000    509.387    -23.387    502.977    508.943    502.977    503.423    502.977
 41.770    542.385    510.100     32.285    502.863    509.650    502.863    503.315    502.863
 41.870    496.000    511.291    -15.291    502.749    510.835    502.749    503.208    502.749
 41.970    522.000    513.514      8.486    502.637    513.051    502.637    503.103    502.637
 42.070    566.000    517.869     48.131    502.527    517.402    502.527    503.000    502.527
 42.170    499.070    526.116    -27.046    502.418    525.645    502.418    502.899    502.418
 42.270    514.695    540.267    -25.571    502.311    539.795    502.311    502.799    502.311
 42.370    544.000    561.368    -17.368    502.205    560.899    502.205    502.701    502.205
 42.470    596.933    587.680      9.253    502.100    587.216    502.100    502.604    502.100
 42.570    593.000    613.086    -20.086    501.997    612.627    501.997    502.510    501.997
 42.670    577.000    627.626    -50.626    501.895    627.169    501.895    502.417    501.895
 42.770    596.131    623.692    -27.561    501.795    623.228    501.795    502.326    501.795
 42.870    558.239    603.603    -45.364    501.696    603.121    501.696    502.237    501.696
 42.970    620.000    576.846     43.154    501.599    576.339    501.599    502.149    501.599
 43.070    532.491    552.081    -19.590    501.503    551.550    501.503    502.064    501.503
 43.170    537.000    533.591      3.409    501.409    533.038    501.409    501.980    501.409
 43.270    502.000    521.822    -19.822    501.316    521.251    501.316    501.899    501.316
 43.370    536.682    515.184     21.499    501.225    514.596    501.225    501.819    501.225
 43.470    485.000    511.688    -26.688    501.134    511.086    501.134    501.741    501.134
 43.570    497.000    509.833    -12.833    501.046    509.217    501.046    501.665    501.046
 43.670    515.000    508.756      6.244    500.959    508.126    500.959    501.591    500.959
 43.770    542.723    508.046     34.677    500.873    507.402    500.873    501.519    500.873
 43.870    469.321    507.530    -38.209    500.789    506.871    500.789    501.449    500.789
 43.970    481.977    507.134    -25.157    500.706    506.460    500.706    501.381    500.706
 44.070    467.000    506.823    -39.823    500.624    506.133    500.624    501.316    500.624
 44.170    480.000    506.576    -26.576    500.544    505.868    500.544    501.252    500.544
 44.270    492.604    506.379    -13.775    500.466    505.654    500.466    501.191    500.466
 44.370    473.000    506.223    -33.223    500.389    505.480    500.389    501.132    500.389
 44.470    493.948    506.101    -12.153    500.313    505.339    500.313    501.076    500.313
 44.570    507.000    506.008      0.992    500.239    505.225    500.239    501.022    500.239
 44.670    470.000    505.940    -35.940    500.166    505.136    500.166    500.970    500.166
 44.770    495.000    505.894    -10.894    500.094    505.068    500.094    500.921    500.094
 44.870    556.000    505.869     50.131    500.024    505.018    500.024    500.875    500.024
 44.970    513.000    505.862      7.138    499.955    504.986    499.955    500.832    499.955
 45.070    539.000    505.873     33.127    499.888    504.970    499.888    500.791    499.888
 45.170    542.425    505.901     36.523    499.822    504.970    499.822    500.754    499.822
 45.270    547.465    505.947     41.519    499.758    504.986    499.758    500.719    499.758
 45.370    514.000    506.010      7.990    499.695    505.016    499.695    500.688    499.695
 45.470    511.000    506.090      4.910    499.633    505.062    499.633    500.661    499.633
 45.570    497.000    506.188     -9.188    499.573    505.124    499.573    500.637    499.573
 45.670    462.340    506.306    -43.967    499.514    505.203    499.514    500.617    499.514
 45.770    516.000    506.445      9.555    499.457    505.300    499.457    500.602    499.457
 45.870    482.791    506.607    -23.816    499.401    505.417    499.401    500.591    499.401
 45.970    537.000    506.793     30.207    499.346    505.555    499.346    500.584    499.346
 46.070    522.371    507.007     15.364    499.293    505.717    499.293    500.583    499.293
 46.170    517.462    507.253     10.209    499.241    505.906    499.241    500.587    499.241
 46.270    561.000    507.535     53.465    499.190    506.127    499.190    500.598    499.190
 46.370    488.000    507.859    -19.859    499.141    506.384    499.141    500.615    499.141
 46.470    473.000    508.233    -35.233    499.093    506.686    499.093    500.640    499.093
 46.570    511.516    508.668      2.849    499.047    507.041    499.047    500.672    499.047
 46.670    515.837    509.178      6.659    499.001    507.465    499.001    500.713    499.001
 46.770    506.000    509.792     -3.792    498.958    507.983    498.958    500.765    498.958
 46.870    471.805    510.563    -38.758    498.915    508.649    498.915    500.827    498.915
 46.970    548.370    511.616     36.754    498.874    509.585    498.874    500.902    498.874
 47.070    543.000    513.215     29.785    498.834    511.054    498.834    500.992    498.834
 47.170    509.000    515.873     -6.873    498.796    513.566    498.796    501.098    498.796
 47.270    513.168    520.431     -7.263    498.759    517.959    498.759    501.222    498.759
 47.370    502.000    527.944    -25.944    498.723    525.285    498.723    501.369    498.723
 47.470    568.000    539.267     28.733    498.689    536.393    498.689    501.541    498.689
 47.570    517.000    554.321    -37.321    498.655    551.202    498.655    501.742    498.655
 47.670    578.476    571.303      7.173    498.624    567.903    498.624    501.980    498.624
 47.770    606.000    586.235     19.765    498.593    582.515    498.593    502.260    498.593
 47.870    586.000    593.794     -7.794    498.564    589.710    498.564    502.592    498.564
 47.970    612.507    590.828     21.679    498.536    586.324    498.536    502.988    498.536
 48.070    583.000    579.489      3.511    498.509    574.490    498.509    503.466    498.509
 48.170    597.633    564.975     32.658    498.484    559.376    498.484    504.053    498.484
 48.270    506.332    551.800    -45.468    498.460    545.450    498.460    504.790    498.460
 48.370    590.000    542.382     47.618    498.437    535.060    498.437    505.747    498.437
 48.470    553.016    537.322     15.694    498.416    528.693    498.416    507.037    498.416
 48.570    559.000    536.162     22.838    498.396    525.715    498.396    508.838    498.396
 48.670    519.000    538.189    -19.189    498.377    525.148    498.377    511.414    498.377
 48.770    533.000    542.945     -9.945    498.359    526.178    498.359    515.124    498.359
 48.870    545.000    550.394     -5.394    498.343    528.335    498.343    520.398    498.343
 48.970    528.000    560.829    -32.829    498.328    531.482    498.328    527.671    498.328
 49.070    577.000    574.733      2.267    498.314    535.789    498.314    537.254    498.314
 49.170    570.000    592.758    -22.758    498.301    541.901    498.301    549.153    498.301
 49.270    577.000    616.105    -39.105    498.290    551.574    498.290    562.813    498.290
 49.370    666.000    647.718     18.282    498.280    569.200    498.280    576.785    498.280
 49.470    727.000    694.745     32.255    498.271    604.522    498.271    588.471    498.271
 49.570    774.000    772.131      1.869    498.263    675.739    498.263    594.613    498.263
 49.670    892.000    904.831    -12.831    498.256    809.956    498.256    593.057    498.256
 49.770   1109.000   1122.195    -13.195    498.251   1035.917    498.251    584.413    498.251
 49.870   1451.000   1439.427     11.573    498.247   1366.002    498.247    571.517    498.247
 49.970   1877.000   1831.896     45.104    498.244   1772.503    498.244    557.467    498.244
 50.070   2303.000   2218.520     84.480    498.242   2172.228    498.242    544.400    498.242
 50.170   2392.926   2474.012    -81.085    498.242   2438.830    498.242    533.383    498.242
 50.270   2466.000   2489.095    -23.095    498.242   2462.695    498.242    524.722    498.242
 50.370   2297.000   2252.925     44.075    498.244   2233.065    498.244    518.273    498.244
 50.470   1824.000   1864.060    -40.060    498.247   1848.847    498.247    513.660    498.247
 50.570   1386.554   1452.771    -66.217    498.251   1440.763    498.251    510.440    498.251
 50.670   1093.372   1111.813    -18.441    498.257   1102.002    498.257    508.206    498.257
 50.770    854.000    877.273    -23.273    498.263    868.995    498.263    506.636    498.263
 50.870    708.000    740.501    -32.501    498.271    733.336    498.271    505.501    498.271
 50.970    670.000    671.405     -1.405    498.280    665.083    498.280    504.650    498.280
 51.070    602.428    638.411    -35.983    498.289    632.752    498.289    503.989    498.289
 51.170    578.319    619.001    -40.682    498.300    613.877    498.300    503.461    498.300
 51.270    643.000    602.171     40.829    498.313    597.484    498.313    503.030    498.313
 51.370    563.000    585.469    -22.469    498.326    581.145    498.326    502.675    498.326
 51.470    562.870    570.057     -7.187    498.340    566.036    498.340    502.379    498.340
 51.570    597.000    557.386     39.614    498.356    553.623    498.356    502.131    498.356
 51.670    590.000    548.088     41.912    498.372    544.545    498.372    501.924    498.372
 51.770    576.889    541.959     34.930    498.390    538.603    498.390    501.751    498.390
 51.870    578.373    538.332     40.042    498.409    535.138    498.409    501.607    498.409
 51.970    526.063    536.479    -10.415    498.428    533.423    498.428    501.487    498.428
 52.070    611.000    535.852     75.148    498.449    532.916    498.449    501.389    498.449
 52.170    546.000    536.159      9.841    498.471    533.324    498.471    501.309    498.471
 52.270    509.756    537.349    -27.593    498.494    534.600    498.494    501.246    498.494
 52.370    534.707    539.639     -4.931    498.518    536.962    498.518    501.197    498.518
 52.470    569.000    543.663     25.337    498.543    541.046    498.543    501.161    498.543
 52.570    546.000    550.833     -4.833    498.569    548.265    498.569    501.138    498.569
 52.670    553.000    563.882    -10.882    498.597    561.355    498.597    501.125    498.597
 52.770    622.000    587.403     34.597    498.625    584.906    498.625    501.122    498.625
 52.870    597.000    627.823    -30.823    498.654    625.347    498.654    501.128    498.654
 52.970    782.000    692.085     89.915    498.684    689.623    498.684    501.143    498.684
 53.070    817.315    784.581     32.733    498.715    782.128    498.715    501.166    498.715
 53.170    952.443    902.822     49.620    498.748    900.373    498.748    501.196    498.748
 53.270   1055.000   1033.288     21.712    498.781   1030.840    498.781    501.234    498.781
 53.370   1167.000   1149.509     17.491    498.815   1147.059    498.815    501.279    498.815
 53.470   1207.914   1216.803     -8.889    498.850   1214.349    498.850    501.332    498.850
 53.570   1161.000   1209.697    -48.697    498.886   1207.233    498.886    501.391    498.886
 53.670   1073.606   1131.404    -57.798    498.923   1128.917    498.923    501.457    498.923
 53.770   1062.277   1010.816     51.461    498.961   1008.293    498.961    501.530    498.961
 53.870    860.000    881.756    -21.756    499.000    879.185    499.000    501.609    499.000
 53.970    714.000    768.311    -54.311    499.040    765.684    499.040    501.696    499.040
 54.070    646.554    681.724    -35.170    499.081    679.035    499.081    501.790    499.081
 54.170    624.000    622.895      1.105    499.123    620.140    499.123    501.892    499.123
 54.270    615.029    586.688     28.340    499.165    583.861    499.165    502.001    499.165
 54.370    578.000    566.106     11.894    499.209    563.203    499.209    502.118    499.209
 54.470    561.000    555.028      5.972    499.253    552.042    499.253    502.243    499.253
 54.570    587.000    549.232     37.768    499.299    546.156    499.299    502.377    499.299
 54.670    580.312    546.264     34.048    499.345    543.091    499.345    502.520    499.345
 54.770    575.000    544.879     30.121    499.392    541.599    499.392    502.674    499.392
 54.870    524.013    544.508    -20.494    499.440    541.112    499.440    502.838    499.440
 54.970    558.943    544.910     14.032    499.489    541.388    499.489    503.013    499.489
 55.070    540.000    546.002     -6.002    499.539    542.341    499.539    503.200    499.539
 55.170    586.000    547.772     38.228    499.589    543.961    499.589    503.401    499.589
 55.270    563.000    550.263     12.737    499.640    546.287    499.640    503.617    499.640
 55.370    540.000    553.567    -13.567    499.693    549.413    499.693    503.848    499.693
 55.470    551.097    557.855     -6.758    499.746    553.505    499.746    504.097    499.746
 55.570    595.000    563.449     31.551    499.800    558.885    499.800    504.365    499.800
 55.670    545.000    571.018    -26.018    499.854    566.218    499.854    504.654    499.854
 55.770    590.000    582.000      8.000    499.910    576.942    499.910    504.967    499.910
 55.870    614.000    599.434     14.566    499.966    594.092    499.966    505.307    499.966
 55.970    623.000    629.262     -6.262    500.023    623.604    500.023    505.676    500.023
 56.070    707.188    681.842     25.346    500.081    675.833    500.081    506.079    500.081
 56.170    746.946    772.726    -25.780    500.139    766.326    500.139    506.520    500.139
 56.270    877.572    921.042    -43.470    500.199    914.204    500.199    507.003    500.199
 56.370   1021.000   1143.861   -122.861    500.259   1136.538    500.259    507.536    500.259
 56.470   1433.000   1446.513    -13.513    500.320   1438.653    500.320    508.126    500.320
 56.570   1759.421   1811.468    -52.048    500.381   1803.021    500.381    508.781    500.381
 56.670   2176.000   2190.178    -14.178    500.443   2181.092    500.443    509.511    500.443
 56.770   2519.326   2503.101     16.225    500.506   2493.317    500.506    510.331    500.506
 56.870   2717.753   2658.903     58.850    500.570   2648.342    500.570    511.255    500.570
 56.970   2587.530   2602.633    -15.103    500.635   2591.172    500.635    512.304    500.635
 57.070   2378.239   2356.751     21.488    500.700   2344.208    500.700    513.502    500.700
 57.170   2030.000   2002.170     27.830    500.765   1988.316    500.765    514.885    500.765
 57.270   1653.000   1627.243     25.757    500.832   1611.809    500.832    516.502    500.832
 57.370   1286.000   1295.796     -9.796    500.899   1278.455    500.899    518.427    500.899
 57.470   1017.413   1039.531    -22.118    500.967   1019.858    500.967    520.774    500.967
 57.570    858.029    863.005     -4.977    501.035    840.401    501.035    523.728    501.035
 57.670    787.000    754.035     32.965    501.104    727.613    501.104    527.580    501.104
 57.770    731.000    694.678     36.322    501.174    663.109    501.174    532.773    501.174
 57.870    733.000    669.128     63.872    501.245    630.436    501.245    539.950    501.245
 57.970    665.000    667.327     -2.327    501.316    618.667    501.316    549.979    501.316
 58.070    699.000    685.207     13.793    501.387    622.666    501.387    563.921    501.387
 58.170    745.000    723.075     21.925    501.459    641.581    501.459    582.936    501.459
 58.270    820.849    783.275     37.574    501.532    676.708    501.532    608.072    501.532
 58.370    881.333    867.719     13.614    501.605    729.312    501.605    639.975    501.605
 58.470    970.000    975.605     -5.605    501.679    798.723    501.679    678.517    501.679
 58.570   1019.000   1101.558    -82.558    501.754    880.930    501.754    722.333    501.754
 58.670   1238.000   1234.772      3.228    501.829    968.299    501.829    768.258    501.829
 58.770   1404.880   1360.115     44.765    501.905   1051.259    501.905    810.729    501.905
 58.870   1455.000   1461.379     -6.379    501.981   1121.447    501.981    841.899    501.981
 58.970   1547.000   1524.079     22.921    502.057   1172.253    502.057    853.891    502.057
 59.070   1595.198   1537.928     57.270    502.135   1196.954    502.135    843.136    502.135
 59.170   1563.000   1501.562     61.438    502.212   1190.901    502.212    812.916    502.212
 59.270   1477.000   1426.167     50.833    502.291   1157.508    502.291    770.995    502.291
 59.370   1357.000   1331.916     25.084    502.369   1109.042    502.369    725.276    502.369
 59.470   1312.000   1239.812     72.188    502.448   1060.825    502.448    681.441    502.448
 59.570   1125.430   1167.462    -42.032    502.528   1027.194    502.528    642.766    502.528
 59.670   1080.000   1129.775    -49.775    502.608   1021.618    502.608    610.691    502.608
 59.770   1172.000   1138.255     33.745    502.689   1055.421    502.689    585.396    502.689
 59.870   1155.684   1196.278    -40.594    502.770   1132.597    502.770    566.267    502.770
 59.970   1337.000   1294.344     42.656    502.852   1244.691    502.852    552.268    502.852
 60.070   1436.504   1408.623     27.882    502.934   1369.038    502.934    542.243    502.934
 60.170   1478.774   1503.545    -24.771    503.016   1471.152    503.016    535.120    503.016
 60.270   1562.000   1541.208     20.792    503.099   1514.015    503.099    530.026    503.099
 60.370   1533.000   1499.434     33.566    503.182   1476.095    503.182    526.308    503.182
 60.470   1462.000   1385.386     76.614    503.266   1364.987    503.266    523.516    503.266
 60.570   1245.000   1228.423     16.577    503.350   1210.325    503.350    521.358    503.350
 60.670   1077.000   1062.206     14.794    503.434   1045.942    503.434    519.651    503.434
 60.770    914.000    912.715      1.285    503.519    897.928    503.519    518.286    503.519
 60.870    750.000    794.371    -44.371    503.604    780.769    503.604    517.199    503.604
 60.970    724.000    711.009     12.991    503.689    698.343    503.689    516.353    503.689
 61.070    681.000    659.497     21.503    503.775    647.544    503.775    515.723    503.775
 61.170    670.297    634.214     36.083    503.861    622.770    503.861    515.294    503.861
 61.270    589.582    630.754    -41.172    503.948    619.631    503.948    515.052    503.948
 61.370    699.313    647.948     51.365    504.035    636.978    504.035    514.973    504.035
 61.470    680.000    688.016     -8.016    504.122    677.062    504.122    515.028    504.122
 61.570    795.970    755.015     40.955    504.209    743.987    504.209    515.165    504.209
 61.670    837.000    851.928    -14.928    504.297    840.813    504.297    515.312    504.297
 61.770    942.297    977.081    -34.784    504.385    965.961    504.385    515.373    504.385
 61.870   1092.722   1120.940    -28.217    504.473   1109.999    504.473    515.255    504.473
 61.970   1250.045   1264.447    -14.402    504.562   1253.928    504.562    514.905    504.562
 62.070   1381.000   1380.158      0.842    504.651   1370.290    504.651    514.344    504.651
 62.170   1494.210   1438.730     55.481    504.740   1429.673    504.740    513.646    504.740
 62.270   1353.000   1422.295    -69.295    504.829   1414.116    504.829    512.899    504.829
 62.370   1288.000   1335.745    -47.745    504.918   1328.426    504.918    512.173    504.918
 62.470   1233.378   1203.187     30.191    505.008   1196.656    505.008    511.513    505.008
 62.570   1090.000   1054.262     35.738    505.098   1048.417    505.098    510.943    505.098
 62.670    871.496    913.406    -41.909    505.188    908.137    505.188    510.469    505.188
 62.770    785.000    795.713    -10.713    505.279    790.919    505.279    510.088    505.279
 62.870    747.000    706.960     40.040    505.369    702.552    505.369    509.790    505.369
 62.970    645.000    645.808     -0.808    505.460    641.713    505.460    509.563    505.460
 63.070    577.000    606.948    -29.948    505.551    603.109    505.551    509.393    505.551
 63.170    608.249    584.005     24.245    505.642    580.380    505.642    509.266    505.642
 63.270    605.051    571.465     33.586    505.733    568.021    505.733    509.174    505.733
 63.370    571.606    565.509      6.097    505.824    562.222    505.824    509.106    505.824
 63.470    560.414    564.100     -3.687    505.916    560.951    505.916    509.058    505.916
 63.570    556.000    566.749    -10.749    506.007    563.722    506.007    509.026    506.007
 63.670    551.849    574.235    -22.386    506.099    571.315    506.099    509.005    506.099
 63.770    604.000    588.337     15.663    506.191    585.512    506.191    508.995    506.191
 63.870    628.308    611.474     16.834    506.282    608.733    506.282    508.994    506.282
 63.970    629.000    646.097    -17.097    506.374    643.428    506.374    509.001    506.374
 64.070    729.000    693.775     35.225    506.466    691.167    506.466    509.014    506.466
 64.170    705.857    754.100    -48.243    506.558    751.545    506.558    509.034    506.558
 64.270    824.000    823.640      0.360    506.651    821.132    506.651    509.059    506.651
 64.370    926.143    895.274     30.868    506.743    892.811    506.743    509.090    506.743
 64.470    979.000    958.416     20.584    506.835    956.001    506.835    509.125    506.835
 64.570   1000.704   1001.255     -0.552    506.927    998.894    506.927    509.164    506.927
 64.670   1031.000   1015.400     15.600    507.020   1013.102    507.020    509.208    507.020
 64.770    937.347    999.671    -62.324    507.112    997.442    507.112    509.256    507.112
 64.870    984.000    959.592     24.408    507.204    957.432    507.204    509.306    507.204
 64.970    936.493    904.386     32.107    507.296    902.291    507.296    509.361    507.296
 65.070    901.167    843.929     57.239    507.389    841.892    507.389    509.418    507.389
 65.170    773.291    786.087    -12.796    507.481    784.100    507.481    509.478    507.481
 65.270    717.000    735.259    -18.259    507.573    733.313    507.573    509.541    507.573
 65.370    674.000    692.687    -18.687    507.665    690.773    507.665    509.607    507.665
 65.470    630.000    657.903    -27.903    507.758    656.013    507.758    509.675    507.758
 65.570    602.000    630.021    -28.021    507.850    628.150    507.850    509.745    507.850
 65.670    572.524    608.185    -35.661    507.942    606.327    507.942    509.818    507.942
 65.770    570.736    591.557    -20.821    508.034    589.710    508.034    509.893    508.034
 65.870    529.000    579.335    -50.335    508.125    577.498    508.125    509.970    508.125
 65.970    580.000    570.783      9.217    508.217    568.955    508.217    510.050    508.217
 66.070    561.620    565.241     -3.621    508.309    563.421    508.309    510.131    508.309
 66.170    571.000    562.130      8.870    508.400    560.316    508.400    510.214    508.400
 66.270    532.000    560.964    -28.964    508.492    559.156    508.492    510.299    508.492
 66.370    560.000    561.382     -1.382    508.583    559.578    508.583    510.386    508.583
 66.470    586.000    563.189     22.811    508.674    561.388    508.674    510.475    508.674
 66.570    557.000    566.417     -9.417    508.765    564.616    508.765    510.566    508.765
 66.670    541.077    571.429    -30.351    508.856    569.627    508.856    510.659    508.856
 66.770    544.000    579.120    -35.120    508.946    577.314    508.946    510.754    508.946
 66.870    636.000    591.251     44.749    509.037    589.439    509.037    510.851    509.037
 66.970    596.000    610.916    -14.916    509.127    609.093    509.127    510.949    509.127
 67.070    686.296    643.044     43.252    509.217    641.209    509.217    511.050    509.217
 67.170    699.000    694.720      4.280    509.307    692.868    509.307    511.153    509.307
 67.270    741.232    774.911    -33.678    509.397    773.039    509.397    511.258    509.397
 67.370    880.000    893.205    -13.205    509.486    891.312    509.486    511.365    509.486
 67.470   1022.000   1057.310    -35.310    509.575   1055.397    509.575    511.474    509.575
 67.570   1266.000   1269.542     -3.542    509.664   1267.613    509.664    511.586    509.664
 67.670   1470.000   1523.079    -53.079    509.753   1521.143    509.753    511.701    509.753
 67.770   1731.595   1799.085    -67.490    509.841   1797.153    509.841    511.818    509.841
 67.870   2122.010   2065.748     56.261    509.929   2063.835    509.929    511.938    509.929
 67.970   2346.700   2280.716     65.984    510.017   2278.833    510.017    512.060    510.017
 68.070   2450.000   2399.985     50.015    510.105   2398.136    510.105    512.186    510.105
 68.170   2379.252   2394.649    -15.398    510.192   2392.822    510.192    512.316    510.192
 68.270   2323.000   2266.186     56.814    510.279   2264.349    510.279    512.449    510.279
 68.370   2075.000   2045.523     29.477    510.366   2043.641    510.366    512.586    510.366
 68.470   1842.919   1777.014     65.905    510.453   1775.052    510.453    512.727    510.453
 68.570   1577.000   1502.303     74.697    510.539   1500.237    510.539    512.873    510.539
 68.670   1236.000   1252.127    -16.127    510.624   1249.943    510.624    513.024    510.624
 68.770    992.000   1044.240    -52.240    510.710   1041.932    510.710    513.181    510.710
 68.870    867.000    884.565    -17.565    510.795    882.134    510.795    513.343    510.795
 68.970    769.000    770.191     -1.191    510.879    767.639    510.879    513.512    510.879
 69.070    697.598    693.133      4.464    510.964    690.464    510.964    513.686    510.964
 69.170    640.994    643.786     -2.792    511.048    640.998    511.048    513.870    511.048
 69.270    657.000    613.308     43.692    511.131    610.399    511.131    514.062    511.131
 69.370    594.000    594.789     -0.789    511.214    591.754    511.214    514.265    511.214
 69.470    580.000    583.453     -3.453    511.297    580.282    511.297    514.478    511.297
 69.570    578.554    576.304      2.249    511.379    572.988    511.379    514.703    511.379
 69.670    567.000    571.617     -4.617    511.461    568.142    511.461    514.942    511.461
 69.770    599.000    568.458     30.542    511.543    564.809    511.543    515.196    511.543
 69.870    582.664    566.347     16.317    511.624    562.507    511.624    515.467    511.624
 69.970    585.000    565.046     19.954    511.704    560.995    511.704    515.757    511.704
 70.070    534.913    564.445    -29.532    511.785    560.161    511.785    516.069    511.785
 70.170    555.000    564.509     -9.509    511.864    559.967    511.864    516.407    511.864
 70.270    562.000    565.270     -3.270    511.943    560.440    511.943    516.773    511.943
 70.370    585.272    566.838     18.434    512.022    561.687    512.022    517.172    512.022
 70.470    601.000    569.464     31.536    512.100    563.953    512.100    517.609    512.100
 70.570    555.000    573.637    -18.637    512.178    567.719    512.178    518.092    512.178
 70.670    613.152    580.246     32.906    512.255    573.867    512.255    518.627    512.255
 70.770    581.860    590.811     -8.951    512.332    583.905    512.332    519.227    512.332
 70.870    578.000    607.743    -29.743    512.408    600.228    512.408    519.906    512.408
 70.970    621.000    634.573    -13.573    512.484    626.343    512.484    520.688    512.484
 71.070    691.495    675.977     15.518    512.559    666.889    512.559    521.607    512.559
 71.170    669.000    737.435    -68.435    512.634    727.293    512.634    522.717    512.634
 71.270    841.000    824.363     16.637    512.708    812.883    512.708    524.105    512.708
 71.370    908.000    940.660    -32.660    512.781    927.429    512.781    525.903    512.781
 71.470   1101.000   1086.883     14.117    512.854   1071.292    512.854    528.305    512.854
 71.570   1321.947   1258.429     63.518    512.926   1239.595    512.926    531.592    512.926
 71.670   1392.000   1444.243    -52.243    512.998   1420.911    512.998    536.140    512.998
 71.770   1615.000   1626.453    -11.453    513.069   1596.900    513.069    542.421    513.069
 71.870   1719.000   1781.553    -62.553    513.140   1743.517    513.140    550.980    513.140
 71.970   1954.759   1884.427     70.332    513.210   1835.088    513.210    562.375    513.210
 72.070   1949.624   1916.256     33.368    513.279   1852.311    513.279    577.087    513.279
 72.170   1875.602   1873.255      2.346    513.348   1791.112    513.348    595.394    513.348
 72.270   1755.000   1768.822    -13.822    513.416   1664.951    513.416    617.226    513.416
 72.370   1670.000   1626.602     43.398    513.483   1498.028    513.483    642.025    513.483
 72.470   1515.508   1470.998     44.510    513.550   1315.934    513.550    668.602    513.550
 72.570   1363.000   1321.168     41.832    513.616   1139.769    513.616    695.015    513.616
 72.670   1208.000   1188.792     19.208    513.681    983.947    513.681    718.532    513.681
 72.770   1066.000   1078.139    -12.139    513.746    856.024    513.746    735.867    513.746
 72.870    930.000    987.818    -57.818    513.810    757.674    513.810    743.959    513.810
 72.970    888.000    913.655    -25.655    513.874    686.354    513.874    741.178    513.874
 73.070    863.098    851.403     11.695    513.936    637.207    513.936    728.136    513.936
 73.170    720.000    798.071    -78.071    513.998    604.721    513.998    707.351    513.998
 73.270    702.000    751.931    -49.931    514.060    583.877    514.060    682.116    514.060
 73.370    714.939    712.062      2.877    514.120    570.709    514.120    655.475    514.120
 73.470    715.954    677.992     37.963    514.180    562.419    514.180    629.756    514.180
 73.570    616.000    649.476    -33.476    514.239    557.217    514.239    606.502    514.239
 73.670    577.000    626.323    -49.323    514.298    554.060    514.298    586.566    514.298
 73.770    594.000    608.268    -14.268    514.355    552.393    514.355    570.238    514.355
 73.870    574.000    594.899    -20.899    514.412    551.930    514.412    557.392    514.412
 73.970    583.000    585.652     -2.652    514.468    552.504    514.468    547.631    514.468
 74.070    613.000    579.833     33.167    514.524    553.954    514.524    540.423    514.524
 74.170    572.451    576.662     -4.212    514.578    556.060    514.578    535.206    514.578
 74.270    542.969    575.311    -32.342    514.632    558.504    514.632    531.471    514.632
 74.370    627.000    574.933     52.067    514.685    560.864    514.685    528.792    514.685
 74.470    600.000    574.711     25.289    514.737    562.647    514.737    526.844    514.737
 74.570    697.000    573.937    123.063    514.789    563.378    514.789    525.393    514.789
 74.670    657.000    572.151     84.849    514.839    562.759    514.839    524.277    514.839
 74.770    604.025    569.260     34.765    514.889    560.802    514.889    523.390    514.889
 74.870    588.948    565.519     23.429    514.938    557.832    514.938    522.664    514.938
 74.970    590.000    561.390     28.610    514.986    554.353    514.986    522.056    514.986
 75.070    577.888    557.396     20.491    515.034    550.919    515.034    521.537    515.034
 75.170    545.000    554.046     -9.046    515.080    548.057    515.080    521.089    515.080
 75.270    592.000    551.821     40.179    515.126    546.261    515.126    520.699    515.126
 75.370    573.000    551.190     21.810    515.170    546.011    515.170    520.356    515.170
 75.470    519.406    552.640    -33.235    515.214    547.801    515.214    520.055    515.214
 75.570    569.000    556.686     12.314    515.257    552.151    515.257    519.789    515.257
 75.670    550.000    563.843    -13.843    515.299    559.580    515.299    519.553    515.299
 75.770    597.000    574.547     22.453    515.341    570.528    515.341    519.343    515.341
 75.870    622.357    589.020     33.337    515.381    585.221    515.381    519.156    515.381
 75.970    577.282    607.104    -29.822    515.420    603.504    515.420    518.989    515.420
 76.070    634.000    628.100      5.900    515.459    624.679    515.459    518.839    515.459
 76.170    607.614    650.657    -43.043    515.497    647.399    515.497    518.705    515.497
 76.270    657.145    672.743    -15.598    515.533    669.636    515.533    518.585    515.533
 76.370    737.663    691.746     45.917    515.569    688.777    515.569    518.477    515.569
 76.470    737.001    704.798     32.204    515.604    701.960    515.604    518.379    515.604
 76.570    756.000    709.490     46.510    515.638    706.777    515.638    518.291    515.638
 76.670    699.536    704.818     -5.282    515.671    702.224    515.671    518.211    515.671
 76.770    725.012    691.667     33.345    515.703    689.185    515.703    518.139    515.703
 76.870    649.862    672.370    -22.508    515.734    669.993    515.734    518.074    515.734
 76.970    609.000    649.772    -40.772    515.764    647.494    515.764    518.014    515.764
 77.070    576.000    626.496    -50.496    515.794    624.309    515.794    517.960    515.794
 77.170    612.042    604.584      7.458    515.822    602.480    515.822    517.911    515.822
 77.270    552.068    585.386    -33.318    515.849    583.359    515.849    517.866    515.849
 77.370    566.000    569.579     -3.579    515.875    567.623    515.875    517.825    515.875
 77.470    534.000    557.266    -23.266    515.901    555.375    515.901    517.788    515.901
 77.570    513.000    548.143    -35.143    515.925    546.312    515.925    517.753    515.925
 77.670    576.891    541.673     35.218    515.948    539.898    515.948    517.722    515.948
 77.770    502.537    537.250    -34.713    515.971    535.527    515.971    517.693    515.971
 77.870    534.762    534.304      0.458    515.992    532.629    515.992    517.666    515.992
 77.970    530.000    532.369     -2.369    516.012    530.739    516.012    517.641    516.012
 78.070    524.000    531.096     -7.096    516.031    529.508    516.031    517.618    516.031
 78.170    555.612    530.244     25.368    516.050    528.696    516.050    517.597    516.050
 78.270    542.520    529.662     12.858    516.067    528.151    516.067    517.577    516.067
 78.370    491.941    529.254    -37.314    516.083    527.778    516.083    517.559    516.083
 78.470    504.000    528.954    -24.954    516.098    527.509    516.098    517.542    516.098
 78.570    568.988    528.754     40.234    516.112    527.340    516.112    517.526    516.112
 78.670    536.133    528.683      7.451    516.125    527.296    516.125    517.511    516.125
 78.770    512.000    528.723    -16.723    516.137    527.362    516.137    517.498    516.137
 78.870    543.252    528.893     14.359    516.148    527.554    516.148    517.486    516.148
 78.970    558.752    529.216     29.536    516.158    527.896    516.158    517.477    516.158
 79.070    536.456    529.724      6.732    516.167    528.421    516.167    517.469    516.167
 79.170    548.000    530.450     17.550    516.174    529.159    516.174    517.464    516.174
 79.270    532.000    531.425      0.575    516.181    530.142    516.181    517.462    516.181
 79.370    557.000    532.677     24.323    516.186    531.396    516.186    517.464    516.186
 79.470    564.806    534.232     30.574    516.191    532.948    516.191    517.471    516.191
 79.570    561.773    536.122     25.652    516.194    534.827    516.194    517.484    516.194
 79.670    504.000    538.392    -34.392    516.196    537.080    516.196    517.504    516.196
 79.770    506.000    541.125    -35.125    516.198    539.786    516.198    517.531    516.198
 79.870    566.000    544.454     21.546    516.198    543.080    516.198    517.566    516.198
 79.970    523.000    548.600    -25.600    516.196    547.184    516.196    517.607    516.196
 80.070    554.000    553.891      0.109    516.194    552.426    516.194    517.655    516.194
 80.170    491.000    560.766    -69.766    516.191    559.248    516.191    517.706    516.191
 80.270    547.000    569.723    -22.723    516.187    568.150    516.187    517.759    516.187
 80.370    574.000    581.224     -7.224    516.181    579.599    516.181    517.808    516.181
 80.470    606.066    595.566     10.499    516.174    593.898    516.174    517.848    516.174
 80.570    625.292    612.776     12.516    516.166    611.079    516.166    517.873    516.166
 80.670    628.000    632.519     -4.519    516.157    630.814    516.157    517.878    516.157
 80.770    650.000    654.052     -4.052    516.147    652.362    516.147    517.858    516.147
 80.870    677.000    676.249      0.751    516.136    674.598    516.136    517.813    516.136
 80.970    712.872    697.719     15.153    516.124    696.128    516.124    517.747    516.124
 81.070    694.484    717.015    -22.530    516.110    715.499    516.110    517.666    516.110
 81.170    732.000    732.828     -0.828    516.095    731.395    516.095    517.575    516.095
 81.270    736.000    744.107     -8.107    516.079    742.758    516.079    517.481    516.079
 81.370    774.000    750.139     23.861    516.062    748.873    516.062    517.388    516.062
 81.470    691.000    750.635    -59.635    516.044    749.446    516.044    517.297    516.044
 81.570    801.000    745.742     55.258    516.025    744.621    516.025    517.213    516.025
 81.670    781.000    735.986     45.014    516.004    734.924    516.004    517.135    516.004
 81.770    711.000    722.238    -11.238    515.982    721.226    515.982    517.064    515.982
 81.870    675.091    705.681    -30.591    515.959    704.709    515.959    516.999    515.959
 81.970    734.000    687.642     46.358    515.935    686.703    515.935    516.941    515.935
 82.070    693.000    669.321     23.679    515.910    668.406    515.910    516.888    515.910
 82.170    664.925    651.569     13.356    515.883    650.673    515.883    516.839    515.883
 82.270    692.000    634.848     57.152    515.856    633.966    515.856    516.793    515.856
 82.370    599.000    619.339    -20.339    515.827    618.467    515.827    516.749    515.827
 82.470    569.000    605.121    -36.121    515.796    604.255    515.796    516.707    515.796
 82.570    583.000    592.301     -9.301    515.765    591.439    515.765    516.666    515.765
 82.670    600.000    581.038     18.962    515.733    580.177    515.733    516.626    515.733
 82.770    576.317    571.507      4.809    515.699    570.647    515.699    516.585    515.699
 82.870    547.000    563.863    -16.863    515.664    563.001    515.664    516.545    515.664
 82.970    541.000    558.218    -17.218    515.628    557.353    515.628    516.504    515.628
 83.070    533.000    554.633    -21.633    515.590    553.765    515.590    516.462    515.590
 83.170    532.000    553.101    -21.101    515.552    552.230    515.552    516.420    515.552
 83.270    549.000    553.526     -4.526    515.512    552.650    515.512    516.377    515.512
 83.370    580.000    555.700     24.300    515.471    554.820    515.471    516.334    515.471
 83.470    540.000    559.296    -19.296    515.429    558.410    515.429    516.289    515.429
 83.570    552.285    563.862    -11.577    515.385    562.971    515.385    516.244    515.385
 83.670    548.626    568.837    -20.211    515.341    567.942    515.341    516.198    515.341
 83.770    552.000    573.576    -21.576    515.295    572.677    515.295    516.151    515.295
 83.870    555.000    577.398    -22.398    515.247    576.496    515.247    516.104    515.247
 83.970    568.000    579.678    -11.678    515.199    578.776    515.199    516.055    515.199
 84.070    543.274    579.976    -36.702    515.149    579.075    515.149    516.006    515.149
 84.170    578.000    578.161     -0.161    515.099    577.262    515.099    515.955    515.099
 84.270    535.000    574.443    -39.443    515.046    573.547    515.046    515.904    515.046
 84.370    607.234    569.283     37.951    514.993    568.391    514.993    515.852    514.993
 84.470    538.000    563.257    -25.257    514.938    562.368    514.938    515.799    514.938
 84.570    525.000    556.924    -31.924    514.883    556.039    514.883    515.745    514.883
 84.670    579.869    550.762     29.106    514.826    549.880    514.826    515.690    514.826
 84.770    541.388    545.129     -3.742    514.767    544.248    514.767    515.634    514.767
 84.870    497.000    540.253    -43.253    514.708    539.373    514.708    515.577    514.708
 84.970    493.000    536.240    -43.240    514.647    535.359    514.647    515.519    514.647
 85.070    527.000    533.094     -6.094    514.585    532.212    514.585    515.460    514.585
 85.170    524.000    530.748     -6.748    514.521    529.863    514.521    515.401    514.521
 85.270    518.450    529.094    -10.644    514.457    528.206    514.457    515.340    514.457
 85.370    532.022    528.013      4.009    514.391    527.121    514.391    515.279    514.391
 85.470    511.000    527.398    -16.398    514.324    526.502    514.324    515.216    514.324
 85.570    483.285    527.168    -43.882    514.256    526.266    514.256    515.153    514.256
 85.670    502.000    527.277    -25.277    514.186    526.369    514.186    515.089    514.186
 85.770    554.000    527.721     26.279    514.115    526.807    514.115    515.023    514.115
 85.870    535.000    528.540      6.460    514.043    527.618    514.043    514.957    514.043
 85.970    503.095    529.816    -26.721    513.970    528.886    513.970    514.890    513.970
 86.070    534.000    531.676      2.324    513.895    530.737    513.895    514.823    513.895
 86.170    488.309    534.281    -45.972    513.820    533.332    513.820    514.754    513.820
 86.270    576.000    537.819     38.181    513.742    536.857    513.742    514.684    513.742
 86.370    512.000    542.481    -30.481    513.664    541.505    513.664    514.614    513.664
 86.470    565.000    548.436     16.564    513.585    547.444    513.585    514.543    513.585
 86.570    576.000    555.792     20.208    513.504    554.783    513.504    514.471    513.504
 86.670    545.000    564.556    -19.556    513.422    563.528    513.422    514.398    513.422
 86.770    565.000    574.594     -9.594    513.338    573.545    513.338    514.324    513.338
 86.870    620.000    585.594     34.406    513.254    584.522    513.254    514.250    513.254
 86.970    550.893    597.043    -46.150    513.168    595.949    513.168    514.175    513.168
 87.070    590.000    608.267    -18.267    513.081    607.150    513.081    514.099    513.081
 87.170    637.000    618.422     18.578    512.993    617.285    512.993    514.023    512.993
 87.270    651.232    626.571     24.661    512.903    625.416    512.903    513.945    512.903
 87.370    665.000    631.847     33.153    512.812    630.677    512.812    513.868    512.812
 87.470    586.219    633.649    -47.430    512.720    632.468    512.720    513.789    512.720
 87.570    668.000    631.820     36.180    512.627    630.632    512.627    513.710    512.627
 87.670    672.000    626.693     45.307    512.532    625.500    512.532    513.631    512.532
 87.770    578.355    618.983    -40.628    512.437    617.787    512.437    513.551    512.437
 87.870    665.000    609.615     55.385    512.340    608.416    512.340    513.470    512.340
 87.970    649.000    599.564     49.436    512.241    598.361    512.241    513.390    512.241
 88.070    602.547    589.752     12.795    512.142    588.543    512.142    513.308    512.142
 88.170    613.000    580.976     32.024    512.041    579.759    512.041    513.227    512.041
 88.270    546.406    573.865    -27.460    511.939    572.639    511.939    513.145    511.939
 88.370    590.988    568.855     22.133    511.836    567.617    511.836    513.064    511.836
 88.470    603.000    566.175     36.825    511.732    564.923    511.732    512.982    511.732
 88.570    581.000    565.859     15.141    511.626    564.592    511.626    512.900    511.626
 88.670    592.000    567.756     24.244    511.519    566.471    511.519    512.818    511.519
 88.770    582.272    571.545     10.727    511.411    570.241    511.411    512.737    511.411
 88.870    590.010    576.760     13.250    511.302    575.436    511.302    512.655    511.302
 88.970    561.394    582.811    -21.417    511.191    581.465    511.191    512.575    511.191
 89.070    609.000    589.016     19.984    511.079    587.646    511.079    512.494    511.079
 89.170    601.000    594.639      6.361    510.967    593.242    510.967    512.415    510.967
 89.270    628.000    598.949     29.051    510.852    597.523    510.852    512.336    510.852
 89.370    587.000    601.323    -14.323    510.737    599.863    510.737    512.258    510.737
 89.470    566.000    601.359    -35.359    510.620    599.861    510.620    512.182    510.620
 89.570    588.000    598.973    -10.973    510.503    597.433    510.503    512.107    510.503
 89.670    580.000    594.407    -14.407    510.384    592.819    510.384    512.033    510.384
 89.770    583.000    588.145     -5.145    510.264    586.505    510.264    511.962    510.264
 89.870    629.000    580.782     48.218    510.142    579.084    510.142    511.893    510.142
 89.970    575.000    572.915      2.085    510.020    571.154    510.020    511.827    510.020
 90.070    595.000    565.074     29.926    509.896    563.245    509.896    511.764    509.896
 90.170    568.000    557.681     10.319    509.771    555.780    509.771    511.704    509.771
 90.270    506.232    551.041    -44.809    509.645    549.063    509.645    511.649    509.645
 90.370    559.487    545.339     14.148    509.518    543.278    509.518    511.599    509.518
 90.470    529.000    540.648    -11.648    509.389    538.497    509.389    511.555    509.389
 90.570    506.000    536.954    -30.954    509.260    534.706    509.260    511.519    509.260
 90.670    509.000    534.182    -25.182    509.129    531.828    509.129    511.492    509.129
 90.770    540.000    532.221      7.779    508.997    529.747    508.997    511.476    508.997
 90.870    526.000    530.949     -4.949    508.864    528.341    508.864    511.475    508.864
 90.970    500.000    530.256    -30.256    508.730    527.494    508.730    511.494    508.730
 91.070    538.000    530.056      7.944    508.595    527.114    508.595    511.538    508.595
 91.170    527.000    530.299     -3.299    508.458    527.142    508.458    511.614    508.458
 91.270    524.000    530.974     -6.974    508.320    527.559    508.320    511.734    508.320
 91.370    531.000    532.112     -1.112    508.182    528.382    508.182    511.909    508.182
 91.470    519.000    533.761    -14.761    508.042    529.642    508.042    512.156    508.042
 91.570    554.000    536.117     17.883    507.901    531.517    507.901    512.496    507.901
 91.670    562.000    539.343     22.657    507.759    534.145    507.759    512.950    507.759
 91.770    533.000    543.638    -10.638    507.615    537.698    507.615    513.546    507.615
 91.870    543.000    549.246     -6.246    507.471    542.395    507.471    514.310    507.471
 91.970    580.910    556.421     24.489    507.326    548.457    507.326    515.273    507.326
 92.070    585.000    565.406     19.594    507.179    556.103    507.179    516.462    507.179
 92.170    570.000    576.411     -6.411    507.032    565.515    507.032    517.902    507.032
 92.270    593.000    589.578      3.422    506.883    576.818    506.883    519.612    506.883
 92.370    625.826    604.949     20.877    506.733    590.045    506.733    521.599    506.733
 92.470    608.000    622.441    -14.441    506.582    605.118    506.582    523.861    506.582
 92.570    640.630    641.822     -1.192    506.430    621.825    506.430    526.376    506.430
 92.670    609.000    662.695    -53.695    506.277    639.809    506.277    529.105    506.277
 92.770    698.876    684.495     14.381    506.123    658.566    506.123    531.986    506.123
 92.870    761.000    706.501     54.499    505.968    677.467    505.968    534.932    505.968
 92.970    712.000    727.898    -15.898    505.812    695.810    505.812    537.826    505.812
 93.070    815.000    747.868     67.132    505.655    712.923    505.655    540.524    505.655
 93.170    754.809    765.730    -10.921    505.497    728.295    505.497    542.854    505.497
 93.270    810.018    781.065     28.953    505.338    741.688    505.338    544.637    505.338
 93.370    753.464    793.758    -40.294    505.177    753.154    505.177    545.706    505.177
 93.470    832.000    803.941     28.059    505.016    762.941    505.016    545.943    505.016
 93.570    794.003    811.928    -17.925    504.854    771.401    504.854    545.310    504.854
 93.670    785.119    818.147    -33.028    504.691    778.913    504.691    543.857    504.691
 93.770    917.000    823.127     93.873    504.527    785.877    504.527    541.712    504.527
 93.870    861.000    827.505     33.495    504.361    792.759    504.361    539.044    504.361
 93.970    797.918    832.009    -34.091    504.195    800.108    504.195    536.035    504.195
 94.070    852.000    837.357     14.643    504.028    808.473    504.028    532.853    504.028
 94.170    846.000    844.083      1.917    503.860    818.248    503.860    529.637    503.860
 94.270    890.429    852.360     38.069    503.691    829.494    503.691    526.502    503.691
 94.370    852.000    861.878     -9.878    503.521    841.816    503.521    523.530    503.521
 94.470    953.000    871.824     81.176    503.350    854.344    503.350    520.780    503.350
 94.570    880.000    880.939     -0.939    503.178    865.783    503.178    518.289    503.178
 94.670    912.000    887.661     24.339    503.006    874.553    503.006    516.074    503.006
 94.770    849.991    890.355    -40.363    502.832    879.015    502.832    514.139    502.832
 94.870    882.953    887.620     -4.667    502.658    877.781    502.658    512.472    502.658
 94.970    879.000    878.626      0.374    502.482    870.038    502.482    511.055    502.482
 95.070    835.000    863.339    -28.339    502.306    855.775    502.306    509.862    502.306
 95.170    932.000    842.540     89.460    502.129    835.804    502.129    508.865    502.129
 95.270    854.000    817.652     36.348    501.951    811.574    501.951    508.035    501.951
 95.370    751.319    790.470    -39.151    501.772    784.907    501.772    507.344    501.772
 95.470    842.000    762.931     79.069    501.592    757.767    501.592    506.767    501.592
 95.570    755.000    736.943     18.057    501.411    732.086    501.411    506.282    501.411
 95.670    663.624    714.276    -50.652    501.230    709.666    501.230    505.869    501.230
 95.770    690.000    696.565     -6.565    501.048    692.111    501.048    505.513    501.048
 95.870    673.000    685.199    -12.199    500.865    680.863    500.865    505.202    500.865
 95.970    683.000    681.365      1.635    500.681    677.113    500.681    504.926    500.681
 96.070    713.981    686.051     27.930    500.496    681.854    500.496    504.679    500.496
 96.170    675.000    700.051    -25.051    500.311    695.885    500.311    504.454    500.311
 96.270    755.000    723.952     31.048    500.125    719.795    500.125    504.248    500.125
 96.370    782.000    758.087     23.913    499.938    753.922    499.938    504.058    499.938
 96.470    788.769    802.470    -13.701    499.750    798.281    499.750    503.883    499.750
 96.570    836.000    856.700    -20.700    499.562    852.475    499.562    503.720    499.562
 96.670    901.000    919.843    -18.843    499.372    915.570    499.372    503.568    499.372
 96.770    923.000    990.353    -67.353    499.183    986.021    499.183    503.429    499.183
 96.870   1075.000   1066.002      8.998    498.992   1061.599    498.992    503.302    498.992
 96.970   1083.000   1143.861    -60.861    498.801   1139.377    498.801    503.187    498.801
 97.070   1207.000   1220.339    -13.339    498.609   1215.766    498.609    503.085    498.609
 97.170   1233.000   1291.301    -58.301    498.416   1286.630    498.416    502.994    498.416
 97.270   1437.000   1352.312     84.688    498.223   1347.535    498.223    502.917    498.223
 97.370   1473.718   1399.062     74.656    498.029   1394.169    498.029    502.853    498.029
 97.470   1425.579   1427.968     -2.389    497.834   1422.947    497.834    502.804    497.834
 97.570   1445.000   1436.831      8.169    497.639   1431.669    497.639    502.772    497.639
 97.670   1466.000   1425.289     40.711    497.443   1419.966    497.443    502.757    497.443
 97.770   1349.307   1394.827    -45.520    497.247   1389.323    497.247    502.763    497.247
 97.870   1301.000   1348.390    -47.390    497.050   1342.678    497.050    502.792    497.050
 97.970   1350.000   1289.793     60.207    496.852   1283.842    496.852    502.848    496.852
 98.070   1238.000   1223.190     14.810    496.654   1216.962    496.654    502.936    496.654
 98.170   1199.000   1152.691     46.309    496.456   1146.141    496.456    503.064    496.456
 98.270   1055.000   1082.122    -27.122    496.256   1075.198    496.256    503.241    496.256
 98.370   1073.000   1014.881     58.119    496.057   1007.517    496.057    503.479    496.057
 98.470    985.267    953.864     31.403    495.856    945.979    495.856    503.794    495.856
 98.570    915.000    901.446     13.554    495.655    892.938    495.655    504.209    495.655
 98.670    853.000    859.505     -6.505    495.454    850.246    495.454    504.750    495.454
 98.770    799.000    829.474    -30.474    495.252    819.303    495.252    505.451    495.252
 98.870    758.739    812.414    -53.675    495.050    801.127    495.050    506.355    495.050
 98.970    786.000    809.090    -23.090    494.847    796.431    494.847    507.515    494.847
 99.070    831.000    820.032     10.968    494.644    805.686    494.644    508.990    494.644
 99.170    845.000    845.571     -0.571    494.441    829.153    494.441    510.850    494.441
 99.270    900.000    885.830     14.170    494.237    866.877    494.237    513.174    494.237
 99.370    918.000    940.672    -22.672    494.032    918.640    494.032    516.044    494.032
 99.470    993.000   1009.670    -16.670    493.828    983.928    493.828    519.548    493.828
 99.570   1077.000   1091.958    -14.958    493.623   1061.791    493.623    523.768    493.623
 99.670   1162.000   1186.139    -24.139    493.417   1150.758    493.417    528.780    493.417
 99.770   1313.000   1290.208     22.792    493.211   1248.763    493.211    534.646    493.211
 99.870   1372.424   1401.481    -29.056    493.005   1353.084    493.005    541.403    493.005
 99.970   1547.121   1516.572     30.549    492.799   1460.329    492.799    549.059    492.799
100.070   1641.000   1631.471      9.529    492.592   1566.518    492.592    557.583    492.592
100.170   1726.000   1741.735    -15.735    492.385   1667.284    492.385    566.898    492.385
100.270   1866.000   1842.826     23.174    492.178   1758.217    492.178    576.874    492.178
100.370   2015.000   1930.523     84.477    491.970   1835.285    491.970    587.324    491.970
100.470   2094.000   2001.272     92.728    491.763   1895.185    491.763    597.993    491.763
100.570   2089.000   2052.353     36.647    491.555   1935.516    491.555    608.561    491.555
100.670   2055.000   2081.859    -26.859    491.346   1954.762    491.346    618.635    491.346
100.770   2095.000   2088.645      6.355    491.138   1952.232    491.138    627.762    491.138
100.870   2043.156   2072.430    -29.274    490.929   1928.135    490.929    635.448    490.929
100.970   2105.732   2034.045     71.688    490.721   1883.795    490.721    641.203    490.721
101.070   1951.000   1975.694    -24.694    490.512   1821.839    490.512    644.603    490.512
101.170   1818.426   1900.972    -82.546    490.303   1746.138    490.303    645.370    490.303
101.270   1857.869   1814.537     43.332    490.094   1661.432    490.094    643.424    490.094
101.370   1655.674   1721.556    -65.882    489.885   1572.748    489.885    638.905    489.885
101.470   1583.000   1627.103    -44.103    489.676   1484.833    489.676    632.143    489.676
101.570   1540.000   1535.677      4.323    489.466   1401.737    489.466    623.585    489.466
101.670   1409.000   1450.885    -41.885    489.257   1326.572    489.257    613.732    489.257
101.770   1335.000   1375.289    -40.289    489.048   1261.412    489.048    603.070    489.048
101.870   1251.410   1310.350    -58.940    488.838   1207.283    488.838    592.035    488.838
101.970   1276.000   1256.469     19.531    488.629   1164.214    488.629    581.000    488.629
102.070   1242.000   1213.076     28.924    488.420   1131.335    488.420    570.266    488.420
102.170   1181.093   1178.770      2.323    488.210   1107.011    488.210    560.066    488.210
102.270   1160.000   1151.502      8.498    488.001   1089.021    488.001    550.573    488.001
102.370   1126.000   1128.798     -2.798    487.792   1074.780    487.792    541.898    487.792
102.470   1122.871   1108.040     14.831    487.583   1061.604    487.583    534.106    487.583
102.570   1102.000   1086.782     15.218    487.374   1047.028    487.374    527.215    487.374
102.670   1067.000   1063.068      3.932    487.165   1029.115    487.165    521.207    487.165
102.770   1029.000   1035.667     -6.667    486.957   1006.676    486.957    516.037    486.957
102.870    996.493   1004.152     -7.659    486.748    979.349    486.748    511.640    486.748
102.970    921.000    968.808    -47.808    486.540    947.500    486.540    507.936    486.540
103.070    935.177    930.436      4.740    486.332    912.013    486.332    504.840    486.332
103.170    921.124    890.128     30.996    486.124    874.066    486.124    502.267    486.124
103.270    882.763    849.078     33.685    485.917    834.935    485.917    500.135    485.917
103.370    787.000    808.452    -21.452    485.709    795.863    485.709    498.367    485.709
103.470    751.314    769.297    -17.983    485.502    757.964    485.502    496.897    485.502
103.570    725.000    732.489     -7.489    485.296    722.173    485.296    495.666    485.296
103.670    732.000    698.697     33.303    485.089    689.208    485.089    494.626    485.089
103.770    680.000    668.369     11.631    484.883    659.557    484.883    493.736    484.883
103.870    680.753    641.739     39.014    484.678    633.487    484.678    492.964    484.678
103.970    604.919    618.843    -13.923    484.473    611.059    484.473    492.284    484.473
104.070    624.000    599.552     24.448    484.268    592.165    484.268    491.678    484.268
104.170    587.000    583.618      3.382    484.063    576.570    484.063    491.129    484.063
104.270    545.359    570.707    -25.348    483.859    563.954    483.859    490.626    483.859
104.370    576.000    560.436     15.564    483.656    553.941    483.656    490.161    483.656
104.470    564.188    552.432     11.756    483.453    546.165    483.453    489.727    483.453
104.570    577.021    546.323     30.698    483.250    540.259    483.250    489.320    483.250
104.670    505.761    541.776    -36.016    483.049    535.894    483.049    488.934    483.049
104.770    539.000    538.510      0.490    482.847    532.790    482.847    488.569    482.847
104.870    544.000    536.296      7.704    482.646    530.722    482.646    488.220    482.646
104.970    549.142    534.963     14.180    482.446    529.520    482.446    487.888    482.446
105.070    520.000    534.392    -14.392    482.247    529.066    482.247    487.569    482.247
105.170    562.117    534.515     27.602    482.048    529.295    482.048    487.264    482.048
105.270    558.000    535.310     22.690    481.849    530.183    481.849    486.970    481.849
105.370    541.436    536.798      4.638    481.652    531.754    481.652    486.688    481.652
105.470    521.108    539.029    -17.922    481.455    534.058    481.455    486.417    481.455
105.570    560.000    542.086     17.914    481.259    537.178    481.259    486.155    481.259
105.670    530.628    546.065    -15.437    481.063    541.212    481.063    485.902    481.063
105.770    568.611    551.071     17.540    480.869    546.265    480.869    485.659    480.869
105.870    583.676    557.197     26.479    480.675    552.429    480.675    485.424    480.675
105.970    566.102    564.514      1.588    480.482    559.777    480.482    485.197    480.482
106.070    555.000    573.051    -18.051    480.290    568.338    480.290    484.978    480.290
106.170    595.000    582.789     12.211    480.099    578.093    480.099    484.767    480.099
106.270    592.000    593.643     -1.643    479.908    588.958    479.908    484.562    479.908
106.370    585.000    605.464    -20.464    479.719    600.783    479.719    484.365    479.719
106.470    581.000    618.028    -37.028    479.530    613.346    479.530    484.175    479.530
106.570    577.000    631.047    -54.047    479.343    626.358    479.343    483.992    479.343
106.670    663.391    644.168     19.222    479.156    639.466    479.156    483.816    479.156
106.770    612.000    656.990    -44.990    478.971    652.270    478.971    483.646    478.971
106.870    645.551    669.077    -23.526    478.786    664.336    478.786    483.483    478.786
106.970    724.961    679.992     44.969    478.603    675.223    478.603    483.327    478.603
107.070    711.168    689.328     21.839    478.421    684.528    478.421    483.177    478.421
107.170    681.560    696.767    -15.207    478.239    691.931    478.239    483.034    478.239
107.270    671.000    702.127    -31.127    478.059    697.250    478.059    482.897    478.059
107.370    668.225    705.405    -37.180    477.880    700.482    477.880    482.768    477.880
107.470    702.935    706.786     -3.851    477.703    701.812    477.703    482.645    477.703
107.570    688.000    706.613    -18.613    477.526    701.583    477.526    482.530    477.526
107.670    661.057    705.332    -44.275    477.351    700.240    477.351    482.421    477.351
107.770    657.601    703.421    -45.820    477.177    698.260    477.177    482.320    477.177
107.870    713.440    701.329     12.111    477.004    696.093    477.004    482.226    477.004
107.970    669.000    699.434    -30.434    476.833    694.117    476.833    482.141    476.833
108.070    674.000    698.005    -24.005    476.663    692.600    476.663    482.063    476.663
108.170    748.117    697.190     50.927    476.494    691.691    476.494    481.993    476.494
108.270    699.000    697.007      1.993    476.327    691.405    476.327    481.932    476.327
108.370    642.000    697.339    -55.339    476.161    691.627    476.161    481.879    476.161
108.470    736.628    697.949     38.679    475.997    692.120    475.997    481.836    475.997
108.570    703.936    698.500      5.436    475.834    692.545    475.834    481.803    475.834
108.670    660.000    698.584    -38.584    475.673    692.494    475.673    481.779    475.673
108.770    768.000    697.771     70.229    475.513    691.537    475.513    481.766    475.513
108.870    717.438    695.663     21.775    475.355    689.276    475.355    481.764    475.355
108.970    721.008    691.956     29.053    475.198    685.409    475.198    481.768    475.198
109.070    645.000    686.496    -41.496    475.043    679.774    475.043    481.790    475.043
109.170    649.000    679.281    -30.281    474.890    672.373    474.890    481.824    474.890
109.270    703.924    670.464     33.460    474.738    663.355    474.738    481.873    474.738
109.370    624.000    660.311    -36.311    474.588    652.989    474.588    481.936    474.588
109.470    672.567    649.162     23.405    474.440    641.613    474.440    482.014    474.440
109.570    627.218    637.388    -10.170    474.293    629.597    474.293    482.108    474.293
109.670    656.281    625.357     30.924    474.149    617.307    474.149    482.221    474.149
109.770    612.000    613.415     -1.415    474.006    605.089    474.006    482.352    474.006
109.870    581.760    601.866    -20.106    473.865    593.245    473.865    482.504    473.865
109.970    615.000    590.947     24.053    473.726    582.011    473.726    482.677    473.726
110.070    583.290    580.886      2.404    473.588    571.621    473.588    482.866    473.588
110.170    592.056    571.870     20.187    473.453    562.243    473.453    483.091    473.453
110.270    584.000    563.968     20.032    473.320    553.949    473.320    483.348    473.320
110.370    604.000    557.224     46.776    473.189    546.781    473.189    483.639    473.189
110.470    594.325    551.639     42.686    473.059    540.734    473.059    483.970    473.059
110.570    561.702    547.179     14.523    472.932    535.768    472.932    484.346    472.932
110.670    512.150    543.780    -31.630    472.807    531.813    472.807    484.776    472.807
110.770    575.000    541.362     33.638    472.684    528.779    472.684    485.268    472.684
110.870    512.800    539.837    -27.037    472.563    526.564    472.563    485.835    472.563
110.970    536.000    539.113     -3.113    472.445    525.064    472.445    486.492    472.445
111.070    552.067    539.103     12.963    472.328    524.172    472.328    487.257    472.328
111.170    500.000    539.731    -39.731    472.214    523.789    472.214    488.152    472.214
111.270    526.080    540.933    -14.852    472.102    523.825    472.102    489.205    472.102
111.370    513.118    542.661    -29.543    471.993    524.199    471.993    490.449    471.993
111.470    567.000    544.885     22.115    471.886    524.841    471.886    491.923    471.886
111.570    517.854    547.594    -29.740    471.781    525.694    471.781    493.674    471.781
111.670    548.000    550.794     -2.794    471.679    526.709    471.679    495.756    471.679
111.770    584.570    554.511     30.058    471.579    527.851    471.579    498.231    471.579
111.870    569.000    558.790     10.210    471.481    529.095    471.481    501.169    471.481
111.970    554.000    563.695     -9.695    471.386    530.426    471.386    504.646    471.386
112.070    611.641    569.305     42.336    471.294    531.842    471.294    508.748    471.294
112.170    558.000    575.716    -17.716    471.204    533.348    471.204    513.563    471.204
112.270    595.000    583.039     11.961    471.117    534.960    471.117    519.186    471.117
112.370    602.000    591.388     10.612    471.032    536.701    471.032    525.710    471.032
112.470    598.000    600.888     -2.888    470.950    538.602    470.950    533.227    470.950
112.570    581.000    611.662    -30.662    470.871    540.703    470.871    541.821    470.871
112.670    585.000    623.834    -38.834    470.795    543.052    470.795    551.568    470.795
112.770    658.000    637.523     20.477    470.721    545.711    470.721    562.524    470.721
112.870    702.032    652.845     49.187    470.650    548.758    470.650    574.727    470.650
112.970    649.000    669.911    -20.911    470.582    552.296    470.582    588.188    470.582
113.070    675.000    688.834    -13.834    470.517    556.455    470.517    602.885    470.517
113.170    674.836    709.730    -34.894    470.455    561.412    470.455    618.761    470.455
113.270    697.000    732.729    -35.729    470.396    567.397    470.396    635.716    470.396
113.370    791.857    757.990     33.867    470.340    574.711    470.340    653.605    470.340
113.470    794.000    785.712      8.288    470.286    583.749    470.286    672.233    470.286
113.570    815.000    816.159     -1.159    470.236    595.022    470.236    691.354    470.236
113.670    875.000    849.678     25.322    470.189    609.180    470.189    710.665    470.189
113.770    936.822    886.730     50.092    470.146    627.044    470.146    729.804    470.146
113.870    941.000    927.916     13.084    470.105    649.632    470.105    748.355    470.105
113.970    979.561    974.009      5.552    470.067    678.186    470.067    765.848    470.067
114.070    984.807   1025.985    -41.178    470.033    714.194    470.033    781.771    470.033
114.170   1083.000   1085.061     -2.061    470.002    759.408    470.002    795.589    470.002
114.270   1072.000   1152.726    -80.726    469.975    815.839    469.975    806.780    469.975
114.370   1188.000   1230.774    -42.774    469.950    885.750    469.950    814.871    469.950
114.470   1270.844   1321.311    -50.467    469.929    971.620    469.929    819.494    469.929
114.570   1393.000   1426.747    -33.747    469.912   1076.080    469.912    820.424    469.912
114.670   1584.634   1549.736     34.899    469.898   1201.830    469.898    817.616    469.898
114.770   1640.139   1693.062    -52.922    469.888   1351.520    469.888    811.203    469.888
114.870   1893.000   1859.480     33.520    469.881   1527.603    469.881    801.489    469.881
114.970   2132.000   2051.502     80.498    469.877   1732.167    469.877    788.897    469.877
115.070   2305.000   2271.160     33.840    469.878   1966.740    469.878    773.932    469.878
115.170   2540.000   2519.760     20.240    469.882   2232.096    469.882    757.127    469.882
115.270   2835.000   2797.645     37.355    469.890   2528.053    469.890    739.009    469.890
115.370   3124.000   3103.995     20.005    469.901   2853.298    469.901    720.073    469.901
115.470   3415.000   3436.655    -21.655    469.916   3205.235    469.916    700.762    469.916
115.570   3705.000   3792.030    -87.030    469.935   3579.880    469.935    681.466    469.935
115.670   4108.000   4165.026    -57.026    469.958   3971.809    469.958    662.517    469.958
115.770   4441.000   4549.065   -108.065    469.985   4374.173    469.985    644.191    469.985
115.870   4826.162   4936.168   -110.006    470.016   4778.774    470.016    626.708    470.016
115.970   5433.755   5317.108    116.647    470.050   5176.217    470.050    610.239    470.050
116.070   5764.454   5681.638     82.816    470.089   5556.135    470.089    594.904    470.089
116.170   5955.806   6018.811    -63.005    470.132   5907.504    470.132    580.782    470.132
116.270   6284.298   6317.413    -33.114    470.179   6219.070    470.179    567.913    470.179
116.370   6480.000   6566.519    -86.519    470.230   6479.905    470.230    556.302    470.230
116.470   6606.207   6756.201   -149.994    470.285   6680.104    470.285    545.924    470.285
116.570   6996.030   6878.327    117.704    470.345   6811.579    470.345    536.730    470.345
116.670   6930.000   6927.348      2.652    470.409   6868.845    470.409    528.656    470.409
116.770   6997.000   6900.916     96.084    470.477   6849.628    470.477    521.619    470.477
116.870   6878.000   6800.144     77.856    470.549   6755.125    470.549    515.533    470.549
116.970   6626.000   6629.450     -3.450    470.626   6589.843    470.626    510.303    470.626
117.070   6456.000   6396.044     59.956    470.707   6361.081    470.707    505.836    470.707
117.170   6174.000   6109.206     64.794    470.793   6078.207    470.793    502.039    470.793
117.270   5592.000   5779.390   -187.390    470.883   5751.761    470.883    498.827    470.883
117.370   5374.798   5417.569    -42.771    470.978   5392.796    470.978    496.117    470.978
117.470   4924.000   5034.625   -110.625    471.078   5012.268    471.078    493.837    471.078
117.570   4665.706   4640.892     24.814    471.182   4620.575    471.182    491.920    471.182
117.670   4364.000   4245.812    118.188    471.291   4227.222    471.291    490.308    471.291
117.770   3950.000   3857.697     92.303    471.404   3840.570    471.404    488.952    471.404
117.870   3557.397   3483.563     73.834    471.523   3467.682    471.523    487.808    471.523
117.970   3224.000   3129.046     94.954    471.646   3114.230    471.646    486.841    471.646
118.070   2864.094   2798.388     65.706    471.774   2784.491    471.774    486.020    471.774
118.170   2483.871   2494.487    -10.615    471.907   2481.387    471.907    485.320    471.907
118.270   2193.061   2218.997    -25.936    472.045   2206.597    472.045    484.722    472.045
118.370   1978.729   1972.475      6.254    472.188   1960.694    472.188    484.208    472.188
118.470   1727.000   1754.544    -27.544    472.336   1743.316    472.336    483.766    472.336
118.570   1552.526   1564.073    -11.547    472.489   1553.345    472.489    483.385    472.489
118.670   1367.951   1399.359    -31.408    472.647   1389.086    472.647    483.057    472.647
118.770   1209.000   1258.302    -49.302    472.811   1248.447    472.811    482.774    472.811
118.870   1179.000   1138.564     40.436    472.979   1129.096    472.979    482.533    472.979
118.970   1048.334   1037.714     10.620    473.153   1028.605    473.153    482.327    473.153
119.070    926.711    953.339    -26.628    473.333    944.564    473.333    482.155    473.333
119.170    936.000    883.136     52.864    473.517    874.674    473.517    482.014    473.517
119.270    822.000    824.977     -2.977    473.707    816.808    473.707    481.900    473.707
119.370    786.994    776.945     10.048    473.903    769.051    473.903    481.814    473.903
119.470    744.000    737.355      6.645    474.104    729.718    474.104    481.753    474.104
119.570    693.000    704.754    -11.754    474.311    697.356    474.311    481.716    474.311
119.670    634.890    677.911    -43.021    474.523    670.735    474.523    481.703    474.523
119.770    649.741    655.799     -6.058    474.741    648.829    474.741    481.714    474.741
119.870    671.195    637.576     33.619    474.965    630.795    474.965    481.748    474.965
119.970    665.364    622.553     42.810    475.194    615.945    475.194    481.805    475.194
120.070    584.000    610.180    -26.180    475.429    603.727    475.429    481.884    475.429
120.170    576.965    600.015    -23.050    475.670    593.700    475.670    481.987    475.670
120.270    558.000    591.709    -33.709    475.917    585.515    475.917    482.114    475.917
120.370    571.000    584.986    -13.986    476.170    578.894    476.170    482.265    476.170
120.470    570.000    579.630     -9.630    476.429    573.622    476.429    482.440    476.429
120.570    591.064    575.473     15.590    476.694    569.530    476.694    482.641    476.694
120.670    577.000    572.384      4.616    476.965    566.485    476.965    482.868    476.965
120.770    523.215    570.258    -47.043    477.242    564.385    477.242    483.121    477.242
120.870    571.000    569.016      1.984    477.526    563.146    477.526    483.402    477.526
120.970    552.000    568.593    -16.593    477.816    562.705    477.816    483.710    477.816
121.070    581.000    568.933     12.067    478.112    563.005    478.112    484.047    478.112
121.170    612.000    569.989     42.011    478.414    564.000    478.414    484.412    478.414
121.270    518.000    571.715    -53.715    478.723    565.642    478.723    484.806    478.723
121.370    590.342    574.066     16.277    479.038    567.887    479.038    485.229    479.038
121.470    621.142    576.990     44.152    479.360    570.684    479.360    485.680    479.360
121.570    576.000    580.433     -4.433    479.688    573.979    479.688    486.158    479.688
121.670    591.000    584.332      6.668    480.023    577.710    480.023    486.662    480.023
121.770    562.348    588.614    -26.265    480.364    581.807    480.364    487.192    480.364
121.870    565.033    593.198    -28.166    480.713    586.191    480.713    487.744    480.713
121.970    612.000    597.996     14.004    481.068    590.773    481.068    488.316    481.068
122.070    634.000    602.905     31.095    481.429    595.458    481.429    488.906    481.429
122.170    597.000    607.820    -10.820    481.798    600.140    481.798    489.510    481.798
122.270    620.680    612.626      8.054    482.174    604.710    482.174    490.124    482.174
122.370    621.434    617.205      4.230    482.556    609.054    482.556    490.744    482.556
122.470    663.000    621.437     41.563    482.946    613.059    482.946    491.364    482.946
122.570    700.000    625.209     74.791    483.343    616.614    483.343    491.980    483.343
122.670    640.000    628.415     11.585    483.747    619.622    483.747    492.584    483.747
122.770    639.000    630.964      8.036    484.158    621.996    484.158    493.172    484.158
122.870    681.000    632.789     48.211    484.576    623.676    484.576    493.736    484.576
122.970    633.692    633.847     -0.155    485.002    624.625    485.002    494.272    485.002
123.070    628.000    634.123     -6.123    485.435    624.833    485.435    494.773    485.435
123.170    650.000    633.633     16.367    485.875    624.320    485.875    495.236    485.875
123.270    645.000    632.415     12.585    486.323    623.127    486.323    495.658    486.323
123.370    580.000    630.529    -50.529    486.778    621.315    486.778    496.038    486.778
123.470    673.000    628.051     44.949    487.241    618.959    487.241    496.377    487.241
123.570    639.000    625.065     13.935    487.712    616.143    487.712    496.677    487.712
123.670    657.222    621.662     35.560    488.190    612.951    488.190    496.941    488.190
123.770    628.000    617.933     10.067    488.676    609.470    488.676    497.176    488.676
123.870    641.000    613.965     27.035    489.170    605.782    489.170    497.387    489.170
123.970    569.536    609.841    -40.305    489.672    601.964    489.672    497.579    489.672
124.070    628.000    605.636     22.364    490.181    598.085    490.181    497.760    490.181
124.170    594.000    601.413     -7.413    490.699    594.203    490.699    497.934    490.699
124.270    581.080    597.227    -16.146    491.225    590.365    491.225    498.108    491.225
124.370    546.000    593.118    -47.118    491.758    586.609    491.758    498.286    491.758
124.470    588.000    589.116     -1.116    492.300    582.960    492.300    498.473    492.300
124.570    543.610    585.242    -41.632    492.850    579.433    492.850    498.673    492.850
124.670    567.956    581.504    -13.548    493.408    576.036    493.408    498.889    493.408
124.770    582.000    577.906      4.094    493.975    572.767    493.975    499.124    493.975
124.870    553.000    574.444    -21.444    494.550    569.622    494.550    499.380    494.550
124.970    557.000    571.113    -14.113    495.134    566.593    495.134    499.660    495.134
