neutron_powder_diffraction_0072
R_wp: 4.724
Temperature (K): 754.798
Counts: 83632.00
Wavelength (Ã…): 2.52098
COMMENTS
Test file for demonstrating the .xyy file format in Reel1.0
END OF HEADER
   tth       Y_obs     Y_calc      Y_res    Background    Phase_1_Nuc    Phase_1_Mag    Phase_2_Nuc    Phase_2_Mag
  9.970    641.943    607.689     34.254    606.568    607.688    606.568    606.568    606.568
 10.070    702.000    608.689     93.311    607.479    608.689    607.479    607.479    607.479
 10.170    659.000    609.688     49.312    608.374    609.688    608.374    608.374    608.374
 10.270    697.000    610.686     86.314    609.254    610.686    609.254    609.254    609.254
 10.370    634.000    611.686     22.314    610.118    611.685    610.118    610.118    610.118
 10.470    665.000    612.691     52.309    610.966    612.690    610.966    610.966    610.966
 10.570    687.000    613.713     73.287    611.799    613.712    611.799    611.799    611.799
 10.670    568.868    614.802    -45.934    612.617    614.801    612.617    612.617    612.617
 10.770    637.000    615.978     21.022    613.420    615.976    613.420    613.420    613.420
 10.870    665.084    617.092     47.992    614.207    617.091    614.207    614.207    614.207
 10.970    636.794    618.252     18.541    614.980    618.251    614.980    614.980    614.980
 11.070    661.918    619.492     42.426    615.738    619.490    615.738    615.738    615.738
 11.170    584.521    620.842    -36.321    616.481    620.840    616.481    616.481    616.481
 11.270    674.000    622.354     51.646    617.210    622.351    617.210    617.210    617.210
 11.370    627.000    624.108      2.892    617.924    624.105    617.924    617.924    617.924
 11.470    602.001    626.266    -24.265    618.624    626.262    618.624    618.624    618.624
 11.570    703.000    629.201     73.799    619.310    629.196    619.310    619.310    619.310
 11.670    604.879    633.795    -28.916    619.981    633.788    619.981    619.981    619.981
 11.770    593.643    641.862    -48.219    620.638    641.851    620.638    620.638    620.638
 11.870    691.370    656.267     35.103    621.282    656.247    621.282    621.282    621.282
 11.970    721.000    679.867     41.133    621.912    679.834    621.912    621.912    621.912
 12.070    723.000    712.656     10.344    622.528    712.605    622.528    622.528    622.528
 12.170    757.000    747.316      9.684    623.130    747.246    623.130    623.130    623.130
 12.270    769.000    766.726      2.274    623.719    766.645    623.719    623.719    623.719
 12.370    796.868    757.065     39.803    624.295    756.990    624.295    624.295    624.295
 12.470    666.390    726.699    -60.309    624.857    726.641    624.857    624.857    624.857
 12.570    692.491    693.449     -0.958    625.406    693.410    625.406    625.406    625.406
 12.670    677.000    667.779      9.221    625.942    667.756    625.942    625.942    625.942
 12.770    658.000    651.688      6.312    626.465    651.674    626.465    626.465    626.465
 12.870    684.023    642.950     41.074    626.975    642.941    626.975    626.975    626.975
 12.970    568.000    638.576    -70.576    627.473    638.570    627.473    627.473    627.473
 13.070    617.000    636.356    -19.356    627.958    636.351    627.958    627.958    627.958
 13.170    601.000    635.149    -34.149    628.430    635.146    628.430    628.430    628.430
 13.270    634.000    634.450     -0.450    628.890    634.447    628.890    628.890    628.890
 13.370    605.000    634.041    -29.041    629.337    634.039    629.337    629.337    629.337
 13.470    620.000    633.819    -13.819    629.772    633.817    629.772    629.772    629.772
 13.570    685.368    633.728     51.640    630.195    633.726    630.195    630.195    630.195
 13.670    624.449    633.732     -9.283    630.606    633.730    630.606    630.606    630.606
 13.770    630.000    633.797     -3.797    631.006    633.796    631.006    631.006    631.006
 13.870    590.000    633.911    -43.911    631.393    633.910    631.393    631.393    631.393
 13.970    649.000    634.059     14.941    631.768    634.058    631.768    631.768    631.768
 14.070    617.000    634.232    -17.232    632.132    634.232    632.132    632.132    632.132
 14.170    693.648    634.424     59.224    632.484    634.423    632.484    632.484    632.484
 14.270    635.786    634.627      1.159    632.825    634.627    632.825    632.825    632.825
 14.370    623.000    634.839    -11.839    633.155    634.838    633.155    633.155    633.155
 14.470    609.000    635.056    -26.056    633.473    635.055    633.473    633.473    633.473
 14.570    628.000    635.274     -7.274    633.780    635.274    633.780    633.780    633.780
 14.670    631.713    635.496     -3.783    634.076    635.496    634.076    634.076    634.076
 14.770    616.000    635.746    -19.746    634.361    635.745    634.361    634.361    634.361
 14.870    622.000    636.013    -14.013    634.635    636.012    634.635    634.635    634.635
 14.970    599.000    636.229    -37.229    634.898    636.229    634.898    634.898    634.898
 15.070    661.000    636.438     24.562    635.151    636.437    635.151    635.151    635.151
 15.170    628.000    636.640     -8.640    635.393    636.639    635.393    635.393    635.393
 15.270    623.000    636.835    -13.835    635.625    636.835    635.625    635.625    635.625
 15.370    634.523    637.024     -2.501    635.846    637.024    635.846    635.846    635.846
 15.470    697.901    637.209     60.692    636.057    637.209    636.057    636.057    636.057
 15.570    613.000    637.397    -24.397    636.258    637.397    636.258    636.258    636.258
 15.670    638.000    637.573      0.427    636.448    637.573    636.448    636.448    636.448
 15.770    669.657    637.734     31.923    636.629    637.734    636.629    636.629    636.629
 15.870    604.128    637.886    -33.758    636.799    637.886    636.799    636.799    636.799
 15.970    652.795    638.031     14.764    636.960    638.031    636.960    636.960    636.960
 16.070    690.029    638.171     51.858    637.111    638.171    637.111    637.111    637.111
 16.170    653.169    638.336     14.833    637.252    638.336    637.252    637.252    637.252
 16.270    556.000    638.491    -82.491    637.384    638.490    637.384    637.384    637.384
 16.370    662.894    638.606     24.287    637.506    638.606    637.506    637.506    637.506
 16.470    610.000    638.711    -28.711    637.619    638.711    637.619    637.619    637.619
 16.570    599.000    638.810    -39.810    637.722    638.810    637.722    637.722    637.722
 16.670    609.000    638.925    -29.925    637.816    638.924    637.816    637.816    637.816
 16.770    602.000    639.010    -37.010    637.902    639.009    637.902    637.902    637.902
 16.870    676.689    639.093     37.596    637.978    639.093    637.978    637.978    637.978
 16.970    647.000    639.160      7.840    638.045    639.160    638.045    638.045    638.045
 17.070    620.832    639.216    -18.383    638.103    639.216    638.103    638.103    638.103
 17.170    678.213    639.264     38.950    638.152    639.264    638.152    638.152    638.152
 17.270    584.000    639.304    -55.304    638.193    639.304    638.193    638.193    638.193
 17.370    615.932    639.336    -23.404    638.225    639.336    638.225    638.225    638.225
 17.470    641.350    639.360      1.989    638.249    639.360    638.249    638.249    638.249
 17.570    687.516    639.383     48.133    638.264    639.383    638.264    638.264    638.264
 17.670    606.000    639.419    -33.419    638.270    639.418    638.270    638.270    638.270
 17.770    620.000    639.428    -19.428    638.269    639.428    638.269    638.269    638.269
 17.870    586.967    639.449    -52.483    638.259    639.449    638.259    638.259    638.259
 17.970    623.000    639.472    -16.472    638.241    639.472    638.241    638.241    638.241
 18.070    647.000    639.458      7.542    638.215    639.458    638.215    638.215    638.215
 18.170    692.708    639.465     53.242    638.181    639.465    638.181    638.181    638.181
 18.270    599.294    639.465    -40.171    638.139    639.465    638.139    638.139    638.139
 18.370    626.000    639.426    -13.426    638.090    639.426    638.090    638.090    638.090
 18.470    607.178    639.385    -32.207    638.032    639.385    638.032    638.032    638.032
 18.570    608.000    639.354    -31.354    637.967    639.354    637.967    637.967    637.967
 18.670    675.085    639.296     35.788    637.895    639.296    637.895    637.895    637.895
 18.770    578.000    639.268    -61.268    637.815    639.268    637.815    637.815    637.815
 18.870    606.000    639.203    -33.203    637.728    639.202    637.728    637.728    637.728
 18.970    653.000    639.119     13.881    637.633    639.119    637.633    637.633    637.633
 19.070    643.000    639.028      3.972    637.531    639.028    637.531    637.531    637.531
 19.170    621.000    638.931    -17.931    637.422    638.930    637.422    637.422    637.422
 19.270    688.471    638.828     49.643    637.306    638.828    637.306    637.306    637.306
 19.370    569.000    638.722    -69.722    637.183    638.722    637.183    637.183    637.183
 19.470    569.000    638.608    -69.608    637.052    638.608    637.052    637.052    637.052
 19.570    670.522    638.487     32.036    636.915    638.487    636.915    636.915    636.915
 19.670    618.269    638.362    -20.093    636.772    638.362    636.772    636.772    636.772
 19.770    580.049    638.237    -58.187    636.621    638.237    636.621    636.621    636.621
 19.870    567.000    638.096    -71.096    636.464    638.096    636.464    636.464    636.464
 19.970    626.000    637.949    -11.949    636.301    637.949    636.301    636.301    636.301
 20.070    600.000    637.797    -37.797    636.131    637.797    636.131    636.131    636.131
 20.170    574.000    637.640    -63.640    635.954    637.640    635.954    635.954    635.954
 20.270    602.000    637.476    -35.476    635.771    637.476    635.771    635.771    635.771
 20.370    626.000    637.307    -11.307    635.582    637.307    635.582    635.582    635.582
 20.470    600.000    637.135    -37.135    635.387    637.135    635.387    635.387    635.387
 20.570    685.037    636.955     48.082    635.186    636.955    635.186    635.186    635.186
 20.670    621.000    636.771    -15.771    634.978    636.771    634.978    634.978    634.978
 20.770    685.798    636.583     49.215    634.765    636.583    634.765    634.765    634.765
 20.870    604.000    636.389    -32.389    634.546    636.389    634.546    634.546    634.546
 20.970    615.000    636.190    -21.190    634.321    636.190    634.321    634.321    634.321
 21.070    683.988    635.987     48.000    634.090    635.988    634.090    634.090    634.090
 21.170    603.000    635.781    -32.781    633.853    635.781    633.853    633.853    633.853
 21.270    660.000    635.569     24.431    633.611    635.570    633.611    633.611    633.611
 21.370    639.887    635.355      4.533    633.364    635.355    633.364    633.364    633.364
 21.470    631.000    635.136     -4.136    633.110    635.136    633.110    633.110    633.110
 21.570    614.000    634.915    -20.915    632.852    634.915    632.852    632.852    632.852
 21.670    598.000    634.690    -36.690    632.588    634.690    632.588    632.588    632.588
 21.770    559.000    634.463    -75.463    632.319    634.463    632.319    632.319    632.319
 21.870    671.878    634.233     37.645    632.045    634.233    632.045    632.045    632.045
 21.970    610.000    634.003    -24.003    631.765    634.003    631.765    631.765    631.765
 22.070    602.000    633.771    -31.771    631.481    633.771    631.481    631.481    631.481
 22.170    582.000    633.538    -51.538    631.191    633.538    631.191    631.191    631.191
 22.270    683.924    633.303     50.620    630.897    633.304    630.897    630.897    630.897
 22.370    659.953    633.070     26.883    630.598    633.070    630.598    630.598    630.598
 22.470    663.103    632.838     30.264    630.293    632.839    630.293    630.293    630.293
 22.570    682.033    632.608     49.425    629.985    632.608    629.985    629.985    629.985
 22.670    556.000    632.381    -76.381    629.671    632.381    629.671    629.671    629.671
 22.770    639.000    632.160      6.840    629.353    632.160    629.353    629.353    629.353
 22.870    614.000    631.944    -17.944    629.031    631.945    629.031    629.031    629.031
 22.970    633.284    631.737      1.547    628.703    631.738    628.703    628.703    628.703
 23.070    600.000    631.541    -31.541    628.372    631.541    628.372    628.372    628.372
 23.170    633.000    631.359      1.641    628.036    631.360    628.036    628.036    628.036
 23.270    642.377    631.196     11.181    627.696    631.197    627.696    627.696    627.696
 23.370    643.385    631.058     12.328    627.352    631.059    627.352    627.352    627.352
 23.470    576.713    630.951    -54.238    627.003    630.952    627.003    627.003    627.003
 23.570    686.289    630.886     55.403    626.651    630.887    626.651    626.651    626.651
 23.670    608.000    630.877    -22.877    626.294    630.878    626.294    626.294    626.294
 23.770    670.000    630.944     39.056    625.933    630.946    625.933    625.933    625.933
 23.870    611.000    631.114    -20.114    625.569    631.116    625.569    625.569    625.569
 23.970    637.000    631.435      5.565    625.201    631.438    625.201    625.201    625.201
 24.070    630.243    631.998     -1.755    624.829    632.001    624.829    624.829    624.829
 24.170    685.238    632.983     52.254    624.453    632.987    624.453    624.453    624.453
 24.270    628.000    634.840     -6.840    624.073    634.845    624.073    624.073    624.073
 24.370    631.922    638.485     -6.563    623.690    638.493    623.690    623.690    623.690
 24.470    676.000    645.461     30.539    623.303    645.475    623.303    623.303    623.303
 24.570    701.656    657.593     44.063    622.913    657.615    622.913    622.913    622.913
 24.670    684.388    675.724      8.663    622.519    675.759    622.519    622.519    622.519
 24.770    733.259    697.465     35.794    622.122    697.516    622.122    622.122    622.122
 24.870    711.000    715.004     -4.004    621.722    715.068    621.722    621.722    621.722
 24.970    768.972    717.881     51.091    621.319    717.947    621.319    621.319    621.319
 25.070    696.000    703.589     -7.589    620.912    703.645    620.912    620.912    620.912
 25.170    751.000    681.303     69.697    620.502    681.344    620.502    620.502    620.502
 25.270    628.403    660.788    -32.385    620.089    660.814    620.089    620.089    620.089
 25.370    599.472    646.065    -46.593    619.673    646.081    619.673    619.673    619.673
 25.470    614.245    637.025    -22.780    619.254    637.035    619.254    619.254    619.254
 25.570    672.000    631.945     40.055    618.832    631.951    618.832    618.832    618.832
 25.670    582.652    629.097    -46.445    618.407    629.101    618.407    618.407    618.407
 25.770    661.676    627.359     34.318    617.979    627.362    617.979    617.979    617.979
 25.870    645.855    626.167     19.688    617.549    626.169    617.549    617.549    617.549
 25.970    631.000    625.276      5.724    617.115    625.278    617.115    617.115    617.115
 26.070    664.692    624.581     40.110    616.679    624.583    616.679    616.679    616.679
 26.170    678.000    624.032     53.968    616.241    624.033    616.241    616.241    616.241
 26.270    681.603    623.602     58.001    615.800    623.603    615.800    615.800    615.800
 26.370    583.417    623.277    -39.860    615.357    623.277    615.357    615.357    615.357
 26.470    661.000    623.050     37.950    614.911    623.050    614.911    614.911    614.911
 26.570    717.000    622.920     94.080    614.462    622.920    614.462    614.462    614.462
 26.670    683.012    622.895     60.117    614.012    622.895    614.012    614.012    614.012
 26.770    726.000    622.986    103.014    613.559    622.985    613.559    613.559    613.559
 26.870    645.000    623.211     21.789    613.103    623.210    613.103    613.103    613.103
 26.970    703.000    623.599     79.401    612.646    623.598    612.646    612.646    612.646
 27.070    674.956    624.189     50.767    612.186    624.188    612.186    612.186    612.186
 27.170    686.140    625.036     61.103    611.725    625.035    611.725    611.725    611.725
 27.270    716.000    626.222     89.778    611.261    626.220    611.261    611.261    611.261
 27.370    704.000    627.869     76.131    610.795    627.867    610.795    610.795    610.795
 27.470    757.000    630.186    126.814    610.328    630.183    610.328    610.328    610.328
 27.570    647.249    633.609     13.640    609.858    633.605    609.858    609.858    609.858
 27.670    745.000    639.208    105.792    609.387    639.202    609.387    609.387    609.387
 27.770    745.000    649.596     95.404    608.914    649.588    608.914    608.914    608.914
 27.870    744.000    670.185     73.815    608.439    670.170    608.439    608.439    608.439
 27.970    832.000    709.306    122.694    607.962    709.279    607.962    607.962    607.962
 28.070    841.000    774.504     66.496    607.484    774.460    607.484    607.484    607.484
 28.170    910.000    863.763     46.237    607.004    863.696    607.004    607.004    607.004
 28.270   1053.000    954.336     98.664    606.523    954.251    606.523    606.523    606.523
 28.370   1047.000   1000.450     46.550    606.040   1000.368    606.040    606.040    606.040
 28.470   1060.000    972.633     87.367    605.555    972.575    605.555    605.555    605.555
 28.570    831.536    903.219    -71.683    605.069    903.186    605.069    605.069    605.069
 28.670    865.941    844.069     21.872    604.582    844.050    604.582    604.582    604.582
 28.770    930.000    823.512    106.488    604.093    823.495    604.093    604.093    604.093
 28.870    986.000    842.238    143.762    603.604    842.219    603.604    603.604    603.604
 28.970    946.000    878.143     67.857    603.112    878.124    603.112    603.112    603.112
 29.070    978.000    894.117     83.883    602.620    894.104    602.620    602.620    602.620
 29.170    988.000    865.413    122.587    602.127    865.412    602.127    602.127    602.127
 29.270    758.779    805.953    -47.173    601.632    805.960    601.632    601.632    601.632
 29.370    752.681    743.537      9.143    601.136    743.546    601.136    601.136    601.136
 29.470    689.661    694.176     -4.515    600.639    694.183    600.639    600.639    600.639
 29.570    697.680    661.364     36.315    600.142    661.368    600.142    600.142    600.142
 29.670    706.000    641.936     64.064    599.643    641.937    599.643    599.643    599.643
 29.770    587.514    631.002    -43.488    599.143    631.001    599.143    599.143    599.143
 29.870    776.000    624.674    151.326    598.643    624.673    598.643    598.643    598.643
 29.970    723.000    620.697    102.303    598.142    620.695    598.142    598.142    598.142
 30.070    768.000    618.005    149.995    597.640    618.002    597.640    597.640    597.640
 30.170    726.000    616.172    109.828    597.137    616.168    597.137    597.137    597.137
 30.270    626.404    615.101     11.302    596.633    615.098    596.633    596.633    596.633
 30.370    633.503    614.950     18.552    596.129    614.945    596.129    596.129    596.129
 30.470    708.000    616.180     91.820    595.624    616.173    595.624    595.624    595.624
 30.570    644.000    619.598     24.402    595.119    619.587    595.119    595.119    595.119
 30.670    657.507    626.192     31.315    594.613    626.176    594.613    594.613    594.613
 30.770    727.000    636.597     90.403    594.107    636.572    594.107    594.107    594.107
 30.870    690.000    650.146     39.854    593.600    650.111    593.600    593.600    593.600
 30.970    749.000    663.604     85.396    593.092    663.560    593.092    593.092    593.092
 31.070    719.000    670.804     48.196    592.585    670.757    592.585    592.585    592.585
 31.170    660.521    666.940     -6.419    592.077    666.897    592.077    592.077    592.077
 31.270    692.035    654.202     37.832    591.568    654.169    591.568    591.568    591.568
 31.370    684.000    638.802     45.198    591.060    638.779    591.060    591.060    591.060
 31.470    654.000    625.337     28.663    590.551    625.322    590.551    590.551    590.551
 31.570    634.000    615.502     18.498    590.042    615.492    590.042    590.042    590.042
 31.670    604.000    609.121     -5.121    589.532    609.114    589.532    589.532    589.532
 31.770    655.000    605.264     49.736    589.023    605.259    589.023    589.023    589.023
 31.870    579.000    602.967    -23.967    588.513    602.963    588.513    588.513    588.513
 31.970    607.000    601.547      5.453    588.004    601.544    588.004    588.004    588.004
 32.070    573.712    600.623    -26.912    587.494    600.621    587.494    587.494    587.494
 32.170    628.997    600.012     28.985    586.985    600.010    586.985    586.985    586.985
 32.270    620.000    599.637     20.363    586.475    599.635    586.475    586.475    586.475
 32.370    632.000    599.470     32.530    585.966    599.468    585.966    585.966    585.966
 32.470    588.000    599.509    -11.509    585.456    599.507    585.456    585.456    585.456
 32.570    605.884    599.765      6.119    584.947    599.763    584.947    584.947    584.947
 32.670    595.000    600.268     -5.268    584.438    600.265    584.438    584.438    584.438
 32.770    606.000    601.061      4.939    583.929    601.058    583.929    583.929    583.929
 32.870    647.217    602.210     45.007    583.420    602.208    583.420    583.420    583.420
 32.970    589.000    603.813    -14.813    582.912    603.810    582.912    582.912    582.912
 33.070    612.000    606.019      5.981    582.404    606.016    582.404    582.404    582.404
 33.170    548.755    609.081    -60.326    581.896    609.078    581.896    581.896    581.896
 33.270    624.000    613.484     10.516    581.389    613.480    581.389    581.389    581.389
 33.370    587.000    620.212    -33.212    580.882    620.207    580.882    580.882    580.882
 33.470    653.062    631.230     21.832    580.376    631.223    580.376    580.376    580.376
 33.570    620.000    650.052    -30.052    579.870    650.041    579.870    579.870    579.870
 33.670    665.092    681.946    -16.853    579.364    681.929    579.364    579.364    579.364
 33.770    706.000    732.952    -26.952    578.859    732.926    578.859    578.859    578.859
 33.870    834.885    806.992     27.893    578.355    806.954    578.355    578.355    578.355
 33.970    864.754    900.867    -36.114    577.851    900.818    577.851    577.851    577.851
 34.070    966.000    997.490    -31.490    577.348    997.434    577.348    577.348    577.348
 34.170   1015.000   1062.709    -47.709    576.845   1062.658    576.845    576.845    576.845
 34.270    994.734   1062.772    -68.039    576.343   1062.737    576.343    576.343    576.343
 34.370   1012.000    997.300     14.700    575.842    997.281    575.842    575.842    575.842
 34.470    899.898    899.775      0.123    575.341    899.766    575.341    575.341    575.341
 34.570    825.593    804.595     20.998    574.842    804.592    574.842    574.842    574.842
 34.670    732.344    729.121      3.224    574.343    729.119    574.343    574.343    574.343
 34.770    661.000    676.705    -15.705    573.844    676.704    573.844    573.844    573.844
 34.870    633.000    643.489    -10.489    573.347    643.488    573.347    573.347    573.347
 34.970    573.000    623.433    -50.433    572.851    623.432    572.851    572.851    572.851
 35.070    568.000    611.244    -43.244    572.355    611.243    572.355    572.355    572.355
 35.170    627.000    603.377     23.623    571.861    603.375    571.861    571.861    571.861
 35.270    596.000    597.847     -1.847    571.367    597.846    571.367    571.367    571.367
 35.370    645.390    593.656     51.734    570.874    593.655    570.874    570.874    570.874
 35.470    534.943    590.314    -55.371    570.383    590.313    570.383    570.383    570.383
 35.570    551.000    587.561    -36.561    569.892    587.560    569.892    569.892    569.892
 35.670    546.000    585.243    -39.243    569.402    585.243    569.402    569.402    569.402
 35.770    531.000    583.258    -52.258    568.914    583.258    568.914    568.914    568.914
 35.870    599.000    581.533     17.467    568.426    581.533    568.426    568.426    568.426
 35.970    527.160    580.015    -52.855    567.940    580.015    567.940    567.940    567.940
 36.070    574.000    578.664     -4.664    567.455    578.663    567.455    567.455    567.455
 36.170    566.000    577.449    -11.449    566.971    577.449    566.971    566.971    566.971
 36.270    534.000    576.349    -42.349    566.488    576.348    566.488    566.488    566.488
 36.370    552.000    575.344    -23.344    566.006    575.344    566.006    566.006    566.006
 36.470    577.992    574.424      3.568    565.526    574.424    565.526    565.526    565.526
 36.570    529.000    573.577    -44.577    565.047    573.577    565.047    565.047    565.047
 36.670    520.166    572.798    -52.632    564.569    572.798    564.569    564.569    564.569
 36.770    551.000    572.084    -21.084    564.093    572.084    564.093    564.093    564.093
 36.870    578.000    571.437      6.563    563.618    571.437    563.618    563.618    563.618
 36.970    541.000    570.869    -29.869    563.144    570.869    563.144    563.144    563.144
 37.070    613.002    570.410     42.592    562.671    570.410    562.671    562.671    562.671
 37.170    516.000    570.131    -54.131    562.200    570.132    562.200    562.200    562.200
 37.270    524.000    570.168    -46.168    561.731    570.169    561.731    561.731    561.731
 37.370    534.228    570.729    -36.501    561.263    570.729    561.263    561.263    561.263
 37.470    548.000    572.051    -24.051    560.796    572.052    560.796    560.796    560.796
 37.570    599.810    574.278     25.532    560.331    574.280    560.331    560.331    560.331
 37.670    573.000    577.257     -4.257    559.867    577.260    559.867    559.867    559.867
 37.770    564.000    580.296    -16.296    559.405    580.301    559.405    559.405    559.405
 37.870    620.000    582.127     37.873    558.945    582.133    558.945    558.945    558.945
 37.970    565.000    581.654    -16.654    558.486    581.662    558.486    558.486    558.486
 38.070    579.000    579.035     -0.035    558.028    579.045    558.028    558.028    558.028
 38.170    528.000    575.371    -47.371    557.572    575.381    557.572    557.572    557.572
 38.270    549.000    571.649    -22.649    557.118    571.659    557.118    557.118    557.118
 38.370    561.000    568.398     -7.398    556.665    568.407    556.665    556.665    556.665
 38.470    604.748    565.832     38.916    556.215    565.839    556.215    556.215    556.215
 38.570    561.000    563.923     -2.923    555.765    563.928    555.765    555.765    555.765
 38.670    600.000    562.524     37.476    555.318    562.527    555.318    555.318    555.318
 38.770    567.000    561.472      5.528    554.872    561.475    554.872    554.872    554.872
 38.870    611.061    560.643     50.417    554.428    560.645    554.428    554.428    554.428
 38.970    560.000    559.953      0.047    553.985    559.954    553.985    553.985    553.985
 39.070    605.126    559.349     45.777    553.545    559.350    553.545    553.545    553.545
 39.170    519.000    558.801    -39.801    553.106    558.801    553.106    553.106    553.106
 39.270    506.000    558.289    -52.289    552.669    558.290    552.669    552.669    552.669
 39.370    590.962    557.806     33.156    552.234    557.806    552.234    552.234    552.234
 39.470    554.938    557.343     -2.406    551.801    557.344    551.801    551.801    551.801
 39.570    529.000    556.900    -27.900    551.369    556.900    551.369    551.369    551.369
 39.670    567.629    556.472     11.157    550.939    556.473    550.939    550.939    550.939
 39.770    559.000    556.060      2.940    550.512    556.060    550.512    550.512    550.512
 39.870    536.000    555.661    -19.661    550.086    555.662    550.086    550.086    550.086
 39.970    499.097    555.277    -56.180    549.662    555.277    549.662    549.662    549.662
 40.070    537.883    554.906    -17.023    549.240    554.907    549.240    549.240    549.240
 40.170    548.000    554.550     -6.550    548.820    554.551    548.820    548.820    548.820
 40.270    542.000    554.209    -12.209    548.402    554.209    548.402    548.402    548.402
 40.370    534.000    553.883    -19.883    547.986    553.883    547.986    547.986    547.986
 40.470    516.090    553.574    -37.484    547.571    553.574    547.571    547.571    547.571
 40.570    535.000    553.283    -18.283    547.159    553.284    547.159    547.159    547.159
 40.670    537.385    553.013    -15.627    546.749    553.014    546.749    546.749    546.749
 40.770    531.894    552.766    -20.872    546.341    552.767    546.341    546.341    546.341
 40.870    562.210    552.545      9.664    545.935    552.546    545.935    545.935    545.935
 40.970    552.000    552.355     -0.355    545.531    552.356    545.531    545.531    545.531
 41.070    523.000    552.202    -29.202    545.129    552.203    545.129    545.129    545.129
 41.170    577.000    552.091     24.909    544.729    552.092    544.729    544.729    544.729
 41.270    501.764    552.032    -50.268    544.331    552.033    544.331    544.331    544.331
 41.370    511.569    552.037    -40.468    543.935    552.039    543.935    543.935    543.935
 41.470    520.198    552.122    -31.924    543.542    552.123    543.542    543.542    543.542
 41.570    526.000    552.309    -26.309    543.150    552.311    543.150    543.150    543.150
 41.670    549.994    552.634     -2.641    542.761    552.637    542.761    542.761    542.761
 41.770    558.000    553.159      4.841    542.373    553.162    542.373    542.373    542.373
 41.870    513.367    553.999    -40.632    541.988    554.003    541.988    541.988    541.988
 41.970    516.000    555.377    -39.377    541.606    555.381    541.606    541.606    541.606
 42.070    587.129    557.698     29.431    541.225    557.703    541.225    541.225    541.225
 42.170    613.682    561.634     52.048    540.846    561.641    540.846    540.846    540.846
 42.270    561.469    568.132     -6.663    540.470    568.142    540.470    540.470    540.470
 42.370    524.000    578.263    -54.263    540.096    578.277    540.096    540.096    540.096
 42.470    550.000    592.822    -42.822    539.724    592.844    539.724    539.724    539.724
 42.570    624.530    611.700     12.829    539.354    611.731    539.354    539.354    539.354
 42.670    600.000    633.034    -33.034    538.987    633.076    538.987    538.987    538.987
 42.770    606.000    652.322    -46.322    538.622    652.374    538.622    538.622    538.622
 42.870    687.911    662.819     25.092    538.259    662.879    538.259    538.259    538.259
 42.970    603.000    659.602    -56.602    537.898    659.663    537.898    537.898    537.898
 43.070    653.942    644.196      9.746    537.540    644.251    537.540    537.540    537.540
 43.170    570.181    622.886    -52.705    537.183    622.931    537.183    537.183    537.183
 43.270    652.072    601.648     50.424    536.830    601.681    536.830    536.830    536.830
 43.370    529.000    583.840    -54.840    536.478    583.865    536.478    536.478    536.478
 43.470    577.000    570.531      6.469    536.129    570.547    536.129    536.129    536.129
 43.570    553.000    561.388     -8.388    535.782    561.399    535.782    535.782    535.782
 43.670    548.000    555.451     -7.451    535.437    555.459    535.437    535.437    535.437
 43.770    546.795    551.674     -4.879    535.095    551.680    535.095    535.095    535.095
 43.870    493.079    549.216    -56.136    534.755    549.220    534.755    534.755    534.755
 43.970    531.000    547.519    -16.519    534.418    547.522    534.418    534.418    534.418
 44.070    560.000    546.260     13.740    534.082    546.263    534.082    534.082    534.082
 44.170    539.000    545.267     -6.267    533.750    545.269    533.750    533.750    533.750
 44.270    516.000    544.449    -28.449    533.419    544.451    533.419    533.419    533.419
 44.370    539.000    543.758     -4.758    533.091    543.760    533.091    533.091    533.091
 44.470    527.552    543.165    -15.612    532.765    543.166    532.765    532.765    532.765
 44.570    541.000    542.649     -1.649    532.442    542.650    532.442    532.442    532.442
 44.670    519.265    542.198    -22.933    532.121    542.199    532.121    532.121    532.121
 44.770    541.000    541.802     -0.802    531.802    541.803    531.802    531.802    531.802
 44.870    573.000    541.452     31.548    531.486    541.453    531.486    531.486    531.486
 44.970    494.312    541.144    -46.832    531.172    541.145    531.172    531.172    531.172
 45.070    552.000    540.873     11.127    530.861    540.874    530.861    530.861    530.861
 45.170    560.048    540.637     19.411    530.552    540.637    530.552    530.552    530.552
 45.270    543.000    540.433      2.567    530.245    540.433    530.245    530.245    530.245
 45.370    566.434    540.259     26.174    529.941    540.259    529.941    529.941    529.941
 45.470    524.475    540.116    -15.641    529.639    540.116    529.639    529.639    529.639
 45.570    547.121    540.002      7.119    529.340    540.002    529.340    529.340    529.340
 45.670    561.000    539.920     21.080    529.043    539.919    529.043    529.043    529.043
 45.770    517.044    539.868    -22.824    528.749    539.868    528.749    528.749    528.749
 45.870    553.000    539.850     13.150    528.457    539.849    528.457    528.457    528.457
 45.970    553.000    539.866     13.134    528.167    539.866    528.167    528.167    528.167
 46.070    521.000    539.921    -18.921    527.880    539.920    527.880    527.880    527.880
 46.170    501.012    540.016    -39.005    527.595    540.016    527.595    527.595    527.595
 46.270    566.000    540.159     25.841    527.313    540.158    527.313    527.313    527.313
 46.370    568.000    540.353     27.647    527.033    540.352    527.033    527.033    527.033
 46.470    506.593    540.606    -34.013    526.756    540.605    526.756    526.756    526.756
 46.570    555.000    540.929     14.071    526.481    540.928    526.481    526.481    526.481
 46.670    529.000    541.335    -12.335    526.209    541.334    526.209    526.209    526.209
 46.770    489.000    541.843    -52.843    525.939    541.841    525.939    525.939    525.939
 46.870    588.095    542.483     45.612    525.671    542.481    525.671    525.671    525.671
 46.970    557.000    543.310     13.690    525.407    543.307    525.407    525.407    525.407
 47.070    524.000    544.422    -20.422    525.144    544.419    525.144    525.144    525.144
 47.170    572.592    545.995     26.597    524.884    545.991    524.884    524.884    524.884
 47.270    531.129    548.321    -17.193    524.626    548.315    524.626    524.626    524.626
 47.370    575.208    551.835     23.373    524.371    551.827    524.371    524.371    524.371
 47.470    524.884    557.090    -32.205    524.119    557.078    524.119    524.119    524.119
 47.570    567.000    564.640      2.360    523.868    564.623    523.868    523.868    523.868
 47.670    564.000    574.820    -10.820    523.621    574.795    523.621    523.621    523.621
 47.770    597.000    587.426      9.574    523.375    587.393    523.375    523.375    523.375
 47.870    597.000    601.339     -4.339    523.133    601.296    523.133    523.133    523.133
 47.970    666.000    614.166     51.834    522.892    614.115    522.892    522.892    522.892
 48.070    613.000    622.473     -9.473    522.655    622.418    522.655    522.655    522.655
 48.170    590.330    623.507    -33.176    522.419    623.453    522.419    522.419    522.419
 48.270    618.000    617.428      0.572    522.186    617.381    522.186    522.186    522.186
 48.370    579.000    607.183    -28.183    521.956    607.145    521.956    521.956    521.956
 48.470    616.000    596.224     19.776    521.728    596.195    521.728    521.728    521.728
 48.570    550.000    586.922    -36.922    521.503    586.901    521.503    521.503    521.503
 48.670    565.767    580.411    -14.644    521.280    580.396    521.280    521.280    521.280
 48.770    610.000    576.954     33.046    521.059    576.943    521.059    521.059    521.059
 48.870    600.000    576.332     23.668    520.841    576.324    520.841    520.841    520.841
 48.970    616.000    578.171     37.829    520.625    578.164    520.625    520.625    520.625
 49.070    613.000    582.196     30.804    520.412    582.191    520.412    520.412    520.412
 49.170    560.531    588.442    -27.912    520.201    588.437    520.201    520.201    520.201
 49.270    589.203    597.499     -8.297    519.993    597.494    519.993    519.993    519.993
 49.370    578.000    610.990    -32.990    519.787    610.983    519.787    519.787    519.787
 49.470    684.825    632.450     52.375    519.584    632.439    519.584    519.584    519.584
 49.570    627.000    668.632    -41.632    519.383    668.614    519.383    519.383    519.383
 49.670    707.000    730.786    -23.786    519.185    730.756    519.185    519.185    519.185
 49.770    897.407    834.667     62.740    518.989    834.617    518.989    518.989    518.989
 49.870    923.000    997.567    -74.567    518.795    997.492    518.795    518.795    518.795
 49.970   1136.000   1231.222    -95.222    518.604   1231.120    518.604    518.604    518.604
 50.070   1484.000   1531.429    -47.429    518.415   1531.306    518.415    518.415    518.415
 50.170   1869.000   1867.164      1.836    518.229   1867.040    518.229    518.229    518.229
 50.270   2206.000   2173.505     32.495    518.045   2173.415    518.045    518.045    518.045
 50.370   2338.743   2360.314    -21.571    517.864   2360.298    517.864    517.864    517.864
 50.470   2264.624   2356.043    -91.418    517.685   2356.119    517.685    517.685    517.685
 50.570   2138.000   2163.326    -25.326    517.509   2163.471    517.509    517.509    517.509
 50.670   1825.175   1856.672    -31.498    517.334   1856.843    517.334    517.334    517.334
 50.770   1594.659   1525.983     68.675    517.163   1526.145    517.163    517.163    517.163
 50.870   1057.000   1234.896   -177.896    516.993   1235.031    516.993    516.993    516.993
 50.970    976.000   1013.115    -37.115    516.826   1013.219    516.826    516.826    516.826
 51.070    830.000    863.538    -33.538    516.662    863.615    516.662    516.662    516.662
 51.170    726.051    772.904    -46.853    516.500    772.963    516.500    516.500    516.500
 51.270    679.655    721.864    -42.208    516.340    721.913    516.340    516.340    516.340
 51.370    686.000    692.175     -6.175    516.183    692.219    516.183    516.183    516.183
 51.470    685.000    670.887     14.113    516.028    670.926    516.028    516.028    516.028
 51.570    656.000    651.772      4.228    515.875    651.805    515.875    515.875    515.875
 51.670    607.000    633.662    -26.662    515.725    633.689    515.725    515.725    515.725
 51.770    643.358    617.429     25.929    515.577    617.450    515.577    515.577    515.577
 51.870    648.000    604.022     43.978    515.431    604.037    515.431    515.431    515.431
 51.970    652.000    593.850     58.150    515.288    593.861    515.288    515.288    515.288
 52.070    609.000    586.802     22.198    515.147    586.810    515.147    515.147    515.147
 52.170    623.000    582.453     40.547    515.009    582.459    515.009    515.009    515.009
 52.270    643.000    580.297     62.703    514.873    580.301    514.873    514.873    514.873
 52.370    591.000    579.939     11.061    514.739    579.943    514.739    514.739    514.739
 52.470    570.516    581.219    -10.704    514.607    581.222    514.607    514.607    514.607
 52.570    607.000    584.303     22.697    514.478    584.306    514.478    514.478    514.478
 52.670    533.162    589.810    -56.648    514.351    589.812    514.351    514.351    514.351
 52.770    582.000    598.996    -16.996    514.226    598.998    514.226    514.226    514.226
 52.870    579.177    613.980    -34.803    514.104    613.981    514.104    514.104    514.104
 52.970    689.000    637.864     51.136    513.984    637.865    513.984    513.984    513.984
 53.070    684.000    674.553      9.447    513.866    674.552    513.866    513.866    513.866
 53.170    725.000    728.027     -3.027    513.751    728.025    513.751    513.751    513.751
 53.270    870.241    800.998     69.243    513.638    800.995    513.638    513.638    513.638
 53.370    841.217    893.059    -51.842    513.527    893.056    513.527    513.527    513.527
 53.470   1026.000    998.566     27.434    513.418    998.564    513.418    513.418    513.418
 53.570   1093.979   1104.405    -10.425    513.311   1104.406    513.311    513.311    513.311
 53.670   1192.000   1188.889      3.111    513.207   1188.897    513.207    513.207    513.207
 53.770   1198.000   1226.795    -28.795    513.105   1226.812    513.105    513.105    513.105
 53.870   1228.000   1204.298     23.702    513.005   1204.324    513.005    513.005    513.005
 53.970   1127.000   1130.316     -3.316    512.908   1130.348    512.908    512.908    512.908
 54.070   1040.000   1028.662     11.338    512.812   1028.694    512.812    512.812    512.812
 54.170    964.808    922.522     42.286    512.719    922.552    512.719    512.719    512.719
 54.270    866.977    827.174     39.803    512.628    827.198    512.628    512.628    512.628
 54.370    738.000    750.005    -12.005    512.539    750.024    512.539    512.539    512.539
 54.470    709.000    692.595     16.405    512.452    692.609    512.452    512.452    512.452
 54.570    651.000    652.872     -1.872    512.368    652.882    512.368    512.368    512.368
 54.670    642.000    627.056     14.944    512.285    627.063    512.285    512.285    512.285
 54.770    552.674    611.157    -58.482    512.205    611.162    512.205    512.205    512.205
 54.870    604.000    601.844      2.156    512.127    601.848    512.127    512.127    512.127
 54.970    606.000    596.752      9.248    512.051    596.755    512.051    512.051    512.051
 55.070    553.654    594.397    -40.743    511.977    594.400    511.977    511.977    511.977
 55.170    577.000    593.949    -16.949    511.905    593.951    511.905    511.905    511.905
 55.270    560.611    594.999    -34.388    511.835    595.001    511.835    511.835    511.835
 55.370    637.000    597.391     39.609    511.768    597.393    511.768    511.768    511.768
 55.470    549.829    601.137    -51.309    511.702    601.139    511.702    511.702    511.702
 55.570    634.000    606.388     27.612    511.639    606.389    511.639    511.639    511.639
 55.670    631.000    613.477     17.523    511.577    613.478    511.577    511.577    511.577
 55.770    657.000    623.042     33.958    511.518    623.042    511.518    511.518    511.518
 55.870    621.000    636.271    -15.271    511.460    636.271    511.460    511.460    511.460
 55.970    622.003    655.304    -33.301    511.405    655.302    511.405    511.405    511.405
 56.070    684.000    683.781      0.219    511.352    683.775    511.352    511.352    511.352
 56.170    693.000    727.428    -34.428    511.300    727.418    511.300    511.300    511.300
 56.270    800.000    794.377      5.623    511.251    794.360    511.251    511.251    511.251
 56.370    857.867    894.742    -36.875    511.204    894.716    511.204    511.204    511.204
 56.470   1020.787   1038.968    -18.181    511.158   1038.932    511.158    511.158    511.158
 56.570   1240.592   1234.738      5.854    511.115   1234.694    511.115    511.115    511.115
 56.670   1371.000   1482.691   -111.691    511.073   1482.644    511.073    511.073    511.073
 56.770   1829.135   1771.596     57.539    511.034   1771.558    511.034    511.034    511.034
 56.870   2043.288   2073.588    -30.300    510.996   2073.576    510.996    510.996    510.996
 56.970   2312.000   2341.198    -29.198    510.960   2341.234    510.960    510.960    510.960
 57.070   2432.239   2513.092    -80.853    510.927   2513.194    510.927    510.927    510.927
 57.170   2469.108   2538.045    -68.937    510.895   2538.214    510.895    510.895    510.895
 57.270   2390.000   2407.737    -17.737    510.865   2407.952    510.865    510.865    510.865
 57.370   2190.384   2163.536     26.848    510.836   2163.764    510.836    510.836    510.836
 57.470   1812.000   1867.825    -55.825    510.810   1868.037    510.810    510.810    510.810
 57.570   1507.039   1573.819    -66.780    510.786   1573.999    510.786    510.786    510.786
 57.670   1326.258   1315.126     11.132    510.763   1315.268    510.763    510.763    510.763
 57.770   1084.248   1107.528    -23.280    510.742   1107.633    510.742    510.742    510.742
 57.870    936.000    953.697    -17.697    510.723    953.770    510.723    510.723    510.723
 57.970    838.000    848.178    -10.178    510.706    848.225    510.706    510.706    510.706
 58.070    740.000    782.023    -42.023    510.691    782.050    510.691    510.691    510.691
 58.170    732.000    746.394    -14.394    510.677    746.407    510.677    510.677    510.677
 58.270    748.000    734.639     13.361    510.665    734.639    510.665    510.665    510.665
 58.370    767.497    742.820     24.678    510.655    742.810    510.655    510.655    510.655
 58.470    807.000    769.110     37.890    510.647    769.090    510.647    510.647    510.647
 58.570    813.710    812.552      1.158    510.640    812.524    510.640    510.640    510.640
 58.670    904.314    871.598     32.716    510.635    871.565    510.635    510.635    510.635
 58.770    872.851    942.688    -69.836    510.632    942.653    510.632    510.632    510.632
 58.870   1068.000   1019.385     48.615    510.630   1019.356    510.630    510.630    510.630
 58.970   1075.000   1093.309    -18.309    510.630   1093.289    510.630    510.630    510.630
 59.070   1186.000   1157.123     28.877    510.632   1157.116    510.632    510.632    510.632
 59.170   1233.000   1206.014     26.986    510.635   1206.021    510.635    510.635    510.635
 59.270   1230.000   1235.600     -5.600    510.641   1235.622    510.641    510.641    510.641
 59.370   1214.000   1241.906    -27.906    510.647   1241.936    510.647    510.647    510.647
 59.470   1311.000   1226.508     84.492    510.655   1226.536    510.655    510.655    510.655
 59.570   1284.000   1199.492     84.508    510.665   1199.504    510.665    510.665    510.665
 59.670   1217.000   1174.639     42.361    510.677   1174.622    510.677    510.677    510.677
 59.770   1198.000   1163.079     34.921    510.690   1163.026    510.690    510.690    510.690
 59.870   1248.897   1171.630     77.267    510.704   1171.534    510.704    510.704    510.704
 59.970   1224.000   1204.372     19.628    510.721   1204.231    510.721    510.721    510.721
 60.070   1206.530   1262.997    -56.467    510.738   1262.810    510.738    510.738    510.738
 60.170   1367.000   1344.051     22.949    510.757   1343.823    510.757    510.757    510.757
 60.270   1445.000   1435.698      9.302    510.778   1435.440    510.778    510.778    510.778
 60.370   1617.000   1516.910    100.090    510.800   1516.641    510.800    510.800    510.800
 60.470   1576.000   1561.318     14.682    510.824   1561.063    510.824    510.824    510.824
 60.570   1592.000   1547.855     44.145    510.849   1547.636    510.849    510.849    510.849
 60.670   1543.987   1473.173     70.814    510.876   1473.000    510.876    510.876    510.876
 60.770   1340.000   1353.433    -13.433    510.904   1353.306    510.904    510.904    510.904
 60.870   1243.000   1213.428     29.572    510.933   1213.339    510.933    510.933    510.933
 60.970   1143.926   1075.226     68.700    510.964   1075.165    510.964    510.964    510.964
 61.070    947.000    953.752     -6.752    510.996    953.710    510.996    510.996    510.996
 61.170    872.000    856.975     15.025    511.030    856.943    511.030    511.030    511.030
 61.270    811.000    787.535     23.465    511.065    787.507    511.065    511.065    511.065
 61.370    792.456    744.791     47.666    511.101    744.761    511.101    511.101    511.101
 61.470    723.000    726.857     -3.857    511.139    726.821    511.139    511.139    511.139
 61.570    773.000    732.192     40.808    511.178    732.145    511.178    511.178    511.178
 61.670    760.000    760.313     -0.313    511.218    760.252    511.218    511.218    511.218
 61.770    806.085    811.523     -5.437    511.259    811.443    511.259    511.259    511.259
 61.870    858.000    885.788    -27.788    511.302    885.687    511.302    511.302    511.302
 61.970   1019.000    981.139     37.861    511.346    981.016    511.346    511.346    511.346
 62.070   1016.000   1092.001    -76.001    511.392   1091.857    511.392    511.392    511.392
 62.170   1145.000   1207.733    -62.733    511.438   1207.577    511.438    511.438    511.438
 62.270   1341.398   1311.824     29.574    511.486   1311.667    511.486    511.486    511.486
 62.370   1323.000   1383.318    -60.318    511.535   1383.176    511.535    511.535    511.535
 62.470   1457.857   1403.296     54.561    511.585   1403.180    511.585    511.585    511.585
 62.570   1344.000   1365.213    -21.213    511.637   1365.129    511.637    511.637    511.637
 62.670   1200.814   1279.521    -78.707    511.689   1279.465    511.689    511.689    511.689
 62.770   1122.000   1166.661    -44.661    511.743   1166.626    511.743    511.743    511.743
 62.870    982.466   1046.770    -64.304    511.798   1046.750    511.798    511.798    511.798
 62.970    908.000    934.545    -26.545    511.853    934.534    511.853    511.853    511.853
 63.070    860.800    838.638     22.162    511.910    838.631    511.910    511.910    511.910
 63.170    752.203    762.618    -10.415    511.969    762.613    511.969    511.969    511.969
 63.270    652.209    706.286    -54.076    512.028    706.280    512.028    512.028    512.028
 63.370    673.000    667.122      5.878    512.088    667.115    512.088    512.088    512.088
 63.470    645.000    641.656      3.344    512.149    641.647    512.149    512.149    512.149
 63.570    629.092    626.547      2.546    512.211    626.537    512.211    512.211    512.211
 63.670    628.000    619.248      8.752    512.275    619.236    512.275    512.275    512.275
 63.770    629.000    618.288     10.712    512.339    618.273    512.339    512.339    512.339
 63.870    662.000    623.272     38.728    512.404    623.253    512.404    512.404    512.404
 63.970    611.000    634.715    -23.715    512.470    634.690    512.470    512.470    512.470
 64.070    674.234    653.743     20.491    512.538    653.710    512.538    512.538    512.538
 64.170    694.728    681.699     13.029    512.606    681.656    512.606    512.606    512.606
 64.270    743.000    719.641     23.359    512.675    719.584    512.675    512.675    512.675
 64.370    778.000    767.765     10.235    512.745    767.691    512.745    512.745    512.745
 64.470    824.000    824.794     -0.794    512.815    824.703    512.815    512.815    512.815
 64.570    959.119    887.377     71.742    512.887    887.269    512.887    512.887    512.887
 64.670    878.402    949.593    -71.192    512.960    949.471    512.960    512.960    512.960
 64.770    960.893   1003.058    -42.166    513.033   1002.929    513.033    513.033    513.033
 64.870    999.644   1038.612    -38.967    513.107   1038.485    513.107    513.107    513.107
 64.970   1081.925   1049.772     32.152    513.182   1049.658    513.182    513.182    513.182
 65.070   1104.000   1035.634     68.366    513.258   1035.540    513.258    513.258    513.258
 65.170   1040.594   1000.774     39.821    513.335   1000.704    513.335    513.335    513.335
 65.270   1009.100    952.904     56.196    513.412    952.859    513.412    513.412    513.412
 65.370    885.263    900.117    -14.854    513.490    900.095    513.490    513.490    513.490
 65.470    800.000    848.782    -48.782    513.569    848.778    513.569    513.569    513.569
 65.570    775.000    802.573    -27.573    513.648    802.583    513.648    513.648    513.648
 65.670    763.000    762.650      0.350    513.728    762.670    513.728    513.728    513.728
 65.770    726.000    728.633     -2.633    513.809    728.657    513.809    513.809    513.809
 65.870    664.000    699.775    -35.775    513.891    699.800    513.891    513.891    513.891
 65.970    653.723    675.617    -21.894    513.973    675.639    513.973    513.973    513.973
 66.070    652.000    655.956     -3.956    514.056    655.974    514.056    514.056    514.056
 66.170    606.867    640.575    -33.708    514.139    640.588    514.139    514.139    514.139
 66.270    650.000    629.134     20.866    514.223    629.142    514.223    514.223    514.223
 66.370    601.000    621.255    -20.255    514.308    621.260    514.308    514.308    514.308
 66.470    621.000    616.573      4.427    514.393    616.576    514.393    514.393    514.393
 66.570    665.000    614.783     50.217    514.479    614.784    514.479    514.479    514.479
 66.670    623.000    615.683      7.317    514.565    615.685    514.565    514.565    514.565
 66.770    629.000    619.264      9.736    514.652    619.265    514.652    514.652    514.652
 66.870    591.000    625.826    -34.826    514.739    625.828    514.739    514.739    514.739
 66.970    642.000    636.154      5.846    514.827    636.155    514.827    514.827    514.827
 67.070    600.453    651.720    -51.267    514.915    651.722    514.915    514.915    514.915
 67.170    723.069    674.920     48.149    515.004    674.921    515.004    515.004    515.004
 67.270    748.000    709.257     38.743    515.093    709.257    515.093    515.093    515.093
 67.370    733.000    759.400    -26.400    515.183    759.398    515.183    515.183    515.183
 67.470    858.582    830.942     27.639    515.273    830.938    515.273    515.273    515.273
 67.570    932.423    929.751      2.672    515.363    929.746    515.363    515.363    515.363
 67.670   1009.564   1060.825    -51.261    515.454   1060.821    515.454    515.454    515.454
 67.770   1153.503   1226.733    -73.230    515.545   1226.734    515.545    515.545    515.545
 67.870   1500.928   1425.836     75.092    515.637   1425.848    515.637    515.637    515.637
 67.970   1581.000   1650.520    -69.520    515.729   1650.553    515.729    515.729    515.729
 68.070   1852.389   1885.614    -33.225    515.821   1885.677    515.821    515.821    515.821
 68.170   2086.000   2107.338    -21.338    515.913   2107.444    515.913    515.913    515.913
 68.270   2277.000   2284.279     -7.279    516.006   2284.439    516.006    516.006    516.006
 68.370   2325.000   2383.514    -58.514    516.099   2383.732    516.099    516.099    516.099
 68.470   2343.000   2382.945    -39.945    516.192   2383.214    516.192    516.192    516.192
 68.570   2178.000   2282.758   -104.758    516.286   2283.060    516.286    516.286    516.286
 68.670   2124.000   2105.311     18.689    516.379   2105.619    516.379    516.379    516.379
 68.770   1851.856   1883.574    -31.718    516.473   1883.866    516.473    516.473    516.473
 68.870   1564.898   1648.869    -83.971    516.567   1649.129    516.567    516.567    516.567
 68.970   1347.515   1424.847    -77.332    516.661   1425.068    516.661    516.661    516.661
 69.070   1219.000   1226.563     -7.563    516.756   1226.742    516.756    516.756    516.756
 69.170   1022.857   1061.530    -38.674    516.850   1061.670    516.850    516.850    516.850
 69.270    940.317    931.314      9.004    516.945    931.419    516.945    516.945    516.945
 69.370    777.000    833.290    -56.290    517.040    833.367    517.040    517.040    517.040
 69.470    704.116    762.429    -58.312    517.134    762.484    517.134    517.134    517.134
 69.570    734.000    712.844     21.156    517.229    712.883    517.229    517.229    517.229
 69.670    643.000    678.924    -35.924    517.324    678.953    517.324    517.324    517.324
 69.770    601.155    655.974    -54.820    517.419    655.995    517.419    517.419    517.419
 69.870    678.000    640.434     37.566    517.514    640.448    517.514    517.514    517.514
 69.970    648.000    629.812     18.188    517.609    629.823    517.609    517.609    517.609
 70.070    603.000    622.483    -19.483    517.704    622.491    517.704    517.704    517.704
 70.170    627.000    617.445      9.555    517.799    617.451    517.799    517.799    517.799
 70.270    634.000    614.118     19.882    517.894    614.122    517.894    517.894    517.894
 70.370    642.000    612.199     29.801    517.989    612.201    517.989    517.989    517.989
 70.470    628.000    611.567     16.433    518.084    611.568    518.084    518.084    518.084
 70.570    586.022    612.257    -26.235    518.179    612.256    518.179    518.179    518.179
 70.670    613.608    614.461     -0.853    518.273    614.458    518.273    518.273    518.273
 70.770    591.310    618.584    -27.274    518.368    618.579    518.368    518.368    518.368
 70.870    659.000    625.326     33.674    518.462    625.319    518.462    518.462    518.462
 70.970    681.725    635.803     45.922    518.557    635.791    518.557    518.557    518.557
 71.070    665.000    651.663     13.337    518.651    651.647    518.651    518.651    518.651
 71.170    638.000    675.189    -37.189    518.745    675.165    518.745    518.745    518.745
 71.270    712.000    709.294      2.706    518.838    709.261    518.838    518.838    518.838
 71.370    783.000    757.377     25.623    518.932    757.331    518.932    518.932    518.932
 71.470    826.000    822.940      3.060    519.025    822.877    519.025    519.025    519.025
 71.570    907.025    908.974     -1.949    519.118    908.891    519.118    519.118    519.118
 71.670   1077.234   1017.134     60.100    519.211   1017.026    519.211    519.211    519.211
 71.770   1102.000   1146.809    -44.809    519.303   1146.674    519.303    519.303    519.303
 71.870   1362.119   1294.211     67.908    519.396   1294.049    519.396    519.396    519.396
 71.970   1470.000   1451.552     18.448    519.487   1451.366    519.487    519.487    519.487
 72.070   1564.000   1606.392    -42.392    519.579   1606.188    519.579    519.579    519.579
 72.170   1656.928   1741.532    -84.605    519.670   1741.321    519.670    519.670    519.670
 72.270   1894.353   1836.770     57.582    519.761   1836.567    519.761    519.761    519.761
 72.370   1906.000   1874.160     31.840    519.852   1873.980    519.852    519.852    519.852
 72.470   1781.993   1845.655    -63.663    519.942   1845.511    519.942    519.942    519.942
 72.570   1817.603   1757.379     60.224    520.031   1757.273    520.031    520.031    520.031
 72.670   1532.158   1626.256    -94.098    520.121   1626.187    520.121    520.121    520.121
 72.770   1509.000   1472.492     36.508    520.210   1472.451    520.210    520.210    520.210
 72.870   1371.000   1313.852     57.148    520.298   1313.833    520.298    520.298    520.298
 72.970   1216.000   1163.484     52.516    520.386   1163.480    520.386    520.386    520.386
 73.070   1066.000   1029.823     36.177    520.474   1029.826    520.474    520.474    520.474
 73.170    962.000    917.194     44.806    520.561    917.201    520.561    520.561    520.561
 73.270    861.000    826.625     34.375    520.647    826.633    520.647    520.647    520.647
 73.370    808.000    756.751     51.249    520.733    756.758    520.733    520.733    520.733
 73.470    732.000    704.751     27.249    520.818    704.757    520.818    520.818    520.818
 73.570    713.000    667.188     45.812    520.903    667.192    520.903    520.903    520.903
 73.670    682.167    640.658     41.509    520.988    640.660    520.988    520.988    520.988
 73.770    698.000    622.198     75.802    521.071    622.200    521.071    521.071    521.071
 73.870    615.831    609.471      6.360    521.155    609.474    521.155    521.155    521.155
 73.970    655.630    600.772     54.857    521.237    600.777    521.237    521.237    521.237
 74.070    606.000    594.940     11.060    521.319    594.946    521.319    521.319    521.319
 74.170    567.000    591.213    -24.213    521.400    591.223    521.400    521.400    521.400
 74.270    611.889    589.101     22.787    521.481    589.114    521.481    521.481    521.481
 74.370    642.000    588.259     53.741    521.561    588.276    521.561    521.561    521.561
 74.470    560.741    588.401    -27.660    521.640    588.424    521.640    521.640    521.640
 74.570    546.569    589.240    -42.671    521.719    589.268    521.719    521.719    521.719
 74.670    623.665    590.440     33.224    521.797    590.474    521.797    521.797    521.797
 74.770    624.000    591.605     32.395    521.874    591.643    521.874    521.874    521.874
 74.870    573.128    592.295    -19.167    521.950    592.337    521.950    521.950    521.950
 74.970    640.000    592.119     47.881    522.026    592.164    522.026    522.026    522.026
 75.070    537.701    590.872    -53.171    522.101    590.917    522.101    522.101    522.101
 75.170    627.000    588.633     38.367    522.175    588.675    522.175    522.175    522.175
 75.270    647.000    585.745     61.255    522.248    585.783    522.248    522.248    522.248
 75.370    518.552    582.699    -64.148    522.321    582.732    522.321    522.321    522.321
 75.470    645.000    580.024     64.976    522.393    580.050    522.393    522.393    522.393
 75.570    631.305    578.233     53.072    522.463    578.253    522.463    522.463    522.463
 75.670    605.000    577.816     27.184    522.533    577.828    522.533    522.533    522.533
 75.770    540.922    579.239    -38.317    522.603    579.245    522.603    522.603    522.603
 75.870    611.000    582.945     28.055    522.671    582.943    522.671    522.671    522.671
 75.970    611.000    589.318     21.682    522.738    589.309    522.738    522.738    522.738
 76.070    661.000    598.646     62.354    522.805    598.630    522.805    522.805    522.805
 76.170    668.000    611.052     56.948    522.870    611.028    522.870    522.870    522.870
 76.270    610.526    626.418    -15.892    522.935    626.386    522.935    522.935    522.935
 76.370    663.000    644.310     18.690    522.998    644.270    522.998    522.998    522.998
 76.470    726.547    663.900     62.647    523.061    663.853    523.061    523.061    523.061
 76.570    706.466    683.910     22.556    523.123    683.856    523.123    523.123    523.123
 76.670    665.000    702.578    -37.578    523.184    702.518    523.184    523.184    523.184
 76.770    750.000    717.739     32.261    523.243    717.677    523.243    523.243    523.243
 76.870    715.000    727.156    -12.156    523.302    727.094    523.302    523.302    523.302
 76.970    693.000    729.145    -36.145    523.360    729.085    523.360    523.360    523.360
 77.070    747.000    723.255     23.745    523.416    723.201    523.416    523.416    523.416
 77.170    650.171    710.482    -60.311    523.472    710.434    523.472    523.472    523.472
 77.270    691.000    692.816     -1.816    523.526    692.775    523.526    523.526    523.526
 77.370    655.000    672.512    -17.512    523.580    672.478    523.580    523.580    523.580
 77.470    680.000    651.563     28.437    523.632    651.536    523.632    523.632    523.632
 77.570    628.904    631.489     -2.585    523.684    631.468    523.684    523.684    523.684
 77.670    643.725    613.319     30.406    523.734    613.303    523.734    523.734    523.734
 77.770    599.000    597.639      1.361    523.783    597.627    523.783    523.783    523.783
 77.870    555.000    584.666    -29.666    523.831    584.657    523.831    523.831    523.831
 77.970    592.000    574.333     17.667    523.877    574.327    523.877    523.877    523.877
 78.070    589.591    566.378     23.213    523.923    566.373    523.923    523.923    523.923
 78.170    537.000    560.431    -23.431    523.967    560.427    523.967    523.967    523.967
 78.270    552.000    556.093     -4.093    524.010    556.089    524.010    524.010    524.010
 78.370    528.515    552.984    -24.469    524.052    552.981    524.052    524.052    524.052
 78.470    533.000    550.779    -17.779    524.093    550.777    524.093    524.093    524.093
 78.570    493.482    549.228    -55.746    524.133    549.226    524.133    524.133    524.133
 78.670    579.000    548.142     30.858    524.171    548.140    524.171    524.171    524.171
 78.770    557.000    547.387      9.613    524.208    547.386    524.208    524.208    524.208
 78.870    564.000    546.880     17.120    524.244    546.879    524.244    524.244    524.244
 78.970    526.000    546.570    -20.570    524.278    546.569    524.278    524.278    524.278
 79.070    558.000    546.432     11.568    524.312    546.431    524.312    524.312    524.312
 79.170    534.000    546.459    -12.459    524.344    546.458    524.344    524.344    524.344
 79.270    533.637    546.660    -13.023    524.374    546.659    524.374    524.374    524.374
 79.370    497.080    547.054    -49.974    524.404    547.053    524.404    524.404    524.404
 79.470    496.000    547.668    -51.668    524.432    547.667    524.432    524.432    524.432
 79.570    574.055    548.543     25.512    524.458    548.541    524.458    524.458    524.458
 79.670    539.000    549.728    -10.728    524.484    549.726    524.484    524.484    524.484
 79.770    531.007    551.291    -20.284    524.508    551.288    524.508    524.508    524.508
 79.870    538.000    553.316    -15.316    524.530    553.313    524.530    524.530    524.530
 79.970    621.000    555.916     65.084    524.551    555.913    524.551    524.551    524.551
 80.070    599.878    559.237     40.640    524.571    559.234    524.571    524.571    524.571
 80.170    603.266    563.460     39.806    524.590    563.456    524.590    524.590    524.590
 80.270    526.979    568.801    -41.822    524.607    568.797    524.607    524.607    524.607
 80.370    572.000    575.510     -3.510    524.622    575.506    524.622    524.622    524.622
 80.470    606.444    583.862     22.582    524.636    583.859    524.636    524.636    524.636
 80.570    598.000    594.151      3.849    524.649    594.150    524.649    524.649    524.649
 80.670    655.000    606.650     48.350    524.660    606.651    524.660    524.660    524.660
 80.770    631.957    621.550     10.407    524.670    621.554    524.670    524.670    524.670
 80.870    649.021    638.870     10.152    524.678    638.878    524.678    524.678    524.678
 80.970    684.243    658.370     25.873    524.685    658.384    524.685    524.685    524.685
 81.070    711.000    679.492     31.508    524.690    679.511    524.690    524.690    524.690
 81.170    652.000    701.345    -49.345    524.694    701.371    524.694    524.694    524.694
 81.270    660.000    722.777    -62.777    524.696    722.810    524.696    524.696    524.696
 81.370    707.000    742.533    -35.533    524.697    742.572    524.697    524.697    524.697
 81.470    754.706    759.443     -4.737    524.696    759.489    524.696    524.696    524.696
 81.570    754.000    772.564    -18.564    524.694    772.616    524.694    524.694    524.694
 81.670    739.000    781.249    -42.249    524.690    781.307    524.690    524.690    524.690
 81.770    727.000    785.208    -58.208    524.685    785.271    524.685    524.685    524.685
 81.870    756.000    784.505    -28.505    524.678    784.572    524.678    524.678    524.678
 81.970    737.000    779.461    -42.461    524.670    779.532    524.670    524.670    524.670
 82.070    753.519    770.527    -17.008    524.659    770.600    524.659    524.659    524.659
 82.170    800.576    758.272     42.304    524.648    758.346    524.648    524.648    524.648
 82.270    731.000    743.439    -12.439    524.634    743.513    524.634    524.634    524.634
 82.370    745.693    726.920     18.773    524.620    726.992    524.620    524.620    524.620
 82.470    685.000    709.594    -24.594    524.603    709.663    524.603    524.603    524.603
 82.570    688.000    692.150     -4.150    524.585    692.216    524.585    524.585    524.585
 82.670    663.227    675.044    -11.818    524.565    675.105    524.565    524.565    524.565
 82.770    661.000    658.584      2.416    524.544    658.639    524.544    524.544    524.544
 82.870    586.480    643.058    -56.578    524.521    643.107    524.521    524.521    524.521
 82.970    677.944    628.795     49.149    524.496    628.838    524.496    524.496    524.496
 83.070    607.000    616.136     -9.136    524.469    616.171    524.469    524.469    524.469
 83.170    612.000    605.374      6.626    524.441    605.402    524.441    524.441    524.441
 83.270    635.381    596.717     38.664    524.412    596.736    524.412    524.412    524.412
 83.370    646.805    590.269     56.536    524.380    590.280    524.380    524.380    524.380
 83.470    591.124    586.040      5.084    524.347    586.043    524.347    524.347    524.347
 83.570    557.033    583.943    -26.911    524.312    583.939    524.312    524.312    524.312
 83.670    576.854    583.799     -6.945    524.276    583.786    524.276    524.276    524.276
 83.770    586.000    585.331      0.669    524.238    585.310    524.238    524.238    524.238
 83.870    575.000    588.170    -13.170    524.198    588.142    524.198    524.198    524.198
 83.970    567.000    591.855    -24.855    524.156    591.820    524.156    524.156    524.156
 84.070    606.000    595.842     10.158    524.113    595.801    524.113    524.113    524.113
 84.170    573.000    599.520    -26.520    524.068    599.476    524.068    524.068    524.068
 84.270    639.951    602.265     37.686    524.021    602.217    524.021    524.021    524.021
 84.370    594.147    603.523     -9.376    523.972    603.475    523.972    523.972    523.972
 84.470    562.000    602.944    -40.944    523.922    602.897    523.922    523.922    523.922
 84.570    583.000    600.468    -17.468    523.870    600.424    523.870    523.870    523.870
 84.670    585.165    596.302    -11.137    523.816    596.262    523.816    523.816    523.816
 84.770    566.000    590.918    -24.918    523.760    590.882    523.760    523.760    523.760
 84.870    604.000    584.844     19.156    523.703    584.813    523.703    523.703    523.703
 84.970    551.000    578.526    -27.526    523.644    578.500    523.644    523.644    523.644
 85.070    598.000    572.351     25.649    523.583    572.329    523.583    523.583    523.583
 85.170    565.770    566.614     -0.844    523.520    566.596    523.520    523.520    523.520
 85.270    595.504    561.514     33.989    523.455    561.499    523.455    523.455    523.455
 85.370    529.000    557.163    -28.163    523.389    557.151    523.389    523.389    523.389
 85.470    574.000    553.600     20.400    523.321    553.589    523.321    523.321    523.321
 85.570    563.000    550.804     12.196    523.251    550.795    523.251    523.251    523.251
 85.670    517.000    548.721    -31.721    523.179    548.713    523.179    523.179    523.179
 85.770    583.803    547.274     36.528    523.106    547.267    523.106    523.106    523.106
 85.870    547.000    546.389      0.611    523.030    546.381    523.030    523.030    523.030
 85.970    546.000    546.000     -0.000    522.953    545.992    522.953    522.953    522.953
 86.070    546.000    546.065     -0.065    522.874    546.057    522.874    522.874    522.874
 86.170    523.000    546.573    -23.573    522.793    546.563    522.793    522.793    522.793
 86.270    553.000    547.542      5.458    522.710    547.530    522.710    522.710    522.710
 86.370    554.931    549.020      5.911    522.626    549.006    522.626    522.626    522.626
 86.470    499.000    551.085    -52.085    522.540    551.069    522.540    522.540    522.540
 86.570    596.592    553.836     42.756    522.451    553.815    522.451    522.451    522.451
 86.670    586.813    557.384     29.430    522.361    557.359    522.361    522.361    522.361
 86.770    576.875    561.841     15.034    522.269    561.811    522.269    522.269    522.269
 86.870    611.000    567.306     43.694    522.176    567.269    522.176    522.176    522.176
 86.970    595.308    573.844     21.464    522.080    573.798    522.080    522.080    522.080
 87.070    578.000    581.461     -3.461    521.983    581.407    521.983    521.983    521.983
 87.170    573.000    590.086    -17.086    521.883    590.022    521.883    521.883    521.883
 87.270    611.000    599.545     11.455    521.782    599.471    521.782    521.782    521.782
 87.370    656.000    609.543     46.457    521.679    609.458    521.679    521.679    521.679
 87.470    598.000    619.651    -21.651    521.574    619.555    521.574    521.574    521.574
 87.570    676.171    629.305     46.866    521.468    629.201    521.468    521.468    521.468
 87.670    626.454    637.830    -11.376    521.359    637.719    521.359    521.359    521.359
 87.770    673.000    644.506     28.494    521.248    644.391    521.248    521.248    521.248
 87.870    635.000    648.704    -13.704    521.136    648.589    521.136    521.136    521.136
 87.970    646.947    650.044     -3.097    521.022    649.933    521.022    521.022    521.022
 88.070    659.000    648.514     10.486    520.906    648.410    520.906    520.906    520.906
 88.170    694.069    644.472     49.597    520.788    644.378    520.788    520.788    520.788
 88.270    650.907    638.538     12.369    520.668    638.456    520.668    520.668    520.668
 88.370    633.631    631.455      2.177    520.547    631.385    520.547    520.547    520.547
 88.470    573.162    623.974    -50.812    520.423    623.918    520.423    520.423    520.423
 88.570    629.000    616.790     12.210    520.298    616.746    520.298    520.298    520.298
 88.670    606.000    610.499     -4.499    520.170    610.467    520.170    520.170    520.170
 88.770    643.242    605.568     37.674    520.041    605.548    520.041    520.041    520.041
 88.870    562.195    602.316    -40.121    519.910    602.306    519.910    519.910    519.910
 88.970    554.294    600.901    -46.607    519.778    600.901    519.778    519.778    519.778
 89.070    562.000    601.318    -39.318    519.643    601.327    519.643    519.643    519.643
 89.170    572.000    603.410    -31.410    519.506    603.428    519.506    519.506    519.506
 89.270    650.240    606.874     43.366    519.368    606.901    519.368    519.368    519.368
 89.370    631.787    611.280     20.507    519.228    611.315    519.228    519.228    519.228
 89.470    660.000    616.087     43.913    519.085    616.130    519.085    519.085    519.085
 89.570    629.000    620.667      8.333    518.941    620.717    518.941    518.941    518.941
 89.670    648.000    624.357     23.643    518.796    624.413    518.796    518.796    518.796
 89.770    666.125    626.536     39.589    518.648    626.597    518.648    518.648    518.648
 89.870    623.000    626.746     -3.746    518.498    626.810    518.498    518.498    518.498
 89.970    596.000    624.796    -28.796    518.347    624.861    518.347    518.347    518.347
 90.070    626.000    620.799      5.201    518.194    620.862    518.194    518.194    518.194
 90.170    648.391    615.117     33.274    518.039    615.178    518.039    518.039    518.039
 90.270    600.000    608.247     -8.247    517.882    608.303    517.882    517.882    517.882
 90.370    586.000    600.710    -14.710    517.723    600.761    517.723    517.723    517.723
 90.470    567.000    592.977    -25.977    517.563    593.021    517.563    517.563    517.563
 90.570    561.478    585.439    -23.961    517.400    585.477    517.400    517.400    517.400
 90.670    537.000    578.396    -41.396    517.236    578.428    517.236    517.236    517.236
 90.770    516.881    572.061    -55.180    517.070    572.087    517.070    517.070    517.070
 90.870    551.247    566.562    -15.314    516.902    566.582    516.902    516.902    516.902
 90.970    577.000    561.958     15.042    516.732    561.974    516.732    516.732    516.732
 91.070    520.727    558.250    -37.523    516.561    558.262    516.561    516.561    516.561
 91.170    566.732    555.397     11.334    516.388    555.406    516.388    516.388    516.388
 91.270    524.000    553.335    -29.335    516.213    553.341    516.213    516.213    516.213
 91.370    537.000    551.991    -14.991    516.036    551.994    516.036    516.036    516.036
 91.470    540.000    551.297    -11.297    515.857    551.299    515.857    515.857    515.857
 91.570    573.255    551.205     22.050    515.677    551.205    515.677    515.677    515.677
 91.670    514.634    551.692    -37.058    515.495    551.690    515.495    515.495    515.495
 91.770    501.000    552.765    -51.765    515.311    552.762    515.311    515.311    515.311
 91.870    565.000    554.469     10.531    515.125    554.464    515.125    515.125    515.125
 91.970    539.000    556.880    -17.880    514.937    556.873    514.937    514.937    514.937
 92.070    532.000    560.105    -28.105    514.748    560.096    514.748    514.748    514.748
 92.170    543.662    564.278    -20.616    514.557    564.266    514.557    514.557    514.557
 92.270    515.000    569.548    -54.548    514.365    569.533    514.365    514.365    514.365
 92.370    518.000    576.070    -58.070    514.170    576.051    514.170    514.170    514.170
 92.470    579.000    583.992     -4.992    513.974    583.969    513.974    513.974    513.974
 92.570    559.000    593.438    -34.438    513.776    593.410    513.776    513.776    513.776
 92.670    574.000    604.495    -30.495    513.577    604.461    513.577    513.577    513.577
 92.770    612.000    617.192     -5.192    513.375    617.152    513.375    513.375    513.375
 92.870    601.000    631.490    -30.490    513.172    631.444    513.172    513.172    513.172
 92.970    652.000    647.266      4.734    512.968    647.212    512.968    512.968    512.968
 93.070    616.000    664.295    -48.295    512.761    664.235    512.761    512.761    512.761
 93.170    613.000    682.249    -69.249    512.553    682.182    512.553    512.553    512.553
 93.270    694.000    700.690     -6.690    512.344    700.618    512.344    512.344    512.344
 93.370    715.000    719.103     -4.103    512.132    719.026    512.132    512.132    512.132
 93.470    726.972    736.956     -9.984    511.919    736.875    511.919    511.919    511.919
 93.570    761.449    753.804      7.645    511.705    753.721    511.705    511.705    511.705
 93.670    767.000    769.398     -2.398    511.488    769.313    511.488    511.488    511.488
 93.770    765.000    783.736    -18.736    511.271    783.652    511.271    511.271    511.271
 93.870    812.000    797.028     14.972    511.051    796.944    511.051    511.051    511.051
 93.970    837.000    809.575     27.425    510.830    809.493    510.830    510.830    510.830
 94.070    808.000    821.646    -13.646    510.607    821.565    510.607    510.607    510.607
 94.170    844.000    833.387     10.613    510.383    833.309    510.383    510.383    510.383
 94.270    863.000    844.832     18.168    510.158    844.756    510.158    510.158    510.158
 94.370    877.000    855.963     21.037    509.930    855.890    509.930    509.930    509.930
 94.470    882.000    866.795     15.205    509.701    866.725    509.701    509.701    509.701
 94.570    876.000    877.393     -1.393    509.471    877.327    509.471    509.471    509.471
 94.670    917.000    887.789     29.211    509.239    887.726    509.239    509.239    509.239
 94.770    916.000    897.925     18.075    509.006    897.866    509.006    509.006    509.006
 94.870    909.000    907.428      1.572    508.771    907.374    508.771    508.771    508.771
 94.970    968.000    915.612     52.388    508.534    915.563    508.534    508.534    508.534
 95.070    896.000    921.509    -25.509    508.296    921.467    508.296    508.296    508.296
 95.170    934.000    923.994     10.006    508.057    923.960    508.057    508.057    508.057
 95.270    976.040    922.006     54.033    507.816    921.980    507.816    507.816    507.816
 95.370    899.000    914.832    -15.832    507.574    914.814    507.574    507.574    507.574
 95.470    933.000    902.351     30.649    507.331    902.340    507.331    507.331    507.331
 95.570    879.000    885.119     -6.119    507.086    885.115    507.086    507.086    507.086
 95.670    875.000    864.275     10.725    506.839    864.276    506.839    506.839    506.839
 95.770    778.000    841.312    -63.312    506.591    841.316    506.591    506.591    506.591
 95.870    829.000    817.857     11.143    506.342    817.862    506.342    506.342    506.342
 95.970    786.537    795.510     -8.972    506.092    795.515    506.092    506.092    506.092
 96.070    722.420    775.765    -53.345    505.840    775.769    505.840    505.840    505.840
 96.170    728.000    759.972    -31.972    505.587    759.972    505.587    505.587    505.587
 96.270    789.000    749.320     39.680    505.332    749.316    505.332    505.332    505.332
 96.370    745.000    744.834      0.166    505.076    744.824    505.076    505.076    505.076
 96.470    748.000    747.364      0.636    504.819    747.348    504.819    504.819    504.819
 96.570    824.196    757.579     66.617    504.561    757.556    504.561    504.561    504.561
 96.670    775.000    775.956     -0.956    504.301    775.924    504.301    504.301    504.301
 96.770    797.000    802.759     -5.759    504.041    802.718    504.041    504.041    504.041
 96.870    852.279    838.016     14.264    503.779    837.966    503.779    503.779    503.779
 96.970    914.913    881.483     33.430    503.515    881.425    503.515    503.515    503.515
 97.070    945.000    932.603     12.397    503.251    932.535    503.251    503.251    503.251
 97.170    989.726    990.452     -0.726    502.985    990.377    502.985    502.985    502.985
 97.270   1074.000   1053.697     20.303    502.719   1053.615    502.719    502.719    502.719
 97.370   1200.625   1120.548     80.077    502.451   1120.462    502.451    502.451    502.451
 97.470   1145.530   1188.732    -43.202    502.182   1188.644    502.182    502.182    502.182
 97.570   1276.000   1255.483     20.517    501.912   1255.395    501.912    501.912    501.912
 97.670   1383.150   1317.592     65.558    501.641   1317.509    501.641    501.641    501.641
 97.770   1457.000   1371.560     85.440    501.369   1371.486    501.369    501.369    501.369
 97.870   1429.000   1413.908     15.092    501.096   1413.846    501.096    501.096    501.096
 97.970   1443.000   1441.647      1.353    500.821   1441.600    500.821    500.821    500.821
 98.070   1483.000   1452.819     30.181    500.546   1452.790    500.546    500.546    500.546
 98.170   1488.000   1446.901     41.099    500.270   1446.890    500.270    500.270    500.270
 98.270   1439.478   1424.896     14.582    499.993   1424.902    499.993    499.993    499.993
 98.370   1364.904   1389.086    -24.182    499.715   1389.108    499.715    499.715    499.715
 98.470   1422.000   1342.544     79.456    499.436   1342.577    499.436    499.436    499.436
 98.570   1256.224   1288.680    -32.456    499.156   1288.721    499.156    499.156    499.156
 98.670   1263.000   1230.889     32.111    498.875   1230.935    498.875    498.875    498.875
 98.770   1163.551   1172.334     -8.782    498.593   1172.382    498.593    498.593    498.593
 98.870   1082.000   1115.832    -33.832    498.311   1115.879    498.311    498.311    498.311
 98.970   1062.000   1063.818     -1.818    498.027   1063.862    498.027    498.027    498.027
 99.070    969.000   1018.350    -49.350    497.743   1018.389    497.743    497.743    497.743
 99.170    966.000    981.134    -15.134    497.458    981.166    497.458    497.458    497.458
 99.270    962.000    953.555      8.445    497.172    953.580    497.172    497.172    497.172
 99.370    928.000    936.693     -8.693    496.886    936.711    496.886    496.886    496.886
 99.470    901.000    931.321    -30.321    496.599    931.331    496.599    496.599    496.599
 99.570    923.000    937.964    -14.964    496.311    937.969    496.311    496.311    496.311
 99.670    986.000    956.937     29.063    496.023    956.936    496.023    496.023    496.023
 99.770    989.000    988.172      0.828    495.734    988.168    495.734    495.734    495.734
 99.870   1018.000   1031.365    -13.365    495.444   1031.359    495.444    495.444    495.444
 99.970   1153.958   1085.922     68.036    495.153   1085.915    495.153    495.153    495.153
100.070   1177.000   1150.924     26.076    494.863   1150.919    494.863    494.863    494.863
100.170   1297.000   1225.086     71.914    494.571   1225.087    494.571    494.571    494.571
100.270   1265.000   1306.716    -41.716    494.279   1306.725    494.279    494.279    494.279
100.370   1429.000   1393.702     35.298    493.987   1393.722    493.987    493.987    493.987
100.470   1556.352   1483.456     72.895    493.694   1483.490    493.694    493.694    493.694
100.570   1526.000   1573.015    -47.015    493.400   1573.066    493.400    493.400    493.400
100.670   1580.018   1659.197    -79.178    493.106   1659.266    493.106    493.106    493.106
100.770   1818.000   1738.863     79.137    492.812   1738.954    492.812    492.812    492.812
100.870   1848.000   1809.229     38.771    492.518   1809.342    492.518    492.518    492.518
100.970   1963.334   1868.094     95.240    492.223   1868.228    492.223    492.223    492.223
101.070   2063.000   1913.894    149.106    491.927   1914.049    491.927    491.927    491.927
101.170   1994.000   1945.565     48.435    491.632   1945.738    491.632    491.632    491.632
101.270   2040.000   1962.336     77.664    491.336   1962.523    491.336    491.336    491.336
101.370   1977.000   1963.627     13.373    491.040   1963.826    491.040    491.040    491.040
101.470   2031.000   1949.168     81.832    490.744   1949.376    490.744    490.744    490.744
101.570   1956.000   1919.294     36.706    490.447   1919.508    490.447    490.447    490.447
101.670   1867.000   1875.261     -8.261    490.151   1875.477    490.151    490.151    490.151
101.770   1847.747   1819.365     28.382    489.854   1819.580    489.854    489.854    489.854
101.870   1669.984   1754.765    -84.781    489.557   1754.975    489.557    489.557    489.557
101.970   1693.704   1685.066      8.638    489.260   1685.268    489.260    489.260    489.260
102.070   1572.000   1613.845    -41.845    488.963   1614.037    488.963    488.963    488.963
102.170   1453.000   1544.261    -91.261    488.666   1544.441    488.666    488.666    488.666
102.270   1473.000   1478.826     -5.826    488.369   1478.993    488.369    488.369    488.369
102.370   1376.000   1419.305    -43.305    488.072   1419.459    488.072    488.072    488.072
102.470   1356.000   1366.707    -10.707    487.775   1366.848    487.775    487.775    487.775
102.570   1356.175   1321.322     34.853    487.479   1321.452    487.479    487.479    487.479
102.670   1313.000   1282.779     30.221    487.182   1282.899    487.182    487.182    487.182
102.770   1194.000   1250.124    -56.124    486.885   1250.236    486.885    486.885    486.885
102.870   1202.672   1221.931    -19.259    486.589   1222.037    486.589    486.589    486.589
102.970   1195.000   1196.452     -1.452    486.293   1196.554    486.293    486.293    486.293
103.070   1175.355   1171.831      3.524    485.997   1171.930    485.997    485.997    485.997
103.170   1088.000   1146.342    -58.342    485.702   1146.439    485.702    485.702    485.702
103.270   1124.000   1118.671      5.329    485.407   1118.767    485.407    485.407    485.407
103.370   1145.000   1088.076     56.924    485.112   1088.171    485.112    485.112    485.112
103.470   1065.922   1054.377     11.545    484.818   1054.470    484.818    484.818    484.818
103.570   1026.000   1017.919      8.081    484.524   1018.009    484.524    484.524    484.524
103.670    957.000    979.398    -22.398    484.230    979.485    484.230    484.230    484.230
103.770    906.000    939.686    -33.686    483.937    939.769    483.937    483.937    483.937
103.870    959.451    899.688     59.763    483.645    899.766    483.645    483.645    483.645
103.970    909.000    860.262     48.738    483.353    860.333    483.353    483.353    483.353
104.070    864.000    822.162     41.838    483.061    822.227    483.061    483.061    483.061
104.170    726.070    786.022    -59.952    482.771    786.081    482.771    482.771    482.771
104.270    752.000    752.341     -0.341    482.481    752.393    482.481    482.481    482.481
104.370    743.985    721.490     22.495    482.191    721.537    482.191    482.191    482.191
104.470    756.000    693.694     62.306    481.903    693.734    481.903    481.903    481.903
104.570    667.000    669.052     -2.052    481.615    669.087    481.615    481.615    481.615
104.670    681.000    647.553     33.447    481.328    647.582    481.328    481.328    481.328
104.770    606.160    629.088    -22.928    481.042    629.112    481.042    481.042    481.042
104.870    638.000    613.478     24.522    480.756    613.498    480.756    480.756    480.756
104.970    601.000    600.494      0.506    480.472    600.510    480.472    480.472    480.472
105.070    593.000    589.880      3.120    480.188    589.893    480.188    480.188    480.188
105.170    595.379    581.373     14.006    479.906    581.383    479.906    479.906    479.906
105.270    576.000    574.720      1.280    479.624    574.727    479.624    479.624    479.624
105.370    592.000    569.690     22.310    479.344    569.695    479.344    479.344    479.344
105.470    604.554    566.085     38.469    479.065    566.087    479.065    479.065    479.065
105.570    586.000    563.743     22.257    478.787    563.743    478.787    478.787    478.787
105.670    588.000    562.538     25.462    478.510    562.536    478.510    478.510    478.510
105.770    619.670    562.384     57.285    478.234    562.380    478.234    478.234    478.234
105.870    561.000    563.227     -2.227    477.959    563.221    477.959    477.959    477.959
105.970    587.000    565.041     21.959    477.686    565.032    477.686    477.686    477.686
106.070    581.000    567.824     13.176    477.414    567.813    477.414    477.414    477.414
106.170    614.566    571.591     42.975    477.144    571.578    477.144    477.144    477.144
106.270    572.538    576.367     -3.829    476.875    576.351    476.875    476.875    476.875
106.370    649.000    582.178     66.822    476.607    582.159    476.607    476.607    476.607
106.470    587.000    589.042     -2.042    476.341    589.020    476.341    476.341    476.341
106.570    629.000    596.961     32.039    476.077    596.936    476.077    476.077    476.077
106.670    640.000    605.909     34.091    475.814    605.881    475.814    475.814    475.814
106.770    624.000    615.825      8.175    475.553    615.793    475.553    475.553    475.553
106.870    622.123    626.605     -4.482    475.293    626.571    475.293    475.293    475.293
106.970    683.000    638.100     44.900    475.035    638.062    475.035    475.035    475.035
107.070    622.000    650.109    -28.109    474.779    650.068    474.779    474.779    474.779
107.170    642.000    662.383    -20.383    474.525    662.340    474.525    474.525    474.525
107.270    623.309    674.619    -51.310    474.272    674.574    474.272    474.272    474.272
107.370    656.473    686.463    -29.990    474.021    686.417    474.021    474.021    474.021
107.470    679.000    697.588    -18.588    473.773    697.542    473.773    473.773    473.773
107.570    722.000    707.595     14.405    473.526    707.549    473.526    473.526    473.526
107.670    749.000    716.129     32.871    473.281    716.084    473.281    473.281    473.281
107.770    706.678    722.913    -16.235    473.039    722.870    473.039    473.039    473.039
107.870    767.199    727.789     39.410    472.798    727.748    472.798    472.798    472.798
107.970    717.000    730.756    -13.756    472.560    730.718    472.560    472.560    472.560
108.070    703.556    731.975    -28.419    472.324    731.941    472.324    472.324    472.324
108.170    721.456    731.748    -10.293    472.090    731.718    472.090    472.090    472.090
108.270    739.000    730.466      8.534    471.858    730.440    471.858    471.858    471.858
108.370    760.000    728.554     31.446    471.629    728.531    471.629    471.629    471.629
108.470    696.509    726.417    -29.908    471.402    726.398    471.402    471.402    471.402
108.570    742.000    724.405     17.595    471.178    724.390    471.178    471.178    471.178
108.670    645.000    722.787    -77.787    470.956    722.776    470.956    470.956    470.956
108.770    690.000    721.736    -31.736    470.737    721.728    470.737    470.737    470.737
108.870    686.300    721.325    -35.025    470.520    721.320    470.520    470.520    470.520
108.970    692.575    721.523    -28.948    470.306    721.521    470.306    470.306    470.306
109.070    709.000    722.200    -13.200    470.094    722.201    470.094    470.094    470.094
109.170    742.763    723.132     19.631    469.886    723.136    469.886    469.886    469.886
109.270    743.080    724.016     19.064    469.680    724.023    469.680    469.680    469.680
109.370    740.667    724.491     16.177    469.477    724.501    469.477    469.477    469.477
109.470    705.000    724.173    -19.173    469.277    724.186    469.277    469.277    469.277
109.570    780.496    722.702     57.794    469.079    722.717    469.079    469.079    469.079
109.670    777.000    719.786     57.214    468.885    719.804    468.885    468.885    468.885
109.770    700.000    715.250    -15.250    468.694    715.270    468.694    468.694    468.694
109.870    725.000    709.057     15.943    468.506    709.078    468.506    468.506    468.506
109.970    645.151    701.307    -56.156    468.321    701.328    468.321    468.321    468.321
110.070    730.714    692.210     38.505    468.139    692.232    468.139    468.139    468.139
110.170    701.000    682.053     18.947    467.961    682.075    467.961    467.961    467.961
110.270    612.943    671.158    -58.215    467.785    671.179    467.785    467.785    467.785
110.370    650.074    659.848     -9.774    467.614    659.869    467.614    467.614    467.614
110.470    658.803    648.432     10.371    467.445    648.451    467.445    467.445    467.445
110.570    606.000    637.184    -31.184    467.280    637.202    467.280    467.280    467.280
110.670    657.000    626.344     30.656    467.119    626.360    467.119    467.119    467.119
110.770    643.000    616.110     26.890    466.961    616.123    466.961    466.961    466.961
110.870    593.000    606.639    -13.639    466.807    606.650    466.807    466.807    466.807
110.970    559.000    598.051    -39.051    466.656    598.061    466.656    466.656    466.656
111.070    557.881    590.424    -32.543    466.509    590.432    466.509    466.509    466.509
111.170    637.051    583.802     53.249    466.366    583.808    466.366    466.366    466.366
111.270    609.000    578.194     30.806    466.227    578.199    466.227    466.227    466.227
111.370    619.000    573.585     45.415    466.092    573.587    466.092    466.092    466.092
111.470    569.000    569.932     -0.932    465.961    569.933    465.961    465.961    465.961
111.570    518.922    567.181    -48.259    465.834    567.180    465.834    465.834    465.834
111.670    581.000    565.260     15.740    465.711    565.258    465.711    465.711    465.711
111.770    576.000    564.094     11.906    465.592    564.090    465.592    465.592    465.592
111.870    576.194    563.603     12.591    465.477    563.598    465.477    465.477    465.477
111.970    565.189    563.708      1.481    465.366    563.703    465.366    465.366    465.366
112.070    603.000    564.336     38.664    465.260    564.329    465.260    465.260    465.260
112.170    563.000    565.417     -2.417    465.158    565.410    465.158    465.158    465.158
112.270    606.000    566.893     39.107    465.061    566.885    465.061    465.061    465.061
112.370    570.430    568.711      1.719    464.968    568.702    464.968    464.968    464.968
112.470    624.427    570.831     53.597    464.880    570.821    464.880    464.880    464.880
112.570    551.000    573.230    -22.230    464.796    573.221    464.796    464.796    464.796
112.670    612.995    575.898     37.097    464.717    575.888    464.717    464.717    464.717
112.770    589.000    578.831     10.169    464.643    578.821    464.643    464.643    464.643
112.870    563.000    582.044    -19.044    464.574    582.034    464.574    464.574    464.574
112.970    574.000    585.558    -11.558    464.509    585.547    464.509    464.509    464.509
113.070    578.000    589.432    -11.432    464.450    589.421    464.450    464.450    464.450
113.170    541.433    593.720    -52.286    464.395    593.708    464.395    464.395    464.395
113.270    608.000    598.496      9.504    464.346    598.484    464.346    464.346    464.346
113.370    567.485    603.860    -36.374    464.301    603.847    464.301    464.301    464.301
113.470    630.869    609.936     20.933    464.262    609.923    464.262    464.262    464.262
113.570    624.000    616.887      7.113    464.228    616.872    464.228    464.228    464.228
113.670    644.774    624.916     19.858    464.199    624.900    464.199    464.199    464.199
113.770    589.330    634.285    -44.955    464.176    634.267    464.176    464.176    464.176
113.870    668.000    645.322     22.678    464.158    645.301    464.158    464.158    464.158
113.970    656.000    658.438     -2.438    464.146    658.414    464.146    464.146    464.146
114.070    649.000    674.146    -25.146    464.139    674.118    464.139    464.139    464.139
114.170    699.000    693.074      5.926    464.138    693.041    464.138    464.138    464.138
114.270    700.000    715.989    -15.989    464.143    715.950    464.143    464.143    464.143
114.370    781.000    743.809     37.191    464.154    743.762    464.154    464.154    464.154
114.470    765.000    777.623    -12.623    464.170    777.565    464.170    464.170    464.170
114.570    858.000    818.696     39.304    464.192    818.626    464.192    464.192    464.192
114.670    784.000    868.480    -84.480    464.220    868.397    464.220    464.220    464.220
114.770    901.000    928.610    -27.610    464.255    928.510    464.255    464.255    464.255
114.870    998.000   1000.884     -2.884    464.295   1000.764    464.295    464.295    464.295
114.970   1136.636   1087.244     49.392    464.342   1087.101    464.342    464.342    464.342
115.070   1270.557   1189.726     80.830    464.395   1189.557    464.395    464.395    464.395
115.170   1314.000   1310.406      3.594    464.454   1310.208    464.454    464.454    464.454
115.270   1538.000   1451.319     86.681    464.520   1451.088    464.520    464.520    464.520
115.370   1681.158   1614.370     66.788    464.592   1614.105    464.592    464.592    464.592
115.470   1851.000   1801.226     49.774    464.671   1800.923    464.671    464.671    464.671
115.570   1952.489   2013.193    -60.704    464.756   2012.851    464.756    464.756    464.756
115.670   2289.000   2251.095     37.905    464.848   2250.712    464.848    464.848    464.848
115.770   2647.000   2515.140    131.860    464.947   2514.717    464.947    464.947    464.947
115.870   2866.000   2804.807     61.193    465.052   2804.345    465.052    465.052    465.052
115.970   3238.000   3118.729    119.271    465.165   3118.231    465.165    465.165    465.165
116.070   3517.887   3454.605     63.281    465.284   3454.075    465.284    465.284    465.284
116.170   3978.000   3809.133    168.867    465.411   3808.575    465.411    465.411    465.411
116.270   4164.000   4177.965    -13.965    465.545   4177.388    465.545    465.545    465.545
116.370   4664.000   4555.698    108.302    465.686   4555.111    465.686    465.686    465.686
116.470   5057.576   4935.891    121.684    465.834   4935.304    465.834    465.834    465.834
116.570   5414.607   5311.115    103.492    465.990   5310.540    465.990    465.990    465.990
116.670   5712.000   5673.050     38.950    466.153   5672.500    466.153    466.153    466.153
116.770   6268.000   6012.648    255.352    466.323   6012.137    466.323    466.323    466.323
116.870   6147.000   6320.384   -173.384    466.502   6319.927    466.502    466.502    466.502
116.970   6416.342   6586.643   -170.301    466.687   6586.255    466.687    466.687    466.687
117.070   6850.000   6802.256     47.744    466.881   6801.949    466.881    466.881    466.881
117.170   7139.879   6959.168    180.711    467.082   6958.953    467.082    467.082    467.082
117.270   6970.000   7051.182    -81.182    467.292   7051.066    467.292    467.292    467.292
117.370   7138.000   7074.622     63.378    467.509   7074.609    467.509    467.509    467.509
117.470   7121.407   7028.775     92.632    467.734   7028.862    467.734    467.734    467.734
117.570   6798.816   6915.971   -117.155    467.968   6916.152    467.968    467.968    467.968
117.670   6646.000   6741.294    -95.294    468.210   6741.559    468.210    468.210    468.210
117.770   6381.295   6511.989   -130.694    468.460   6512.325    468.460    468.460    468.460
117.870   5929.000   6236.735   -307.735    468.718   6237.128    468.718    468.718    468.718
117.970   5775.223   5924.925   -149.702    468.985   5925.360    468.985    468.985    468.985
118.070   5595.644   5586.062      9.582    469.261   5586.525    469.261    469.261    469.261
118.170   5208.000   5229.310    -21.310    469.545   5229.788    469.545    469.545    469.545
118.270   4734.000   4863.184   -129.184    469.838   4863.664    469.838    469.838    469.838
118.370   4565.000   4495.356     69.644    470.139   4495.829    470.139    470.139    470.139
118.470   4167.588   4132.536     35.052    470.450   4132.990    470.450    470.450    470.450
118.570   3826.000   3780.400     45.600    470.769   3780.829    470.769    470.769    470.769
118.670   3445.000   3443.550      1.450    471.098   3443.948    471.098    471.098    471.098
118.770   3199.691   3125.614     74.078    471.435   3125.977    471.435    471.435    471.435
118.870   2718.000   2829.227   -111.227    471.782   2829.553    471.782    471.782    471.782
118.970   2546.000   2556.044    -10.044    472.138   2556.332    472.138    472.138    472.138
119.070   2338.000   2306.924     31.076    472.504   2307.174    472.504    472.504    472.504
119.170   2009.000   2082.015    -73.015    472.879   2082.228    472.879    472.879    472.879
119.270   1832.000   1880.866    -48.866    473.263   1881.044    473.263    473.263    473.263
119.370   1656.000   1702.544    -46.544    473.657   1702.691    473.657    473.657    473.657
119.470   1571.000   1545.745     25.255    474.061   1545.864    474.061    474.061    474.061
119.570   1354.916   1408.902    -53.986    474.475   1408.997    474.475    474.475    474.475
119.670   1252.878   1290.279    -37.401    474.898   1290.352    474.898    474.898    474.898
119.770   1182.000   1188.059     -6.059    475.332   1188.114    475.332    475.332    475.332
119.870   1115.000   1100.418     14.582    475.776   1100.458    475.776    475.776    475.776
119.970   1000.000   1025.585    -25.585    476.230   1025.613    476.230    476.230    476.230
120.070    975.000    961.892     13.108    476.694    961.911    476.694    476.694    476.694
120.170    921.000    907.802     13.198    477.168    907.814    477.168    477.168    477.168
120.270    867.000    861.929      5.071    477.653    861.937    477.653    477.653    477.653
120.370    769.000    823.051    -54.051    478.149    823.055    478.149    478.149    478.149
120.470    854.741    790.101     64.640    478.655    790.103    478.655    478.655    478.655
120.570    815.885    762.169     53.716    479.171    762.170    479.171    479.171    479.171
120.670    708.699    738.481    -29.781    479.699    738.481    479.699    479.699    479.699
120.770    664.575    718.391    -53.817    480.237    718.392    480.237    480.237    480.237
120.870    761.000    701.364     59.636    480.787    701.366    480.787    480.787    480.787
120.970    711.000    686.959     24.041    481.348    686.961    481.348    481.348    481.348
121.070    619.000    674.812    -55.812    481.919    674.815    481.919    481.919    481.919
121.170    686.000    664.630     21.370    482.502    664.634    482.502    482.502    482.502
121.270    649.000    656.169     -7.169    483.097    656.174    483.097    483.097    483.097
121.370    675.695    649.231     26.464    483.702    649.237    483.702    483.702    483.702
121.470    602.000    643.652    -41.652    484.320    643.659    484.320    484.320    484.320
121.570    587.000    639.295    -52.295    484.949    639.303    484.949    484.949    484.949
121.670    632.411    636.044     -3.633    485.590    636.053    485.590    485.590    485.590
121.770    630.000    633.797     -3.797    486.242    633.808    486.242    486.242    486.242
121.870    596.116    632.466    -36.350    486.907    632.479    486.907    486.907    486.907
121.970    596.000    631.968    -35.968    487.583    631.982    487.583    487.583    487.583
122.070    572.775    632.224    -59.450    488.272    632.240    488.272    488.272    488.272
122.170    652.000    633.161     18.839    488.973    633.179    488.973    488.973    488.973
122.270    651.000    634.700     16.300    489.686    634.720    489.686    489.686    489.686
122.370    640.000    636.765      3.235    490.412    636.788    490.412    490.412    490.412
122.470    611.000    639.274    -28.274    491.150    639.299    491.150    491.150    491.150
122.570    657.000    642.141     14.859    491.901    642.169    491.901    491.901    491.901
122.670    676.000    645.276     30.724    492.665    645.306    492.665    492.665    492.665
122.770    656.000    648.581      7.419    493.441    648.614    493.441    493.441    493.441
122.870    684.000    651.955     32.045    494.231    651.991    494.231    494.231    494.231
122.970    613.931    655.290    -41.358    495.033    655.329    495.033    495.033    495.033
123.070    653.000    658.475     -5.475    495.849    658.517    495.849    495.849    495.849
123.170    651.000    661.398    -10.398    496.677    661.443    496.677    496.677    496.677
123.270    656.000    663.946     -7.946    497.520    663.994    497.520    497.520    497.520
123.370    668.000    666.016      1.984    498.375    666.066    498.375    498.375    498.375
123.470    658.000    667.513     -9.513    499.244    667.565    499.244    499.244    499.244
123.570    700.719    668.361     32.359    500.127    668.415    500.127    500.127    500.127
123.670    707.000    668.506     38.494    501.024    668.562    501.024    501.024    501.024
123.770    699.000    667.921     31.079    501.934    667.978    501.934    501.934    501.934
123.870    677.809    666.605     11.204    502.858    666.662    502.858    502.858    502.858
123.970    622.883    664.582    -41.700    503.797    664.640    503.797    503.797    503.797
124.070    688.423    661.900     26.524    504.749    661.957    504.749    504.749    504.749
124.170    638.000    658.622    -20.622    505.716    658.678    505.716    505.716    505.716
124.270    668.324    654.824     13.499    506.697    654.879    506.697    506.697    506.697
124.370    671.102    650.589     20.513    507.693    650.642    507.693    507.693    507.693
124.470    662.949    646.001     16.948    508.704    646.052    508.704    508.704    508.704
124.570    664.000    641.147     22.853    509.729    641.196    509.729    509.729    509.729
124.670    616.000    636.109    -20.109    510.769    636.155    510.769    510.769    510.769
124.770    589.733    630.966    -41.233    511.824    631.010    511.824    511.824    511.824
124.870    632.961    625.794      7.167    512.894    625.835    512.894    512.894    512.894
124.970    642.000    620.663     21.337    513.979    620.701    513.979    513.979    513.979
