neutron_powder_diffraction_0213
R_wp: 3.959
Temperature (K): 1074.100
Counts: 83947.00
Wavelength (Ã…): 2.52098
COMMENTS
Test file for demonstrating the .xyy file format in Reel1.0
END OF HEADER
   tth       Y_obs     Y_calc      Y_res    Background    Phase_1_Nuc    Phase_1_Mag    Phase_2_Nuc    Phase_2_Mag
  9.970    571.517    574.360     -2.843    573.677    574.340    573.677    573.696    573.677
 10.070    649.000    574.482     74.518    573.742    574.462    573.742    573.761    573.742
 10.170    598.000    574.607     23.393    573.801    574.587    573.801    573.820    573.801
 10.270    642.000    574.735     67.265    573.854    574.715    573.854    573.874    573.854
 10.370    617.000    574.871     42.129    573.902    574.850    573.902    573.921    573.902
 10.470    588.000    575.015     12.985    573.943    574.995    573.943    573.963    573.943
 10.570    583.000    575.172      7.828    573.979    575.152    573.979    573.999    573.979
 10.670    579.000    575.348      3.652    574.009    575.327    574.009    574.029    574.009
 10.770    593.000    575.547     17.453    574.034    575.526    574.034    574.054    574.034
 10.870    612.000    575.780     36.220    574.053    575.759    574.053    574.073    574.053
 10.970    586.000    576.059      9.941    574.067    576.038    574.067    574.087    574.067
 11.070    603.000    576.401     26.599    574.075    576.379    574.075    574.095    574.075
 11.170    540.614    576.832    -36.219    574.078    576.810    574.078    574.098    574.078
 11.270    589.000    577.393     11.607    574.075    577.370    574.075    574.095    574.075
 11.370    568.000    578.151    -10.151    574.067    578.128    574.067    574.088    574.067
 11.470    614.000    579.258     34.742    574.054    579.235    574.054    574.075    574.054
 11.570    588.000    581.132      6.868    574.035    581.107    574.035    574.056    574.035
 11.670    568.824    584.945    -16.121    574.012    584.918    574.012    574.033    574.012
 11.770    590.000    593.386     -3.386    573.983    593.353    573.983    574.005    573.983
 11.870    611.503    610.731      0.772    573.950    610.688    573.950    573.971    573.950
 11.970    676.000    640.237     35.763    573.911    640.178    573.911    573.933    573.911
 12.070    641.303    678.060    -36.757    573.868    677.979    573.868    573.889    573.868
 12.170    713.000    707.743      5.257    573.819    707.644    573.819    573.841    573.819
 12.270    684.000    708.654    -24.654    573.766    708.555    573.766    573.788    573.766
 12.370    659.000    679.929    -20.929    573.708    679.847    573.708    573.730    573.708
 12.470    692.341    641.837     50.504    573.645    641.776    573.645    573.667    573.645
 12.570    577.000    611.566    -34.566    573.578    611.522    573.578    573.600    573.578
 12.670    570.000    593.531    -23.531    573.506    593.497    573.506    573.528    573.506
 12.770    568.008    584.651    -16.643    573.429    584.622    573.429    573.452    573.429
 12.870    525.000    580.589    -55.589    573.348    580.562    573.348    573.371    573.348
 12.970    543.000    578.557    -35.557    573.262    578.531    573.262    573.285    573.262
 13.070    546.368    577.324    -30.956    573.172    577.299    573.172    573.195    573.172
 13.170    574.000    576.454     -2.454    573.078    576.428    573.078    573.102    573.078
 13.270    581.000    575.789      5.211    572.979    575.761    572.979    573.006    572.979
 13.370    601.151    575.254     25.897    572.876    575.226    572.876    572.903    572.876
 13.470    564.000    574.813    -10.813    572.769    574.783    572.769    572.797    572.769
 13.570    606.000    574.436     31.564    572.657    574.405    572.657    572.687    572.657
 13.670    543.000    574.107    -31.107    572.541    574.076    572.541    572.571    572.541
 13.770    546.000    573.812    -27.812    572.422    573.782    572.422    572.452    572.422
 13.870    606.701    573.545     33.157    572.298    573.514    572.298    572.328    572.298
 13.970    540.841    573.297    -32.455    572.170    573.266    572.170    572.200    572.170
 14.070    508.000    573.064    -65.064    572.038    573.033    572.038    572.069    572.038
 14.170    546.000    572.842    -26.842    571.902    572.811    571.902    571.933    571.902
 14.270    546.828    572.629    -25.802    571.763    572.598    571.763    571.794    571.763
 14.370    555.000    572.426    -17.426    571.620    572.394    571.620    571.651    571.620
 14.470    578.000    572.225      5.775    571.472    572.194    571.472    571.504    571.472
 14.570    549.000    572.027    -23.027    571.322    571.995    571.322    571.353    571.322
 14.670    584.000    571.830     12.170    571.167    571.798    571.167    571.199    571.167
 14.770    540.113    571.635    -31.522    571.009    571.603    571.009    571.041    571.009
 14.870    543.000    571.442    -28.442    570.847    571.408    570.847    570.880    570.847
 14.970    574.283    571.258      3.025    570.682    571.214    570.682    570.726    570.682
 15.070    532.000    571.065    -39.065    570.513    571.019    570.513    570.558    570.513
 15.170    553.750    570.870    -17.120    570.341    570.824    570.341    570.386    570.341
 15.270    603.813    570.674     33.139    570.165    570.628    570.165    570.211    570.165
 15.370    562.000    570.477     -8.477    569.986    570.430    569.986    570.032    569.986
 15.470    566.325    570.278     -3.953    569.803    570.231    569.803    569.850    569.803
 15.570    556.165    570.078    -13.913    569.618    570.031    569.618    569.665    569.618
 15.670    594.000    569.876     24.124    569.429    569.828    569.429    569.477    569.429
 15.770    542.596    569.677    -27.082    569.237    569.624    569.237    569.290    569.237
 15.870    586.000    569.472     16.528    569.041    569.418    569.041    569.096    569.041
 15.970    594.470    569.264     25.205    568.843    569.210    568.843    568.898    568.843
 16.070    553.000    569.055    -16.055    568.641    568.999    568.641    568.697    568.641
 16.170    560.000    568.844     -8.844    568.437    568.788    568.437    568.493    568.437
 16.270    575.000    568.632      6.368    568.229    568.575    568.229    568.286    568.229
 16.370    549.000    568.415    -19.415    568.019    568.358    568.019    568.076    568.019
 16.470    531.000    568.197    -37.197    567.806    568.139    567.806    567.863    567.806
 16.570    514.000    567.976    -53.976    567.589    567.918    567.589    567.647    567.589
 16.670    592.989    567.753     25.237    567.370    567.694    567.370    567.428    567.370
 16.770    562.000    567.527     -5.527    567.148    567.469    567.148    567.207    567.148
 16.870    574.000    567.300      6.700    566.924    567.240    566.924    566.983    566.924
 16.970    564.000    567.070     -3.070    566.697    567.010    566.697    566.756    566.697
 17.070    573.000    566.838      6.162    566.467    566.778    566.467    566.526    566.467
 17.170    535.450    566.606    -31.156    566.234    566.546    566.234    566.294    566.234
 17.270    604.008    566.370     37.637    565.999    566.309    565.999    566.060    565.999
 17.370    567.000    566.132      0.868    565.761    566.070    565.761    565.822    565.761
 17.470    545.132    565.891    -20.758    565.521    565.829    565.521    565.582    565.521
 17.570    551.247    565.648    -14.401    565.278    565.586    565.278    565.340    565.278
 17.670    538.077    565.403    -27.326    565.033    565.340    565.033    565.096    565.033
 17.770    520.647    565.156    -44.508    564.786    565.093    564.786    564.849    564.786
 17.870    552.000    564.907    -12.907    564.536    564.843    564.536    564.599    564.536
 17.970    568.000    564.656      3.344    564.284    564.592    564.284    564.347    564.284
 18.070    594.055    564.402     29.653    564.029    564.338    564.029    564.093    564.029
 18.170    563.000    564.147     -1.147    563.772    564.083    563.772    563.837    563.772
 18.270    564.063    563.890      0.172    563.514    563.825    563.514    563.579    563.514
 18.370    558.000    563.632     -5.632    563.252    563.566    563.252    563.318    563.252
 18.470    585.889    563.371     22.518    562.989    563.304    562.989    563.056    562.989
 18.570    538.000    563.108    -25.108    562.724    563.041    562.724    562.791    562.724
 18.670    571.000    562.844      8.156    562.457    562.777    562.457    562.524    562.457
 18.770    580.000    562.579     17.421    562.187    562.510    562.187    562.255    562.187
 18.870    571.710    562.312      9.399    561.916    562.242    561.916    561.985    561.916
 18.970    546.000    562.045    -16.045    561.643    561.972    561.643    561.715    561.643
 19.070    555.000    561.775     -6.775    561.367    561.701    561.367    561.441    561.367
 19.170    588.000    561.503     26.497    561.090    561.429    561.090    561.165    561.090
 19.270    602.456    561.230     41.226    560.811    561.154    560.811    560.887    560.811
 19.370    560.000    560.955     -0.955    560.531    560.879    560.531    560.607    560.531
 19.470    602.000    560.680     41.320    560.248    560.602    560.248    560.325    560.248
 19.570    560.269    560.401     -0.133    559.964    560.323    559.964    560.042    559.964
 19.670    557.638    560.122     -2.483    559.678    560.043    559.678    559.757    559.678
 19.770    534.000    559.842    -25.842    559.390    559.763    559.390    559.470    559.390
 19.870    535.899    559.574    -23.675    559.101    559.494    559.101    559.181    559.101
 19.970    531.805    559.301    -27.496    558.810    559.220    558.810    558.891    558.810
 20.070    520.103    559.017    -38.914    558.518    558.936    558.518    558.599    558.518
 20.170    571.000    558.732     12.268    558.224    558.649    558.224    558.306    558.224
 20.270    518.519    558.446    -39.927    557.928    558.362    557.928    558.012    557.928
 20.370    590.000    558.158     31.842    557.631    558.074    557.631    557.715    557.631
 20.470    594.604    557.870     36.734    557.333    557.785    557.333    557.418    557.333
 20.570    550.000    557.581     -7.581    557.033    557.495    557.033    557.119    557.033
 20.670    545.000    557.291    -12.291    556.732    557.205    556.732    556.819    556.732
 20.770    517.000    557.001    -40.001    556.430    556.914    556.430    556.517    556.430
 20.870    574.000    556.711     17.289    556.126    556.622    556.126    556.215    556.126
 20.970    574.000    556.420     17.580    555.821    556.329    555.821    555.912    555.821
 21.070    552.205    556.129     -3.924    555.515    556.037    555.515    555.607    555.515
 21.170    534.000    555.837    -21.837    555.207    555.744    555.207    555.300    555.207
 21.270    538.000    555.545    -17.545    554.898    555.450    554.898    554.993    554.898
 21.370    594.000    555.252     38.748    554.589    555.157    554.589    554.684    554.589
 21.470    554.845    554.960     -0.115    554.278    554.864    554.278    554.374    554.278
 21.570    586.000    554.669     31.331    553.966    554.571    553.966    554.063    553.966
 21.670    548.000    554.377     -6.377    553.653    554.279    553.653    553.751    553.653
 21.770    604.000    554.087     49.913    553.338    553.987    553.338    553.438    553.338
 21.870    525.000    553.797    -28.797    553.023    553.696    553.023    553.124    553.023
 21.970    536.000    553.519    -17.519    552.707    553.416    552.707    552.810    552.707
 22.070    552.105    553.338     -1.233    552.390    553.234    552.390    552.494    552.390
 22.170    581.000    553.112     27.888    552.072    553.003    552.072    552.182    552.072
 22.270    608.000    552.882     55.118    551.754    552.769    551.754    551.866    551.754
 22.370    526.000    552.623    -26.623    551.434    552.509    551.434    551.548    551.434
 22.470    540.964    552.353    -11.389    551.114    552.237    551.114    551.230    551.114
 22.570    519.000    552.081    -33.081    550.792    551.964    550.792    550.910    550.792
 22.670    545.000    551.814     -6.814    550.470    551.695    550.470    550.590    550.470
 22.770    552.000    551.553      0.447    550.148    551.432    550.148    550.269    550.148
 22.870    523.418    551.299    -27.881    549.824    551.177    549.824    549.947    549.824
 22.970    585.000    551.054     33.946    549.500    550.930    549.500    549.625    549.500
 23.070    547.000    550.821     -3.821    549.175    550.694    549.175    549.302    549.175
 23.170    573.000    550.601     22.399    548.850    550.473    548.850    548.978    548.850
 23.270    532.000    550.398    -18.398    548.524    550.268    548.524    548.655    548.524
 23.370    586.043    550.218     35.825    548.197    550.086    548.197    548.330    548.197
 23.470    534.702    550.068    -15.366    547.870    549.933    547.870    548.005    547.870
 23.570    517.000    549.957    -32.957    547.543    549.821    547.543    547.680    547.543
 23.670    515.000    549.896    -34.896    547.215    549.757    547.215    547.354    547.215
 23.770    600.000    549.905     50.095    546.886    549.764    546.886    547.028    546.886
 23.870    562.000    550.015     11.985    546.557    549.872    546.557    546.702    546.557
 23.970    506.396    550.283    -43.887    546.228    550.137    546.228    546.376    546.228
 24.070    570.000    550.839     19.161    545.898    550.690    545.898    546.049    545.898
 24.170    546.000    552.053     -6.053    545.568    551.902    545.568    545.722    545.568
 24.270    564.000    554.906      9.094    545.237    554.755    545.237    545.394    545.237
 24.370    519.815    561.432    -41.617    544.906    561.282    544.906    545.067    544.906
 24.470    577.750    574.425      3.325    544.575    574.280    544.575    544.740    544.575
 24.570    603.000    595.245      7.755    544.244    595.112    544.244    544.412    544.244
 24.670    558.000    619.828    -61.828    543.913    619.708    543.913    544.085    543.913
 24.770    655.000    636.082     18.918    543.581    635.970    543.581    543.757    543.581
 24.870    629.759    632.055     -2.297    543.249    631.936    543.249    543.430    543.249
 24.970    612.000    611.026      0.974    542.917    610.887    542.917    543.102    542.917
 25.070    522.000    586.395    -64.395    542.585    586.234    542.585    542.775    542.585
 25.170    531.973    567.548    -35.575    542.252    567.368    542.252    542.448    542.252
 25.270    515.798    556.358    -40.560    541.920    556.165    541.920    542.122    541.920
 25.370    578.000    550.700     27.300    541.587    550.495    541.587    541.797    541.587
 25.470    561.000    547.949     13.051    541.255    547.735    541.255    541.472    541.255
 25.570    555.180    546.452      8.728    540.922    546.231    540.922    541.146    540.922
 25.670    567.000    545.470     21.530    540.590    545.240    540.590    540.821    540.590
 25.770    571.000    544.732     26.268    540.257    544.494    540.257    540.497    540.257
 25.870    556.000    544.143     11.857    539.925    543.896    539.925    540.173    539.925
 25.970    525.020    543.658    -18.638    539.593    543.401    539.593    539.850    539.593
 26.070    557.000    543.251     13.749    539.260    542.984    539.260    539.527    539.260
 26.170    573.000    542.933     30.067    538.928    542.656    538.928    539.206    538.928
 26.270    522.000    542.668    -20.668    538.596    542.379    538.596    538.886    538.596
 26.370    520.858    542.433    -21.575    538.264    542.131    538.264    538.567    538.264
 26.470    555.274    542.248     13.027    537.933    541.932    537.933    538.249    537.933
 26.570    505.356    542.119    -36.763    537.601    541.787    537.601    537.933    537.601
 26.670    558.000    542.052     15.948    537.270    541.704    537.270    537.618    537.270
 26.770    555.000    542.047     12.953    536.939    541.681    536.939    537.305    536.939
 26.870    581.878    542.124     39.754    536.609    541.737    536.609    536.995    536.609
 26.970    537.000    542.318     -5.318    536.278    541.908    536.278    536.687    536.278
 27.070    543.000    542.659      0.341    535.948    542.225    535.948    536.382    535.948
 27.170    539.632    543.132     -3.500    535.618    542.670    535.618    536.080    535.618
 27.270    541.000    543.827     -2.827    535.289    543.333    535.289    535.782    535.289
 27.370    582.591    544.836     37.755    534.960    544.307    534.960    535.488    534.960
 27.470    550.000    546.326      3.674    534.631    545.756    534.631    535.199    534.631
 27.570    564.000    548.720     15.280    534.303    548.104    534.303    534.917    534.303
 27.670    589.000    553.478     35.522    533.975    552.808    533.975    534.641    533.975
 27.770    528.334    565.391    -37.056    533.648    564.656    533.648    534.374    533.648
 27.870    612.004    596.240     15.764    533.321    595.426    533.321    534.118    533.321
 27.970    691.748    663.818     27.930    532.995    662.899    532.995    533.873    532.995
 28.070    832.000    775.462     56.538    532.669    774.414    532.669    533.645    532.669
 28.170    932.999    899.740     33.259    532.344    898.549    532.344    533.436    532.344
 28.270    940.000    961.126    -21.126    532.019    959.798    532.019    533.251    532.019
 28.370    932.000    909.528     22.472    531.695    908.064    531.695    533.097    531.695
 28.470    737.000    798.377    -61.377    531.371    796.736    531.371    532.986    531.371
 28.570    726.508    712.245     14.263    531.048    710.351    531.048    532.930    531.048
 28.670    668.000    694.401    -26.401    530.726    692.155    530.726    532.957    530.726
 28.770    759.184    739.952     19.232    530.404    737.224    530.404    533.112    530.404
 28.870    774.000    808.817    -34.817    530.083    805.397    530.083    533.490    530.083
 28.970    808.950    841.247    -32.297    529.763    836.741    529.763    534.270    529.763
 29.070    777.819    801.848    -24.029    529.443    795.542    529.443    535.760    529.443
 29.170    670.000    721.761    -51.761    529.124    712.500    529.124    538.397    529.124
 29.270    649.000    648.810      0.190    528.805    634.989    528.805    542.634    528.805
 29.370    599.000    604.640     -5.640    528.488    584.444    528.488    548.685    528.488
 29.470    544.723    586.615    -41.892    528.171    558.716    528.171    556.069    528.171
 29.570    573.000    582.480     -9.480    527.855    547.381    527.855    562.950    527.855
 29.670    592.405    580.807     11.598    527.540    542.279    527.540    566.064    527.540
 29.770    591.000    575.545     15.455    527.225    539.513    527.225    563.254    527.225
 29.870    574.422    566.975      7.447    526.912    537.705    526.912    556.179    526.912
 29.970    635.000    557.944     77.056    526.599    536.428    526.599    548.113    526.599
 30.070    566.000    550.405     15.595    526.287    535.542    526.287    541.149    526.287
 30.170    568.000    545.012     22.988    525.976    535.020    525.976    535.966    525.976
 30.270    569.000    541.756     27.244    525.666    534.976    525.666    532.443    525.666
 30.370    568.000    540.651     27.349    525.357    535.855    525.357    530.149    525.357
 30.470    584.000    542.408     41.592    525.048    538.814    525.048    528.635    525.048
 30.570    555.000    548.807      6.193    524.741    545.965    524.741    527.571    524.741
 30.670    582.000    561.912     20.088    524.435    559.567    524.435    526.756    524.435
 30.770    608.000    581.485     26.515    524.129    579.493    524.129    526.083    524.129
 30.870    596.000    601.734     -5.734    523.825    600.008    523.825    525.499    523.825
 30.970    612.000    610.955      1.045    523.521    609.445    523.521    524.976    523.521
 31.070    642.184    601.387     40.797    523.219    600.063    523.219    524.497    523.219
 31.170    572.000    580.238     -8.238    522.917    579.073    522.917    524.052    522.917
 31.270    537.366    559.213    -21.847    522.617    558.181    522.617    523.633    522.617
 31.370    540.904    544.352     -3.448    522.317    543.426    522.317    523.234    522.317
 31.470    530.000    535.987     -5.987    522.019    535.149    522.019    522.853    522.019
 31.570    542.000    531.903     10.097    521.722    531.137    521.722    522.484    521.722
 31.670    544.000    529.937     14.063    521.425    529.233    521.425    522.128    521.425
 31.770    510.593    528.862    -18.270    521.130    528.211    521.130    521.780    521.130
 31.870    527.000    528.168     -1.168    520.836    527.562    520.836    521.441    520.836
 31.970    490.000    527.678    -37.678    520.543    527.112    520.543    521.108    520.543
 32.070    532.000    527.332      4.668    520.252    526.801    520.252    520.782    520.252
 32.170    531.410    527.107      4.303    519.961    526.606    519.961    520.461    519.961
 32.270    540.000    526.996     13.004    519.672    526.523    519.672    520.144    519.672
 32.370    510.000    526.997    -16.997    519.383    526.548    519.383    519.832    519.383
 32.470    539.000    527.117     11.883    519.096    526.689    519.096    519.523    519.096
 32.570    543.000    527.375     15.625    518.811    526.967    518.811    519.218    518.811
 32.670    575.000    527.799     47.201    518.526    527.407    518.526    518.916    518.526
 32.770    574.422    528.427     45.995    518.243    528.051    518.243    518.618    518.243
 32.870    556.000    529.317     26.683    517.960    528.955    517.960    518.321    517.960
 32.970    520.000    530.555    -10.555    517.679    530.206    517.679    518.028    517.679
 33.070    560.268    532.274     27.994    517.400    531.936    517.400    517.737    517.400
 33.170    549.000    534.716     14.284    517.121    534.387    517.121    517.448    517.121
 33.270    558.000    538.436     19.564    516.844    538.117    516.844    517.161    516.844
 33.370    540.000    544.933     -4.933    516.568    544.621    516.568    516.877    516.568
 33.470    586.000    558.069     27.931    516.294    557.762    516.294    516.594    516.294
 33.570    634.458    586.063     48.395    516.021    585.758    516.021    516.314    516.021
 33.670    652.000    641.680     10.320    515.749    641.372    515.749    516.035    515.749
 33.770    743.704    736.230      7.474    515.478    735.911    515.478    515.759    515.478
 33.870    915.000    865.702     49.298    515.209    865.371    515.209    515.484    515.209
 33.970   1069.000    995.144     73.856    514.941    994.807    514.941    515.211    514.941
 34.070   1076.000   1058.478     17.522    514.675   1058.154    514.675    514.940    514.675
 34.170   1027.000   1010.809     16.191    514.410   1010.517    514.410    514.671    514.410
 34.270    916.000    887.350     28.650    514.146    887.086    514.146    514.403    514.146
 34.370    787.169    754.603     32.566    513.883    754.354    513.883    514.137    513.883
 34.470    666.000    653.021     12.979    513.623    652.778    513.623    513.873    513.623
 34.570    571.000    590.864    -19.864    513.363    590.621    513.363    513.611    513.363
 34.670    588.000    558.439     29.561    513.105    558.196    513.105    513.350    513.105
 34.770    544.000    542.762      1.238    512.848    542.520    512.848    513.091    512.848
 34.870    537.091    534.824      2.267    512.593    534.584    512.593    512.833    512.593
 34.970    516.000    530.151    -14.151    512.339    529.913    512.339    512.577    512.339
 35.070    541.000    526.941     14.059    512.087    526.704    512.087    512.323    512.087
 35.170    553.873    524.521     29.352    511.836    524.285    511.836    512.071    511.836
 35.270    503.000    522.608    -19.608    511.586    522.374    511.586    511.820    511.586
 35.370    525.000    521.053      3.947    511.338    520.820    511.338    511.571    511.338
 35.470    525.138    519.763      5.375    511.092    519.531    511.092    511.323    511.092
 35.570    509.000    518.672     -9.672    510.847    518.442    510.847    511.077    510.847
 35.670    532.000    517.737     14.263    510.604    517.508    510.604    510.833    510.604
 35.770    511.000    516.923     -5.923    510.362    516.695    510.362    510.590    510.362
 35.870    475.528    516.207    -40.679    510.121    515.979    510.121    510.349    510.121
 35.970    520.000    515.570      4.430    509.882    515.342    509.882    510.110    509.882
 36.070    526.000    514.998     11.002    509.645    514.771    509.645    509.872    509.645
 36.170    513.000    514.482     -1.482    509.409    514.255    509.409    509.636    509.409
 36.270    508.591    514.013     -5.423    509.175    513.787    509.175    509.401    509.175
 36.370    542.000    513.588     28.412    508.942    513.361    508.942    509.169    508.942
 36.470    534.000    513.201     20.799    508.711    512.974    508.711    508.937    508.711
 36.570    492.000    512.852    -20.852    508.481    512.625    508.481    508.708    508.481
 36.670    508.000    512.542     -4.542    508.253    512.315    508.253    508.480    508.253
 36.770    554.418    512.275     42.143    508.027    512.048    508.027    508.254    508.027
 36.870    480.687    512.072    -31.385    507.802    511.844    507.802    508.030    507.802
 36.970    548.000    511.981     36.019    507.579    511.754    507.579    507.807    507.579
 37.070    557.038    512.125     44.913    507.357    511.897    507.357    507.586    507.357
 37.170    472.074    512.741    -40.667    507.137    512.512    507.137    507.366    507.137
 37.270    474.948    514.170    -39.221    506.919    513.940    506.919    507.149    506.919
 37.370    531.000    516.701     14.299    506.702    516.471    506.702    506.933    506.702
 37.470    499.880    520.251    -20.371    506.486    520.021    506.486    506.718    506.486
 37.570    503.000    523.999    -20.999    506.273    523.769    506.273    506.506    506.273
 37.670    530.000    526.347      3.653    506.061    526.118    506.061    506.295    506.061
 37.770    523.000    525.956     -2.956    505.851    525.727    505.851    506.085    505.851
 37.870    496.000    523.169    -27.169    505.642    522.941    505.642    505.878    505.642
 37.970    497.000    519.455    -22.455    505.435    519.228    505.435    505.672    505.435
 38.070    463.000    515.954    -52.954    505.229    515.726    505.229    505.468    505.229
 38.170    479.000    513.114    -34.114    505.026    512.883    505.026    505.266    505.026
 38.270    504.715    511.020     -6.305    504.824    510.786    504.824    505.065    504.824
 38.370    499.900    509.579     -9.679    504.623    509.340    504.623    504.866    504.623
 38.470    473.564    508.616    -35.052    504.424    508.375    504.424    504.669    504.424
 38.570    466.488    507.971    -41.482    504.227    507.726    504.227    504.473    504.227
 38.670    501.000    507.518     -6.518    504.032    507.271    504.032    504.280    504.032
 38.770    548.605    507.174     41.431    503.838    506.925    503.838    504.088    503.838
 38.870    519.000    506.889     12.111    503.646    506.638    503.646    503.898    503.646
 38.970    509.000    506.638      2.362    503.456    506.385    503.456    503.709    503.456
 39.070    498.807    506.408     -7.600    503.267    506.153    503.267    503.523    503.267
 39.170    528.096    506.193     21.903    503.080    505.936    503.080    503.338    503.080
 39.270    464.514    505.991    -41.477    502.895    505.732    502.895    503.155    502.895
 39.370    496.000    505.800     -9.800    502.711    505.539    502.711    502.973    502.711
 39.470    522.000    505.619     16.381    502.530    505.355    502.530    502.794    502.530
 39.570    537.408    505.446     31.962    502.349    505.180    502.349    502.616    502.349
 39.670    493.523    505.282    -11.759    502.171    505.014    502.171    502.440    502.171
 39.770    482.000    505.127    -23.127    501.994    504.855    501.994    502.266    501.994
 39.870    540.553    504.979     35.574    501.819    504.705    501.819    502.094    501.819
 39.970    499.711    504.839     -5.129    501.646    504.563    501.646    501.923    501.646
 40.070    503.000    504.708     -1.708    501.474    504.429    501.474    501.754    501.474
 40.170    465.000    504.586    -39.586    501.305    504.304    501.305    501.588    501.305
 40.270    507.000    504.474      2.526    501.136    504.188    501.136    501.422    501.136
 40.370    469.663    504.371    -34.708    500.970    504.082    500.970    501.259    500.970
 40.470    489.000    504.280    -15.280    500.805    503.988    500.805    501.098    500.805
 40.570    479.295    504.202    -24.906    500.643    503.907    500.643    500.938    500.643
 40.670    470.000    504.138    -34.138    500.481    503.839    500.481    500.780    500.481
 40.770    469.000    504.091    -35.091    500.322    503.788    500.322    500.624    500.322
 40.870    492.777    504.063    -11.286    500.164    503.757    500.164    500.470    500.164
 40.970    486.000    504.058    -18.058    500.008    503.748    500.008    500.318    500.008
 41.070    525.958    504.081     21.877    499.854    503.768    499.854    500.168    499.854
 41.170    460.000    504.138    -44.138    499.701    503.821    499.701    500.019    499.701
 41.270    473.314    504.237    -30.923    499.551    503.916    499.551    499.873    499.551
 41.370    510.526    504.390      6.136    499.402    504.065    499.402    499.728    499.402
 41.470    480.458    504.614    -24.156    499.254    504.284    499.254    499.585    499.254
 41.570    472.950    504.933    -31.982    499.109    504.598    499.109    499.444    499.109
 41.670    512.000    505.393      6.607    498.965    505.055    498.965    499.305    498.965
 41.770    521.417    506.099     15.318    498.823    505.756    498.823    499.168    498.823
 41.870    486.000    507.294    -21.294    498.683    506.947    498.683    499.033    498.683
 41.970    448.000    509.538    -61.538    498.544    509.186    498.544    498.900    498.544
 42.070    485.000    513.930    -28.930    498.407    513.575    498.407    498.768    498.407
 42.170    519.000    522.206     -3.206    498.272    521.849    498.272    498.639    498.272
 42.270    506.864    536.331    -29.467    498.139    535.974    498.139    498.512    498.139
 42.370    585.000    557.296     27.704    498.008    556.943    498.008    498.386    498.008
 42.470    613.491    583.355     30.136    497.878    583.009    497.878    498.263    497.878
 42.570    578.000    608.468    -30.468    497.750    608.129    497.750    498.141    497.750
 42.670    666.592    622.813     43.780    497.623    622.477    497.623    498.021    497.623
 42.770    558.000    618.890    -60.890    497.499    618.549    497.499    497.904    497.499
 42.870    635.610    598.990     36.619    497.376    598.634    497.376    497.788    497.376
 42.970    533.456    572.470    -39.014    497.255    572.092    497.255    497.675    497.255
 43.070    549.703    547.867      1.836    497.136    547.468    497.136    497.563    497.136
 43.170    510.000    529.418    -19.418    497.018    529.000    497.018    497.454    497.018
 43.270    484.000    517.601    -33.601    496.902    517.167    496.902    497.347    496.902
 43.370    508.000    510.877     -2.877    496.788    510.430    496.788    497.242    496.788
 43.470    515.000    507.299      7.701    496.676    506.841    496.676    497.139    496.676
 43.570    460.280    505.379    -45.099    496.565    504.909    496.565    497.038    496.565
 43.670    485.000    504.251    -19.251    496.456    503.770    496.456    496.939    496.456
 43.770    505.262    503.499      1.763    496.349    503.008    496.349    496.842    496.349
 43.870    489.000    502.947    -13.947    496.244    502.445    496.244    496.748    496.244
 43.970    463.000    502.518    -39.518    496.140    502.004    496.140    496.656    496.140
 44.070    533.000    502.176     30.824    496.038    501.649    496.038    496.566    496.038
 44.170    519.795    501.900     17.895    495.938    501.360    495.938    496.479    495.938
 44.270    497.000    501.675     -4.675    495.840    501.122    495.840    496.393    495.840
 44.370    464.811    501.493    -36.681    495.743    500.925    495.743    496.311    495.743
 44.470    503.000    501.345      1.655    495.648    500.762    495.648    496.231    495.648
 44.570    477.000    501.226    -24.226    495.555    500.628    495.555    496.153    495.555
 44.670    482.000    501.133    -19.133    495.463    500.519    495.463    496.078    495.463
 44.770    535.000    501.063     33.937    495.373    500.432    495.373    496.005    495.373
 44.870    515.951    501.014     14.937    495.285    500.364    495.285    495.935    495.285
 44.970    544.290    500.984     43.307    495.199    500.314    495.199    495.868    495.199
 45.070    515.000    500.971     14.029    495.114    500.281    495.114    495.804    495.114
 45.170    545.917    500.977     44.940    495.031    500.265    495.031    495.743    495.031
 45.270    486.000    500.999    -14.999    494.950    500.264    494.950    495.684    494.950
 45.370    466.432    501.039    -34.607    494.870    500.280    494.870    495.629    494.870
 45.470    464.199    501.097    -36.898    494.792    500.311    494.792    495.578    494.792
 45.570    470.716    501.173    -30.457    494.716    500.359    494.716    495.530    494.716
 45.670    470.000    501.268    -31.268    494.642    500.424    494.642    495.485    494.642
 45.770    524.000    501.385     22.615    494.569    500.509    494.569    495.445    494.569
 45.870    479.000    501.523    -22.523    494.498    500.613    494.498    495.408    494.498
 45.970    488.000    501.687    -13.687    494.428    500.740    494.428    495.376    494.428
 46.070    497.000    501.879     -4.879    494.361    500.891    494.361    495.348    494.361
 46.170    497.489    502.102     -4.612    494.295    501.070    494.295    495.325    494.295
 46.270    522.705    502.361     20.345    494.230    501.282    494.230    495.308    494.230
 46.370    461.000    502.662    -41.662    494.168    501.532    494.168    495.296    494.168
 46.470    541.174    503.012     38.162    494.107    501.827    494.107    495.291    494.107
 46.570    526.000    503.423     22.577    494.047    502.177    494.047    495.293    494.047
 46.670    460.641    503.910    -43.270    493.989    502.597    493.989    495.302    493.989
 46.770    546.000    504.501     41.499    493.933    503.114    493.933    495.319    493.933
 46.870    469.000    505.252    -36.252    493.879    503.784    493.879    495.346    493.879
 46.970    460.000    506.288    -46.288    493.826    504.729    493.826    495.383    493.826
 47.070    507.973    507.877      0.097    493.775    506.217    493.775    495.432    493.775
 47.170    529.621    510.533     19.089    493.726    508.759    493.726    495.494    493.726
 47.270    499.000    515.082    -16.082    493.678    513.180    493.678    495.571    493.678
 47.370    492.000    522.558    -30.558    493.632    520.509    493.632    495.667    493.632
 47.470    537.000    533.787      3.213    493.587    531.569    493.587    495.783    493.587
 47.570    528.008    548.672    -20.664    493.544    546.260    493.544    495.923    493.544
 47.670    525.930    565.425    -39.495    493.503    562.792    493.503    496.091    493.503
 47.770    533.828    580.125    -46.297    493.463    577.239    493.463    496.295    493.463
 47.870    540.735    587.524    -46.789    493.425    584.352    493.425    496.539    493.425
 47.970    583.000    584.512     -1.512    493.389    581.012    493.389    496.835    493.389
 48.070    535.000    573.202    -38.202    493.354    569.319    493.354    497.194    493.354
 48.170    544.000    558.738    -14.738    493.321    554.392    493.321    497.635    493.321
 48.270    557.000    545.525     11.475    493.289    540.607    493.289    498.186    493.289
 48.370    554.914    535.942     18.972    493.259    530.291    493.259    498.896    493.259
 48.470    559.000    530.573     28.427    493.230    523.942    493.230    499.853    493.230
 48.570    550.000    528.978     21.022    493.203    520.956    493.203    501.219    493.203
 48.670    555.000    530.489     24.511    493.178    520.379    493.178    503.284    493.178
 48.770    552.000    534.775     17.225    493.154    521.410    493.154    506.515    493.154
 48.870    541.020    542.045     -1.025    493.132    523.585    493.132    511.587    493.132
 48.970    530.000    552.977    -22.977    493.111    526.765    493.111    519.317    493.111
 49.070    517.000    568.500    -51.500    493.092    531.120    493.092    530.466    493.092
 49.170    605.000    589.605     15.395    493.074    537.293    493.074    545.378    493.074
 49.270    600.000    617.505    -17.505    493.058    547.043    493.058    563.508    493.058
 49.370    684.000    654.639     29.361    493.043    564.792    493.043    582.873    493.043
 49.470    733.000    707.006     25.994    493.030    600.401    493.030    599.607    493.030
 49.570    789.000    788.009      0.991    493.019    672.399    493.019    608.579    493.019
 49.670    928.000    921.887      6.113    493.009    808.550    493.009    606.264    493.009
 49.770   1124.028   1139.322    -15.294    493.000   1038.513    493.000    593.685    493.000
 49.870   1449.000   1457.971     -8.971    492.993   1375.384    492.993    575.416    492.993
 49.970   1850.435   1854.577     -4.142    492.988   1791.159    492.988    556.227    492.988
 50.070   2272.000   2247.030     24.970    492.984   2200.648    492.984    539.222    492.984
 50.170   2513.356   2506.836      6.520    492.981   2474.002    492.981    525.767    492.981
 50.270   2502.467   2521.342    -18.876    492.980   2498.390    492.980    516.008    492.980
 50.370   2299.961   2279.013     20.948    492.980   2262.770    492.980    509.392    492.980
 50.470   1890.000   1880.891      9.109    492.982   1868.964    492.982    505.109    492.982
 50.570   1422.000   1460.571    -38.571    492.986   1451.354    492.986    502.384    492.986
 50.670   1117.268   1112.865      4.403    492.990   1105.369    492.990    500.624    492.990
 50.770    830.768    874.281    -43.513    492.997    867.936    492.997    499.436    492.997
 50.870    687.000    735.541    -48.541    493.004    730.024    493.004    498.585    493.004
 50.970    636.000    665.663    -29.663    493.013    660.782    493.013    497.942    493.013
 51.070    611.000    632.434    -21.434    493.024    628.061    493.024    497.436    493.024
 51.170    616.166    613.019      3.147    493.036    609.061    493.036    497.028    493.036
 51.270    603.926    596.292      7.634    493.049    592.675    493.049    496.695    493.049
 51.370    562.000    579.738    -17.738    493.063    576.404    493.063    496.420    493.063
 51.470    525.094    564.470    -39.376    493.080    561.374    493.080    496.192    493.080
 51.570    571.000    551.911     19.089    493.097    549.016    493.097    496.004    493.097
 51.670    554.000    542.683     11.317    493.116    539.958    493.116    495.848    493.116
 51.770    528.000    536.592     -8.592    493.136    534.014    493.136    495.719    493.136
 51.870    521.543    532.990    -11.447    493.158    530.538    493.158    495.613    493.158
 51.970    551.000    531.162     19.838    493.180    528.818    493.180    495.528    493.180
 52.070    505.473    530.569    -25.096    493.205    528.317    493.205    495.459    493.205
 52.170    565.000    530.920     34.080    493.230    528.747    493.230    495.406    493.230
 52.270    549.000    532.171     16.829    493.257    530.064    493.257    495.366    493.257
 52.370    548.000    534.545     13.455    493.286    532.494    493.286    495.337    493.286
 52.470    584.290    538.691     45.598    493.315    536.687    493.315    495.320    493.315
 52.570    528.114    546.035    -17.922    493.346    544.070    493.346    495.312    493.346
 52.670    583.000    559.319     23.681    493.378    557.384    493.378    495.313    493.378
 52.770    559.000    583.105    -24.105    493.412    581.192    493.412    495.322    493.412
 52.870    634.400    623.724     10.676    493.446    621.827    493.446    495.339    493.446
 52.970    699.000    687.956     11.044    493.482    686.069    493.482    495.363    493.482
 53.070    814.000    780.012     33.988    493.520    778.130    493.520    495.394    493.520
 53.170    944.000    897.324     46.676    493.558    895.443    493.558    495.431    493.558
 53.270   1067.000   1026.507     40.493    493.598   1024.625    493.598    495.474    493.598
 53.370   1093.896   1141.456    -47.560    493.639   1139.574    493.639    495.524    493.639
 53.470   1271.687   1207.965     63.722    493.681   1206.081    493.681    495.579    493.681
 53.570   1266.469   1200.908     65.560    493.725   1199.019    493.725    495.640    493.725
 53.670   1081.000   1123.475    -42.475    493.770   1121.572    493.770    495.707    493.770
 53.770   1003.000   1004.184     -1.184    493.816   1002.255    493.816    495.779    493.816
 53.870    856.000    876.386    -20.386    493.863    874.421    493.863    495.858    493.863
 53.970    738.000    763.822    -25.822    493.911    761.815    493.911    495.942    493.911
 54.070    707.236    677.633     29.603    493.961    675.578    493.961    496.032    493.961
 54.170    617.861    618.822     -0.961    494.012    616.716    494.012    496.128    494.012
 54.270    592.000    582.432      9.568    494.063    580.271    494.063    496.231    494.063
 54.370    567.000    561.619      5.381    494.116    559.399    494.116    496.341    494.116
 54.470    538.285    550.343    -12.059    494.171    548.060    494.171    496.457    494.171
 54.570    586.848    544.406     42.442    494.226    542.054    494.226    496.580    494.226
 54.670    566.077    541.347     24.730    494.282    538.920    494.282    496.711    494.282
 54.770    592.000    539.905     52.095    494.340    537.396    494.340    496.850    494.340
 54.870    565.145    539.498     25.647    494.399    536.900    494.399    496.998    494.399
 54.970    509.795    539.881    -30.086    494.459    537.186    494.459    497.155    494.459
 55.070    586.000    540.965     45.035    494.520    538.163    494.520    497.322    494.520
 55.170    535.868    542.739     -6.871    494.582    539.822    494.582    497.499    494.582
 55.270    518.946    545.245    -26.299    494.645    542.202    494.645    497.688    494.645
 55.370    579.000    548.578     30.422    494.709    545.396    494.709    497.890    494.709
 55.470    563.281    552.910     10.371    494.774    549.578    494.774    498.106    494.774
 55.570    566.000    558.569      7.431    494.840    555.072    494.840    498.337    494.840
 55.670    578.000    566.233     11.767    494.908    562.555    494.908    498.585    494.908
 55.770    603.000    577.360     25.640    494.976    573.482    494.976    498.852    494.976
 55.870    624.359    595.016     29.343    495.045    590.919    495.045    499.140    495.045
 55.970    639.000    625.186     13.814    495.116    620.844    495.116    499.451    495.116
 56.070    725.835    678.278     47.557    495.187    673.663    495.187    499.789    495.187
 56.170    771.891    769.886      2.004    495.260    764.966    495.260    500.157    495.260
 56.270    899.000    919.154    -20.154    495.333    913.890    495.333    500.558    495.333
 56.370   1074.000   1143.126    -69.126    495.407   1137.480    495.407    500.999    495.407
 56.470   1466.000   1447.080     18.920    495.483   1441.013    495.483    501.484    495.483
 56.570   1728.000   1813.425    -85.425    495.559   1806.898    495.559    502.020    495.559
 56.670   2259.448   2193.511     65.938    495.636   2186.490    495.636    502.617    495.636
 56.770   2445.422   2507.548    -62.126    495.714   2499.993    495.714    503.284    495.714
 56.870   2610.000   2663.778    -53.778    495.794   2655.634    495.794    504.033    495.794
 56.970   2662.000   2606.959     55.041    495.874   2598.133    495.874    504.881    495.874
 57.070   2456.000   2359.718     96.282    495.955   2350.062    495.955    505.847    495.955
 57.170   1977.719   2003.394    -25.675    496.036   1992.723    496.036    506.955    496.036
 57.270   1634.000   1626.645      7.355    496.119   1614.747    496.119    508.240    496.119
 57.370   1280.000   1293.397    -13.397    496.203   1280.027    496.203    509.750    496.203
 57.470   1050.898   1035.359     15.540    496.287   1020.211    496.287    511.562    496.287
 57.570    881.291    857.069     24.222    496.373    839.722    496.373    513.804    496.373
 57.670    786.038    746.309     39.729    496.459    726.119    496.459    516.699    496.459
 57.770    653.206    685.091    -31.885    496.546    661.021    496.546    520.643    496.546
 57.870    639.298    657.612    -18.315    496.634    627.962    496.634    526.296    496.634
 57.970    708.000    653.980     54.020    496.722    616.001    496.722    534.702    496.722
 58.070    687.000    670.577     16.423    496.812    620.017    496.812    547.362    496.812
 58.170    655.000    708.515    -53.515    496.902    639.212    496.902    566.184    496.902
 58.270    746.163    771.228    -25.064    496.993    674.955    496.993    593.233    496.993
 58.370    870.000    861.742      8.258    497.085    728.569    497.085    630.212    497.085
 58.470   1005.678    979.977     25.701    497.178    799.379    497.178    677.718    497.178
 58.570   1070.377   1120.443    -50.066    497.271    883.279    497.271    734.372    497.271
 58.670   1316.647   1270.997     45.650    497.365    972.375    497.365    795.925    497.365
 58.770   1424.000   1413.896     10.104    497.460   1056.868    497.460    854.436    497.460
 58.870   1583.000   1528.940     54.060    497.556   1128.168    497.556    898.291    497.556
 58.970   1644.669   1597.221     47.447    497.652   1179.500    497.652    915.357    497.652
 59.070   1632.000   1606.184     25.816    497.749   1203.963    497.749    899.977    497.749
 59.170   1566.097   1556.291      9.806    497.847   1196.793    497.847    857.370    497.847
 59.270   1408.890   1463.095    -54.205    497.946   1161.555    497.946    799.515    497.946
 59.370   1342.000   1351.022     -9.022    498.045   1110.960    498.045    738.126    498.045
 59.470   1307.898   1244.055     63.844    498.145   1060.865    498.145    681.329    498.145
 59.570   1214.000   1161.379     52.621    498.245   1026.046    498.245    633.538    498.245
 59.670   1192.000   1118.213     73.787    498.346   1020.222    498.346    596.253    498.346
 59.770   1146.000   1125.413     20.587    498.448   1054.768    498.448    568.956    498.448
 59.870   1281.000   1185.174     95.826    498.550   1133.550    498.550    549.981    498.550
 59.970   1284.000   1286.696     -2.696    498.653   1247.834    498.653    537.268    498.653
 60.070   1440.000   1404.947     35.053    498.757   1374.522    498.757    528.895    498.757
 60.170   1463.000   1503.335    -40.335    498.861   1478.555    498.861    523.342    498.861
 60.270   1542.000   1543.159     -1.159    498.966   1522.304    498.966    519.545    498.966
 60.370   1567.645   1501.890     65.755    499.071   1483.912    499.071    516.826    499.071
 60.470   1520.000   1386.961    133.039    499.177   1371.197    499.177    514.785    499.177
 60.570   1317.000   1228.377     88.623    499.284   1214.372    499.284    513.192    499.284
 60.670   1085.000   1060.423     24.577    499.391   1047.839    499.391    511.924    499.391
 60.770    891.000    909.482    -18.482    499.498    898.046    499.498    510.912    499.498
 60.870    762.447    790.146    -27.699    499.606    779.623    499.606    510.121    499.606
 60.970    669.000    706.244    -37.244    499.715    696.419    499.715    509.535    499.715
 61.070    645.000    654.556     -9.556    499.824    645.221    499.824    509.152    499.824
 61.170    675.770    629.361     46.409    499.933    620.309    499.933    508.973    499.933
 61.270    679.000    626.193     52.807    500.043    617.218    500.043    508.998    500.043
 61.370    653.000    643.875      9.125    500.154    634.780    500.154    509.216    500.154
 61.470    669.000    684.659    -15.659    500.265    675.279    500.265    509.595    500.265
 61.570    771.000    752.653     18.347    500.376    742.881    500.376    510.074    500.376
 61.670    872.620    850.877     21.743    500.488    840.706    500.488    510.554    500.488
 61.770    936.000    977.632    -41.632    500.601    967.197    500.601    510.898    500.601
 61.870   1092.000   1123.269    -31.269    500.713   1112.849    500.713    510.966    500.713
 61.970   1195.000   1268.508    -73.508    500.826   1258.466    500.826    510.682    500.826
 62.070   1353.000   1385.574    -32.574    500.940   1376.250    500.940    510.079    500.940
 62.170   1443.000   1444.756     -1.756    501.054   1436.370    501.054    509.279    501.054
 62.270   1479.862   1427.965     51.897    501.168   1420.599    501.168    508.415    501.168
 62.370   1337.000   1340.213     -3.213    501.283   1333.834    501.283    507.590    501.283
 62.470   1147.000   1205.994    -58.994    501.397   1200.491    501.397    506.868    501.397
 62.570   1076.000   1055.353     20.647    501.513   1050.582    501.513    506.278    501.513
 62.670    949.000    913.001     35.999    501.628    908.813    501.628    505.824    501.628
 62.770    800.642    794.160      6.482    501.744    790.422    501.744    505.494    501.744
 62.870    677.000    704.616    -27.616    501.861    701.221    501.861    505.267    501.861
 62.970    621.000    642.975    -21.975    501.977    639.840    501.977    505.118    501.977
 63.070    565.000    603.844    -38.844    502.094    600.913    502.094    505.027    502.094
 63.170    600.000    580.771     19.229    502.211    578.005    502.211    504.977    502.211
 63.270    617.132    568.188     48.944    502.328    565.559    502.328    504.954    502.328
 63.370    584.467    562.240     22.227    502.446    559.729    502.446    504.952    502.446
 63.470    556.181    560.873     -4.692    502.564    558.465    502.564    504.964    502.564
 63.570    611.000    563.587     47.413    502.682    561.271    502.682    504.987    502.682
 63.670    561.555    571.153     -9.598    502.800    568.919    502.800    505.020    502.800
 63.770    593.000    585.338      7.662    502.919    583.175    502.919    505.061    502.919
 63.870    607.545    608.540     -0.995    503.037    606.438    503.037    505.108    503.037
 63.970    629.000    643.180    -14.180    503.156    641.130    503.156    505.161    503.156
 64.070    694.942    690.807      4.136    503.275    688.799    503.275    505.220    503.275
 64.170    759.000    751.006      7.994    503.395    749.033    503.395    505.284    503.395
 64.270    804.690    820.370    -15.680    503.514    818.427    503.514    505.352    503.514
 64.370    942.841    891.823     51.018    503.633    889.910    503.633    505.424    503.633
 64.470    937.470    954.833    -17.362    503.753    952.952    503.753    505.500    503.753
 64.570    969.903    997.626    -27.723    503.873    995.788    503.873    505.580    503.873
 64.670   1074.701   1011.822     62.879    503.993   1010.035    503.993    505.662    503.993
 64.770    973.674    996.219    -22.544    504.113    994.490    504.113    505.748    504.113
 64.870    930.842    956.290    -25.448    504.233    954.621    504.233    505.837    504.233
 64.970    839.000    901.210    -62.210    504.353    899.598    504.353    505.928    504.353
 65.070    860.774    840.829     19.945    504.473    839.269    504.473    506.021    504.473
 65.170    744.197    783.012    -38.815    504.594    781.495    504.594    506.117    504.594
 65.270    778.000    732.180     45.820    504.714    730.697    504.714    506.215    504.714
 65.370    710.000    689.609     20.391    504.834    688.153    504.834    506.315    504.834
 65.470    606.234    654.860    -48.626    504.955    653.422    504.955    506.417    504.955
 65.570    625.000    627.053     -2.053    505.075    625.629    505.075    506.521    505.075
 65.670    571.000    605.323    -34.323    505.195    603.908    505.195    506.627    505.195
 65.770    559.845    588.814    -28.969    505.316    587.407    505.316    506.734    505.316
 65.870    623.000    576.705     46.295    505.436    575.305    505.436    506.843    505.436
 65.970    554.000    568.250    -14.250    505.556    566.855    505.556    506.954    505.556
 66.070    582.000    562.787     19.213    505.677    561.398    505.677    507.067    505.677
 66.170    556.000    559.742     -3.742    505.797    558.358    505.797    507.181    505.797
 66.270    559.000    558.636      0.364    505.917    557.256    505.917    507.296    505.917
 66.370    543.305    559.115    -15.810    506.037    557.739    506.037    507.413    506.037
 66.470    537.250    560.991    -23.740    506.157    559.616    506.157    507.531    506.157
 66.570    511.000    564.298    -53.298    506.277    562.924    506.277    507.651    506.277
 66.670    543.000    569.405    -26.405    506.397    568.030    506.397    507.773    506.397
 66.770    564.000    577.215    -13.215    506.517    575.836    506.517    507.896    506.517
 66.870    582.000    589.494     -7.494    506.636    588.109    506.636    508.020    506.636
 66.970    576.000    609.342    -33.342    506.756    607.949    506.756    508.146    506.756
 67.070    653.000    641.695     11.305    506.875    640.292    506.875    508.274    506.875
 67.170    685.447    693.634     -8.187    506.994    692.216    506.994    508.403    506.994
 67.270    711.000    774.110    -63.110    507.113    772.675    507.113    508.534    507.113
 67.370    867.622    892.684    -25.062    507.232    891.230    507.232    508.666    507.232
 67.470   1048.000   1057.031     -9.031    507.350   1055.560    507.350    508.800    507.350
 67.570   1213.696   1269.443    -55.747    507.469   1267.958    507.469    508.936    507.469
 67.670   1545.635   1523.098     22.537    507.587   1521.608    507.587    509.074    507.587
 67.770   1836.478   1799.192     37.286    507.705   1797.710    507.705    509.214    507.705
 67.870   2106.517   2065.950     40.567    507.822   2064.490    507.822    509.356    507.822
 67.970   2352.160   2281.016     71.144    507.940   2279.591    507.940    509.501    507.940
 68.070   2411.488   2400.331     11.158    508.057   2398.947    508.057    509.647    508.057
 68.170   2395.000   2394.937      0.063    508.174   2393.584    508.174    509.797    508.174
 68.270   2258.000   2266.334     -8.334    508.291   2264.985    508.291    509.949    508.291
 68.370   2022.000   2045.534    -23.534    508.407   2044.154    508.407    510.104    508.407
 68.470   1837.000   1776.944     60.056    508.523   1775.500    508.523    510.262    508.523
 68.570   1523.000   1502.196     20.804    508.639   1500.666    508.639    510.424    508.639
 68.670   1331.000   1251.977     79.023    508.754   1250.347    508.754    510.590    508.754
 68.770   1023.000   1043.995    -20.995    508.869   1042.261    508.869    510.759    508.869
 68.870    868.183    884.164    -15.981    508.984    882.327    508.984    510.934    508.984
 68.970    774.000    769.591      4.409    509.098    767.653    509.098    511.113    509.098
 69.070    711.441    692.321     19.120    509.212    690.287    509.212    511.297    509.212
 69.170    678.000    642.773     35.227    509.326    640.644    509.326    511.488    509.326
 69.270    669.000    612.121     56.879    509.439    609.896    509.439    511.686    509.439
 69.370    598.000    593.462      4.538    509.552    591.138    509.552    511.891    509.552
 69.470    595.000    582.014     12.986    509.665    579.585    509.665    512.104    509.665
 69.570    594.000    574.779     19.221    509.777    572.236    509.777    512.326    509.777
 69.670    576.000    570.022      5.978    509.889    567.357    509.889    512.559    509.889
 69.770    590.000    566.806     23.194    510.000    564.006    510.000    512.803    510.000
 69.870    565.000    564.647      0.353    510.111    561.699    510.111    513.061    510.111
 69.970    544.052    563.304    -19.252    510.221    560.193    510.221    513.334    510.221
 70.070    526.021    562.665    -36.644    510.331    559.374    510.331    513.623    510.331
 70.170    584.000    562.696     21.304    510.440    559.203    510.440    513.932    510.440
 70.270    549.000    563.424    -14.424    510.549    559.708    510.549    514.263    510.549
 70.370    551.000    564.963    -13.963    510.657    560.998    510.657    514.620    510.657
 70.470    609.500    567.564     41.936    510.765    563.319    510.765    515.007    510.765
 70.570    570.000    571.715     -1.715    510.873    567.154    510.873    515.429    510.873
 70.670    563.457    578.308    -14.851    510.980    573.388    510.980    515.891    510.980
 70.770    601.426    588.861     12.565    511.086    583.532    511.086    516.402    511.086
 70.870    588.000    605.779    -17.779    511.192    599.979    511.192    516.973    511.192
 70.970    593.000    632.573    -39.573    511.297    626.223    511.297    517.618    511.297
 71.070    679.000    673.882      5.118    511.402    666.879    511.402    518.362    511.402
 71.170    713.000    735.142    -22.142    511.506    727.343    511.506    519.242    511.506
 71.270    803.000    821.700    -18.700    511.609    812.898    511.609    520.324    511.609
 71.370    928.000    937.387     -9.387    511.712    927.266    511.712    521.717    511.712
 71.470   1032.171   1082.716    -50.544    511.815   1070.783    511.815    523.599    511.815
 71.570   1295.000   1253.099     41.901    511.916   1238.584    511.916    526.252    511.916
 71.670   1275.000   1437.582   -162.582    512.017   1419.300    512.017    530.095    512.017
 71.770   1579.000   1618.495    -39.495    512.118   1594.688    512.118    535.707    512.118
 71.870   1750.000   1772.630    -22.630    512.218   1740.807    512.218    543.825    512.218
 71.970   1884.000   1875.231      8.769    512.317   1832.064    512.317    555.289    512.317
 72.070   1906.635   1907.872     -1.236    512.415   1849.207    512.415    570.919    512.415
 72.170   1895.369   1867.114     28.255    512.513   1788.181    512.513    591.325    512.513
 72.270   1719.000   1766.562    -47.562    512.611   1662.428    512.611    616.660    512.611
 72.370   1688.000   1629.809     58.191    512.707   1496.088    512.707    646.374    512.707
 72.470   1583.000   1480.872    102.128    512.803   1314.650    512.803    678.992    512.803
 72.570   1429.000   1338.198     90.802    512.898   1139.106    512.898    711.970    512.898
 72.670   1158.811   1212.489    -53.678    512.992    983.780    512.992    741.686    512.992
 72.770   1087.000   1106.889    -19.889    513.086    856.192    513.086    763.771    513.086
 72.870    992.000   1018.979    -26.979    513.179    758.018    513.179    774.129    513.179
 72.970    900.000    944.056    -44.056    513.271    686.750    513.271    770.566    513.271
 73.070    808.000    878.135    -70.135    513.362    637.578    513.362    753.910    513.362
 73.170    818.162    819.132     -0.970    513.453    605.031    513.453    727.546    513.453
 73.270    733.000    766.442    -33.442    513.543    584.118    513.543    695.860    513.543
 73.370    773.425    720.157     53.268    513.632    570.889    513.632    662.895    513.632
 73.470    694.540    680.559     13.981    513.720    562.551    513.720    631.726    513.720
 73.570    656.486    647.841      8.645    513.808    557.314    513.808    604.335    513.808
 73.670    590.000    621.935    -31.935    513.894    554.133    513.894    581.699    513.894
 73.770    593.000    602.438     -9.438    513.980    552.445    513.980    563.978    513.980
 73.870    578.000    588.644    -10.644    514.065    551.963    514.065    550.755    514.065
 73.970    614.000    579.638     34.362    514.150    552.515    514.150    541.286    514.150
 74.070    561.000    574.411    -13.411    514.233    553.939    514.233    534.723    514.233
 74.170    604.000    571.947     32.053    514.315    556.015    514.315    530.271    514.315
 74.270    528.274    571.273    -42.999    514.397    558.429    514.397    527.271    514.397
 74.370    602.000    571.479     30.521    514.478    560.764    514.478    525.228    514.478
 74.470    656.000    571.733     84.267    514.558    562.532    514.558    523.799    514.558
 74.570    615.000    571.340     43.660    514.637    563.262    514.637    522.758    514.637
 74.670    546.463    569.868    -23.405    514.715    562.661    514.715    521.966    514.715
 74.770    607.126    567.244     39.881    514.792    560.741    514.792    521.338    514.792
 74.870    594.401    563.739     30.662    514.869    557.821    514.869    520.824    514.869
 74.970    619.000    559.824     59.176    514.944    554.404    514.944    520.396    514.944
 75.070    568.000    556.025     11.975    515.019    551.037    515.019    520.033    515.019
 75.170    547.904    552.852     -4.948    515.092    548.240    515.092    519.723    515.092
 75.270    560.000    550.784      9.216    515.165    546.505    515.165    519.457    515.165
 75.370    530.000    550.292    -20.292    515.236    546.307    515.236    519.229    515.236
 75.470    533.278    551.861    -18.583    515.307    548.138    515.307    519.031    515.307
 75.570    539.576    556.003    -16.427    515.377    552.514    515.377    518.861    515.377
 75.670    590.000    563.229     26.771    515.446    559.949    515.446    518.715    515.446
 75.770    585.509    573.971     11.538    515.513    570.879    515.513    518.588    515.513
 75.870    545.848    588.447    -42.599    515.580    585.523    515.580    518.479    515.580
 75.970    652.263    606.498     45.765    515.646    603.725    515.646    518.385    515.646
 76.070    662.834    627.427     35.406    515.711    624.791    515.711    518.305    515.711
 76.170    660.000    649.897     10.103    515.774    647.384    515.774    518.236    515.774
 76.270    703.000    671.893     31.107    515.837    669.493    515.837    518.177    515.837
 76.370    634.000    690.822    -56.822    515.899    688.528    515.899    518.128    515.899
 76.470    697.000    703.836     -6.836    515.960    701.643    515.960    518.087    515.960
 76.570    702.000    708.541     -6.541    516.019    706.445    516.019    518.052    516.019
 76.670    671.000    703.939    -32.939    516.078    701.935    516.078    518.024    516.078
 76.770    708.752    690.910     17.842    516.135    688.995    516.135    518.001    516.135
 76.870    664.906    671.778     -6.871    516.192    669.946    516.192    517.983    516.192
 76.970    656.000    649.368      6.632    516.247    647.614    516.247    517.970    516.247
 77.070    613.422    626.282    -12.860    516.301    624.601    516.301    517.960    516.301
 77.170    587.175    604.545    -17.369    516.355    602.930    516.355    517.954    516.355
 77.270    578.000    585.494     -7.494    516.407    583.940    516.407    517.950    516.407
 77.370    537.000    569.801    -32.801    516.458    568.302    516.458    517.950    516.458
 77.470    519.446    557.572    -38.126    516.508    556.124    516.508    517.951    516.508
 77.570    515.000    548.507    -33.507    516.557    547.106    516.557    517.955    516.557
 77.670    511.000    542.079    -31.079    516.604    540.721    516.604    517.960    516.604
 77.770    490.000    537.687    -47.687    516.651    536.368    516.651    517.968    516.651
 77.870    534.000    534.767     -0.767    516.696    533.486    516.696    517.976    516.696
 77.970    493.000    532.856    -39.856    516.740    531.609    516.740    517.986    516.740
 78.070    507.000    531.606    -24.606    516.784    530.392    516.784    517.997    516.784
 78.170    505.000    530.779    -25.779    516.826    529.595    516.826    518.008    516.826
 78.270    520.000    530.220    -10.220    516.866    529.064    516.866    518.021    516.866
 78.370    511.315    529.818    -18.503    516.906    528.690    516.906    518.034    516.906
 78.470    512.150    529.539    -17.389    516.944    528.436    516.944    518.048    516.944
 78.570    577.000    529.393     47.607    516.982    528.312    516.982    518.062    516.982
 78.670    470.000    529.348    -59.348    517.018    528.288    517.018    518.077    517.018
 78.770    483.966    529.415    -45.449    517.053    528.374    517.053    518.092    517.053
 78.870    539.000    529.610      9.390    517.086    528.587    517.086    518.108    517.086
 78.970    499.865    529.958    -30.094    517.119    528.950    517.119    518.126    517.119
 79.070    524.000    530.490     -6.490    517.150    529.494    517.150    518.144    517.150
 79.170    560.091    531.237     28.854    517.180    530.251    517.180    518.165    517.180
 79.270    492.000    532.230    -40.230    517.209    531.249    517.209    518.188    517.209
 79.370    497.000    533.498    -36.498    517.237    532.516    517.237    518.215    517.237
 79.470    492.000    535.067    -43.067    517.263    534.078    517.263    518.248    517.263
 79.570    539.000    536.968      2.032    517.288    535.965    517.288    518.287    517.288
 79.670    570.000    539.252     30.748    517.312    538.224    517.312    518.335    517.312
 79.770    516.000    542.001    -26.001    517.335    540.938    517.335    518.392    517.335
 79.870    525.819    545.355    -19.537    517.356    544.247    517.356    518.459    517.356
 79.970    529.000    549.541    -20.541    517.376    548.375    517.376    518.537    517.376
 80.070    550.000    554.893     -4.893    517.395    553.660    517.395    518.624    517.395
 80.170    558.922    561.857     -2.935    517.413    560.549    517.413    518.717    517.413
 80.270    568.000    570.938     -2.938    517.429    569.551    517.429    518.814    517.429
 80.370    552.183    582.600    -30.416    517.444    581.138    517.444    518.907    517.444
 80.470    614.000    597.141     16.859    517.458    595.614    517.458    518.990    517.458
 80.570    575.000    614.580    -39.580    517.470    613.007    517.470    519.052    517.470
 80.670    600.462    634.565    -34.104    517.481    632.973    517.481    519.087    517.481
 80.770    644.191    656.332    -12.142    517.491    654.753    517.491    519.090    517.491
 80.870    697.823    678.725     19.098    517.500    677.191    517.500    519.059    517.500
 80.970    646.000    700.326    -54.326    517.507    698.864    517.507    519.001    517.507
 81.070    683.000    719.664    -36.664    517.513    718.294    517.513    518.922    517.513
 81.170    704.000    735.420    -31.420    517.518    734.151    517.518    518.832    517.518
 81.270    771.658    746.546     25.112    517.521    745.380    517.521    518.739    517.521
 81.370    736.000    752.348    -16.348    517.523    751.280    517.523    518.648    517.523
 81.470    783.000    752.567     30.433    517.523    751.589    517.523    518.563    517.523
 81.570    740.000    747.392     -7.392    517.523    746.492    517.523    518.488    517.523
 81.670    763.000    737.389     25.611    517.521    736.554    517.521    518.422    517.521
 81.770    685.846    723.460    -37.614    517.517    722.678    517.517    518.366    517.517
 81.870    732.000    706.804     25.196    517.512    706.063    517.512    518.320    517.512
 81.970    751.000    688.747     62.253    517.506    688.037    517.506    518.281    517.506
 82.070    638.000    670.475    -32.475    517.499    669.787    517.499    518.248    517.499
 82.170    686.000    652.817     33.183    517.490    652.145    517.490    518.219    517.490
 82.270    636.000    636.207     -0.207    517.480    635.546    517.480    518.194    517.480
 82.370    643.000    620.803     22.197    517.468    620.150    517.468    518.171    517.468
 82.470    582.897    606.669    -23.773    517.456    606.020    517.456    518.149    517.456
 82.570    598.000    593.906      4.094    517.441    593.258    517.441    518.127    517.441
 82.670    621.485    582.674     38.812    517.426    582.026    517.426    518.106    517.426
 82.770    583.000    573.155      9.845    517.409    572.505    517.409    518.084    517.409
 82.870    558.000    565.510     -7.510    517.390    564.857    517.390    518.061    517.390
 82.970    601.307    559.861     41.446    517.370    559.205    517.370    518.037    517.370
 83.070    591.275    556.279     34.996    517.349    555.619    517.349    518.013    517.349
 83.170    584.232    554.760     29.473    517.327    554.095    517.327    517.988    517.327
 83.270    554.000    555.209     -1.209    517.303    554.540    517.303    517.961    517.303
 83.370    557.000    557.421     -0.421    517.277    556.746    517.277    517.934    517.277
 83.470    588.526    561.067     27.459    517.251    560.386    517.251    517.906    517.251
 83.570    590.721    565.691     25.030    517.222    565.005    517.222    517.876    517.222
 83.670    606.781    570.730     36.051    517.193    570.039    517.193    517.846    517.193
 83.770    569.342    575.530     -6.188    517.162    574.835    517.162    517.814    517.162
 83.870    554.000    579.405    -25.405    517.130    578.708    517.130    517.781    517.130
 83.970    543.000    581.723    -38.723    517.096    581.025    517.096    517.747    517.096
 84.070    562.000    582.041    -20.041    517.061    581.343    517.061    517.712    517.061
 84.170    553.000    580.224    -27.224    517.024    579.529    517.024    517.676    517.024
 84.270    520.000    576.486    -56.486    516.986    575.795    516.986    517.638    516.986
 84.370    599.000    571.297     27.703    516.946    570.610    516.946    517.600    516.946
 84.470    530.000    565.236    -35.236    516.906    564.553    516.906    517.560    516.906
 84.570    577.000    558.870     18.130    516.863    558.191    516.863    517.519    516.863
 84.670    539.000    552.680    -13.680    516.820    552.004    516.820    517.477    516.820
 84.770    588.000    547.027     40.973    516.775    546.354    516.775    517.434    516.775
 84.870    543.000    542.140      0.860    516.728    541.468    516.728    517.389    516.728
 84.970    572.000    538.123     33.877    516.680    537.451    516.680    517.343    516.680
 85.070    535.751    534.981      0.770    516.631    534.308    516.631    517.297    516.631
 85.170    536.000    532.643      3.357    516.580    531.968    516.580    517.249    516.580
 85.270    534.000    531.000      3.000    516.528    530.323    516.528    517.199    516.528
 85.370    552.000    529.932     22.068    516.474    529.252    516.474    517.149    516.474
 85.470    504.000    529.330    -25.330    516.419    528.647    516.419    517.097    516.419
 85.570    531.000    529.113      1.887    516.362    528.426    516.362    517.045    516.362
 85.670    541.000    529.235     11.765    516.304    528.544    516.304    516.990    516.304
 85.770    511.000    529.691    -18.691    516.245    528.995    516.245    516.934    516.245
 85.870    505.000    530.521    -25.521    516.184    529.820    516.184    516.877    516.184
 85.970    544.000    531.807     12.193    516.122    531.100    516.122    516.820    516.122
 86.070    565.834    533.674     32.160    516.058    532.959    516.058    516.761    516.058
 86.170    537.000    536.282      0.718    515.993    535.558    515.993    516.702    515.993
 86.270    526.520    539.814    -13.295    515.927    539.080    515.927    516.641    515.927
 86.370    533.000    544.459    -11.459    515.859    543.713    515.859    516.579    515.859
 86.470    578.251    550.383     27.868    515.789    549.622    515.789    516.516    515.789
 86.570    610.000    557.690     52.310    515.718    556.914    515.718    516.452    515.718
 86.670    517.000    566.387    -49.387    515.646    565.594    515.646    516.386    515.646
 86.770    623.000    576.339     46.661    515.572    575.526    515.572    516.320    515.572
 86.870    558.000    587.238    -29.238    515.497    586.406    515.497    516.253    515.497
 86.970    646.000    598.589     47.411    515.421    597.737    515.421    516.184    515.421
 87.070    628.136    609.709     18.427    515.343    608.837    515.343    516.115    515.343
 87.170    596.000    619.748    -23.748    515.263    618.858    515.263    516.045    515.263
 87.270    631.000    627.803      3.197    515.183    626.898    515.183    515.973    515.183
 87.370    637.000    633.023      3.977    515.100    632.107    515.100    515.901    515.100
 87.470    689.000    634.807     54.193    515.017    633.883    515.017    515.828    515.017
 87.570    665.903    632.998     32.905    514.932    632.070    514.932    515.754    514.932
 87.670    665.000    627.927     37.073    514.845    626.998    514.845    515.679    514.845
 87.770    589.693    620.304    -30.611    514.757    619.375    514.757    515.603    514.757
 87.870    627.000    611.043     15.957    514.668    610.115    514.668    515.526    514.668
 87.970    562.000    601.110    -39.110    514.577    600.182    514.577    515.449    514.577
 88.070    555.080    591.414    -36.335    514.485    590.485    514.485    515.371    514.485
 88.170    584.000    582.747      1.253    514.391    581.815    514.391    515.292    514.391
 88.270    617.000    575.729     41.271    514.297    574.793    514.297    515.212    514.297
 88.370    590.000    570.793     19.207    514.200    569.849    514.200    515.132    514.200
 88.470    584.000    568.169     15.831    514.102    567.216    514.102    515.052    514.102
 88.570    587.000    567.891     19.109    514.003    566.929    514.003    514.971    514.003
 88.670    582.000    569.812     12.188    513.903    568.839    513.903    514.889    513.903
 88.770    577.000    573.616      3.384    513.801    572.629    513.801    514.808    513.801
 88.870    620.000    578.838     41.162    513.697    577.837    513.697    514.726    513.697
 88.970    631.239    584.892     46.346    513.593    583.877    513.593    514.644    513.593
 89.070    615.000    591.099     23.901    513.486    590.067    513.486    514.562    513.486
 89.170    596.000    596.723     -0.723    513.379    595.672    513.379    514.480    513.379
 89.270    640.240    601.032     39.207    513.270    599.960    513.270    514.398    513.270
 89.370    580.000    603.402    -23.402    513.160    602.306    513.160    514.316    513.160
 89.470    612.000    603.428      8.572    513.048    602.305    513.048    514.233    513.048
 89.570    615.000    601.028     13.972    512.935    599.875    512.935    514.152    512.935
 89.670    613.267    596.449     16.819    512.821    595.258    512.821    514.073    512.821
 89.770    546.373    590.172    -43.799    512.705    588.940    512.705    513.994    512.705
 89.870    529.000    582.796    -53.796    512.588    581.518    512.588    513.918    512.588
 89.970    538.530    574.918    -36.388    512.470    573.590    512.470    513.843    512.470
 90.070    594.510    567.067     27.443    512.350    565.686    512.350    513.769    512.350
 90.170    533.278    559.668    -26.389    512.229    558.229    512.229    513.699    512.229
 90.270    594.833    553.022     41.811    512.106    551.523    512.106    513.631    512.106
 90.370    562.000    547.314     14.686    511.983    545.750    511.983    513.566    511.983
 90.470    540.675    542.616     -1.941    511.857    540.982    511.857    513.506    511.857
 90.570    517.272    538.913    -21.641    511.731    537.204    511.731    513.450    511.731
 90.670    500.825    536.127    -35.302    511.603    534.337    511.603    513.400    511.603
 90.770    521.415    534.147    -12.732    511.474    532.268    511.474    513.359    511.474
 90.870    489.046    532.851    -43.805    511.344    530.871    511.344    513.327    511.344
 90.970    493.628    532.126    -38.499    511.212    530.031    511.212    513.308    511.212
 91.070    558.488    531.886     26.602    511.079    529.658    511.079    513.308    511.079
 91.170    534.000    532.078      1.922    510.945    529.691    510.945    513.331    510.945
 91.270    494.243    532.692    -38.449    510.809    530.112    510.809    513.388    510.809
 91.370    527.129    533.763     -6.635    510.672    530.943    510.672    513.490    510.672
 91.470    539.000    535.369      3.631    510.534    532.245    510.534    513.655    510.534
 91.570    542.000    537.603      4.397    510.395    534.089    510.395    513.903    510.395
 91.670    565.736    540.712     25.024    510.254    536.696    510.254    514.263    510.254
 91.770    536.213    544.911     -8.698    510.112    540.247    510.112    514.767    510.112
 91.870    525.000    550.434    -25.434    509.969    544.936    509.969    515.454    509.969
 91.970    592.922    557.548     35.374    509.825    550.987    509.825    516.368    509.825
 92.070    564.000    566.513     -2.513    509.679    558.618    509.679    517.553    509.679
 92.170    554.678    577.557    -22.879    509.532    568.009    509.532    519.053    509.532
 92.270    567.423    590.839    -23.417    509.384    579.284    509.384    520.906    509.384
 92.370    622.000    606.419     15.581    509.235    592.476    509.235    523.138    509.235
 92.470    627.000    624.222      2.778    509.085    607.503    509.085    525.756    509.085
 92.570    636.000    644.020     -8.020    508.933    624.152    508.933    528.746    508.933
 92.670    682.000    665.408     16.592    508.780    642.063    508.780    532.063    508.780
 92.770    651.238    687.802    -36.563    508.626    660.729    508.626    535.629    508.626
 92.870    761.000    710.452     50.548    508.471    679.519    508.471    539.329    508.471
 92.970    708.000    732.500    -24.500    508.314    697.730    508.314    543.006    508.314
 93.070    770.000    753.080     16.920    508.157    714.687    508.157    546.467    508.157
 93.170    764.000    771.462     -7.462    507.998    729.893    507.998    549.484    507.998
 93.270    797.000    787.180      9.820    507.838    743.122    507.838    551.814    507.838
 93.370    791.000    800.063     -9.063    507.677    754.430    507.677    553.229    507.677
 93.470    860.000    810.222     49.778    507.515    764.088    507.515    553.569    507.515
 93.570    843.000    817.977     25.023    507.351    772.471    507.351    552.781    507.351
 93.670    785.035    823.800    -38.765    507.187    779.979    507.187    550.934    507.187
 93.770    838.000    828.285      9.715    507.022    787.032    507.022    548.203    507.022
 93.870    833.000    832.148      0.852    506.855    794.115    506.855    544.819    506.855
 93.970    857.000    836.188     20.812    506.687    801.783    506.687    541.025    506.687
 94.070    854.000    841.179     12.821    506.518    810.586    506.518    537.047    506.518
 94.170    868.000    847.692     20.308    506.349    820.907    506.349    533.072    506.349
 94.270    827.559    855.912    -28.353    506.178    832.780    506.178    529.250    506.178
 94.370    847.698    865.524    -17.826    506.006    845.781    506.006    525.691    506.006
 94.470    902.000    875.686     26.314    505.833    858.995    505.833    522.469    505.833
 94.570    946.000    885.093     60.907    505.659    871.078    505.659    519.624    505.659
 94.670    859.780    892.129    -32.349    505.484    880.403    505.484    517.166    505.484
 94.770    874.787    895.097    -20.310    505.308    885.283    505.308    515.086    505.308
 94.870    830.440    892.546    -62.106    505.131    884.294    505.131    513.355    505.131
 94.970    874.515    883.607     -9.092    504.953    876.607    504.953    511.934    504.953
 95.070    929.000    868.232     60.768    504.774    862.217    504.774    510.780    504.774
 95.170    823.418    847.213    -23.795    504.594    841.959    504.594    509.847    504.594
 95.270    864.000    821.996     42.004    504.413    817.321    504.413    509.093    504.413
 95.370    797.000    794.414      2.586    504.231    790.174    504.231    508.480    504.231
 95.470    747.000    766.439    -19.439    504.049    762.522    504.049    507.976    504.049
 95.570    778.369    740.016     38.353    503.865    736.337    503.865    507.554    503.865
 95.670    775.000    716.942     58.058    503.680    713.435    503.680    507.195    503.680
 95.770    739.000    698.868     40.132    503.495    695.486    503.495    506.881    503.495
 95.870    688.485    687.195      1.290    503.309    683.900    503.309    506.602    503.309
 95.970    708.000    683.106     24.894    503.121    679.869    503.121    506.350    503.121
 96.070    662.000    687.582    -25.582    502.933    684.381    502.933    506.117    502.933
 96.170    676.000    701.404    -25.404    502.744    698.222    502.744    505.901    502.744
 96.270    723.000    725.144     -2.144    502.555    721.964    502.555    505.697    502.555
 96.370    719.753    759.124    -39.371    502.364    755.934    502.364    505.506    502.364
 96.470    831.000    803.345     27.655    502.173    800.133    502.173    505.324    502.173
 96.570    838.000    857.396    -19.396    501.980    854.152    501.980    505.152    501.980
 96.670    898.000    920.343    -22.343    501.788    917.057    501.788    504.989    501.788
 96.770    985.659    990.640     -4.981    501.594    987.304    501.594    504.835    501.594
 96.870   1045.000   1066.072    -21.072    501.399   1062.680    501.399    504.690    501.399
 96.970   1156.000   1143.718     12.282    501.204   1140.262    501.204    504.553    501.204
 97.070   1219.000   1219.999     -0.999    501.008   1216.473    501.008    504.426    501.008
 97.170   1273.731   1290.788    -17.057    500.811   1287.187    500.811    504.307    500.811
 97.270   1367.000   1351.659     15.341    500.614   1347.977    500.614    504.199    500.614
 97.370   1387.000   1398.301    -11.301    500.416   1394.533    500.416    504.101    500.416
 97.470   1397.000   1427.133    -30.133    500.217   1423.271    500.217    504.014    500.217
 97.570   1467.000   1435.955     31.045    500.018   1431.989    500.018    503.940    500.018
 97.670   1401.000   1424.402    -23.402    499.818   1420.319    499.818    503.878    499.818
 97.770   1368.000   1393.959    -25.959    499.617   1389.744    499.617    503.832    499.617
 97.870   1361.000   1347.568     13.432    499.416   1343.200    499.416    503.802    499.416
 97.970   1312.000   1289.039     22.961    499.214   1284.494    499.214    503.792    499.214
 98.070   1239.000   1222.516     16.484    499.011   1217.766    499.011    503.804    499.011
 98.170   1150.000   1152.101     -2.101    498.808   1147.114    498.808    503.845    498.808
 98.270   1010.000   1081.609    -71.609    498.605   1076.345    498.605    503.920    498.605
 98.370   1011.445   1014.427     -2.982    498.401   1008.839    498.401    504.039    498.401
 98.470   1000.478    953.443     47.034    498.196    947.470    498.196    504.216    498.196
 98.570    926.000    901.026     24.974    497.991    894.589    497.991    504.468    497.991
 98.670    870.198    859.050     11.148    497.785    852.048    497.785    504.819    497.785
 98.770    806.000    828.946    -22.946    497.579    821.247    497.579    505.302    497.579
 98.870    787.221    811.780    -24.560    497.372    803.207    497.372    505.959    497.372
 98.970    758.038    808.322    -50.284    497.165    798.646    497.165    506.845    497.165
 99.070    746.000    819.113    -73.113    496.958    808.036    496.958    508.029    496.958
 99.170    852.095    844.496      7.599    496.750    831.640    496.750    509.592    496.750
 99.270    844.000    884.613    -40.613    496.542    869.501    496.542    511.632    496.542
 99.370    932.000    939.347     -7.347    496.333    921.393    496.333    514.260    496.333
 99.470    988.000   1008.295    -20.295    496.124    986.790    496.124    517.598    496.124
 99.570   1149.207   1090.612     58.595    495.915   1064.724    495.915    521.772    495.915
 99.670   1244.494   1184.926     59.568    495.705   1153.700    495.705    526.903    495.705
 99.770   1313.290   1289.254     24.036    495.495   1251.625    495.495    533.101    495.495
 99.870   1473.000   1400.927     72.073    495.285   1355.747    495.285    540.452    495.285
 99.970   1472.605   1516.572    -43.967    495.074   1462.648    495.074    548.998    495.074
100.070   1562.484   1632.179    -69.694    494.863   1568.326    494.863    558.735    494.863
100.170   1797.398   1743.298     54.101    494.652   1668.401    494.652    569.589    494.652
100.270   1841.000   1845.376     -4.376    494.441   1758.470    494.441    581.411    494.441
100.370   2006.894   1934.170     72.724    494.230   1834.522    494.230    593.968    494.230
100.470   1993.442   2006.102    -12.660    494.018   1893.302    494.018    606.934    494.018
100.570   2125.000   2058.424     66.576    493.806   1932.477    493.806    619.893    493.806
100.670   2082.243   2089.189     -6.946    493.595   1950.611    493.595    632.334    493.595
100.770   2084.000   2097.202    -13.202    493.383   1947.093    493.383    643.670    493.383
100.870   2129.000   2082.106     46.894    493.170   1922.204    493.170    653.264    493.170
100.970   2038.088   2044.641     -6.553    492.958   1877.320    492.958    660.480    492.958
101.070   1915.949   1986.911    -70.963    492.746   1815.091    492.746    664.770    492.746
101.170   1854.415   1912.426    -58.010    492.534   1739.391    492.534    665.770    492.534
101.270   1743.616   1825.793    -82.176    492.321   1654.933    492.321    663.377    492.321
101.370   1782.579   1732.178     50.401    492.109   1566.698    492.109    657.774    492.109
101.470   1616.000   1636.697    -20.697    491.897   1479.376    491.897    649.389    491.897
101.570   1516.848   1543.921    -27.073    491.685   1396.956    491.685    638.806    491.685
101.670   1480.000   1457.546     22.454    491.473   1322.491    491.473    626.669    491.473
101.770   1317.103   1380.223    -63.120    491.261   1258.002    491.261    613.606    491.261
101.870   1276.252   1313.503    -37.251    491.049   1204.478    491.049    600.185    491.049
101.970   1222.361   1257.873    -35.512    490.837   1161.921    490.837    586.888    490.837
102.070   1215.000   1212.842      2.158    490.625   1129.450    490.625    574.106    490.625
102.170   1134.000   1177.076    -43.076    490.414   1105.434    490.414    562.137    490.414
102.270   1094.000   1148.571    -54.571    490.202   1087.666    490.202    551.185    490.202
102.370   1091.000   1124.896    -33.896    489.991   1073.579    489.991    541.384    489.991
102.470   1058.000   1103.441    -45.441    489.780   1060.514    489.780    532.782    489.780
102.570   1134.000   1081.755     52.245    489.570   1046.031    489.570    525.370    489.570
102.670   1078.588   1057.862     20.726    489.359   1028.210    489.359    519.089    489.359
102.770   1035.917   1030.500      5.417    489.149   1005.883    489.149    513.846    489.149
102.870   1017.000    999.204     17.796    488.940    978.696    488.940    509.527    488.940
102.970    932.000    964.217    -32.217    488.730    947.021    488.730    506.005    488.730
103.070    878.000    926.291    -48.291    488.522    911.741    488.522    503.149    488.522
103.170    886.000    886.499     -0.499    488.313    874.029    488.313    500.856    488.313
103.270    837.314    845.992     -8.678    488.105    835.152    488.105    499.013    488.105
103.370    834.000    805.907     28.093    487.897    796.343    487.897    497.524    487.897
103.470    801.000    767.272     33.728    487.690    758.707    487.690    496.312    487.690
103.570    810.000    730.945     79.055    487.483    723.167    487.483    495.312    487.483
103.670    735.549    697.585     37.964    487.277    690.433    487.277    494.473    487.277
103.770    659.000    667.637     -8.637    487.072    660.990    487.072    493.756    487.072
103.870    628.097    641.333    -13.236    486.867    635.099    486.867    493.132    486.867
103.970    606.000    618.711    -12.711    486.662    612.821    486.662    492.578    486.662
104.070    616.000    599.649     16.351    486.458    594.050    486.458    492.077    486.458
104.170    584.000    583.898      0.102    486.255    578.551    486.255    491.618    486.255
104.270    595.000    571.133     23.867    486.053    566.006    486.053    491.193    486.053
104.370    603.972    560.986     42.986    485.851    556.052    485.851    490.794    485.851
104.470    577.000    553.074     23.926    485.650    548.312    485.650    490.418    485.650
104.570    575.000    547.027     27.973    485.449    542.419    485.449    490.062    485.449
104.670    551.023    542.532      8.491    485.250    538.062    485.250    489.722    485.250
104.770    556.000    539.306     16.694    485.051    534.961    485.051    489.397    485.051
104.870    577.124    537.123     40.001    484.853    532.890    484.853    489.085    484.853
104.970    572.473    535.812     36.661    484.656    531.680    484.656    488.786    484.656
105.070    540.547    535.257      5.290    484.460    531.215    484.460    488.498    484.460
105.170    593.000    535.392     57.608    484.265    531.430    484.265    488.221    484.265
105.270    578.804    536.194     42.611    484.070    532.304    484.070    487.953    484.070
105.370    531.000    537.682     -6.682    483.877    533.857    483.877    487.694    483.877
105.470    523.000    539.911    -16.911    483.684    536.141    483.684    487.444    483.684
105.570    534.056    542.961     -8.905    483.493    539.240    483.493    487.202    483.493
105.670    507.000    546.931    -39.931    483.303    543.252    483.303    486.967    483.303
105.770    536.000    551.923    -15.923    483.113    548.280    483.113    486.740    483.113
105.870    567.702    558.033      9.669    482.925    554.419    482.925    486.520    482.925
105.970    555.000    565.330    -10.330    482.738    561.739    482.738    486.307    482.738
106.070    593.000    573.845     19.155    482.553    570.272    482.553    486.100    482.553
106.170    591.000    583.558      7.442    482.368    579.997    482.368    485.899    482.368
106.270    592.000    594.386     -2.386    482.184    590.833    482.184    485.705    482.184
106.370    647.561    606.179     41.382    482.002    602.628    482.002    485.517    482.002
106.470    606.000    618.716    -12.716    481.821    615.163    481.821    485.335    481.821
106.570    647.000    631.706     15.294    481.642    628.147    481.642    485.158    481.642
106.670    626.000    644.798    -18.798    481.464    641.229    481.464    484.987    481.464
106.770    663.744    657.589      6.154    481.287    654.007    481.287    484.822    481.287
106.870    643.000    669.645    -26.645    481.111    666.046    481.111    484.663    481.111
106.970    653.000    680.525    -27.525    480.937    676.906    480.937    484.509    480.937
107.070    655.000    689.822    -34.822    480.765    686.179    480.765    484.361    480.765
107.170    701.000    697.214      3.786    480.594    693.544    480.594    484.219    480.594
107.270    705.000    702.517      2.483    480.424    698.816    480.424    484.083    480.424
107.370    657.000    705.725    -48.725    480.256    701.990    480.256    483.953    480.256
107.470    674.000    707.023    -33.023    480.090    703.250    480.090    483.828    480.090
107.570    713.000    706.752      6.248    479.925    702.937    479.925    483.710    479.925
107.670    691.000    705.358    -14.358    479.762    701.496    479.762    483.597    479.762
107.770    656.120    703.318    -47.198    479.600    699.405    479.600    483.491    479.600
107.870    704.056    701.083      2.973    479.441    697.115    479.441    483.392    479.441
107.970    704.000    699.032      4.968    479.283    695.002    479.283    483.299    479.283
108.070    699.000    697.437      1.563    479.126    693.341    479.126    483.213    479.126
108.170    672.457    696.450    -23.994    478.972    692.283    478.972    483.134    478.972
108.270    671.000    696.092    -25.092    478.820    691.847    478.820    483.063    478.820
108.370    695.000    696.253     -1.253    478.669    691.925    478.669    482.999    478.669
108.470    692.517    696.704     -4.187    478.520    692.286    478.520    482.943    478.520
108.570    665.655    697.111    -31.456    478.373    692.599    478.373    482.895    478.373
108.670    687.000    697.076    -10.076    478.229    692.461    478.229    482.856    478.229
108.770    700.995    696.173      4.822    478.086    691.448    478.086    482.825    478.086
108.870    705.000    694.011     10.989    477.945    689.169    477.945    482.804    477.945
108.970    710.760    690.291     20.469    477.806    685.324    477.806    482.792    477.806
109.070    664.000    684.854    -20.854    477.670    679.753    477.670    482.791    477.670
109.170    675.000    677.699     -2.699    477.536    672.455    477.536    482.801    477.536
109.270    655.676    668.973    -13.297    477.403    663.577    477.403    482.822    477.403
109.370    637.550    658.939    -21.389    477.273    653.380    477.273    482.855    477.273
109.470    652.000    647.930      4.070    477.146    642.197    477.146    482.901    477.146
109.570    619.000    636.307    -17.307    477.020    630.388    477.020    482.960    477.020
109.670    644.000    624.432     19.568    476.897    618.315    476.897    483.034    476.897
109.770    569.926    612.642    -42.716    476.777    606.313    476.777    483.123    476.777
109.870    619.000    601.237     17.763    476.658    594.683    476.658    483.228    476.658
109.970    583.098    590.470     -7.372    476.543    583.675    476.543    483.352    476.543
110.070    588.612    580.519      8.092    476.429    573.466    476.429    483.494    476.429
110.170    573.688    571.562      2.126    476.318    564.232    476.318    483.658    476.318
110.270    587.000    563.711     23.289    476.210    556.084    476.210    483.845    476.210
110.370    548.000    556.990     -8.990    476.104    549.042    476.104    484.058    476.104
110.470    578.544    551.398     27.146    476.001    543.103    476.001    484.300    476.001
110.570    586.845    546.900     39.945    475.901    538.227    475.901    484.576    475.901
110.670    525.000    543.432    -18.432    475.803    534.346    475.803    484.891    475.803
110.770    553.000    540.915     12.085    475.708    531.371    475.708    485.251    475.708
110.870    535.182    539.258     -4.076    475.616    529.205    475.616    485.667    475.616
110.970    499.623    538.368    -38.746    475.527    527.743    475.527    486.149    475.527
111.070    542.000    538.158      3.842    475.441    526.883    475.441    486.712    475.441
111.170    572.223    538.549     33.674    475.357    526.526    475.357    487.375    475.357
111.270    524.339    539.476    -15.136    475.276    526.584    475.276    488.162    475.276
111.370    543.000    540.889      2.111    475.199    526.977    475.199    489.104    475.199
111.470    553.000    542.758     10.242    475.124    527.636    475.124    490.238    475.124
111.570    529.000    545.071    -16.071    475.053    528.505    475.053    491.611    475.053
111.670    557.775    547.839      9.936    474.984    529.536    474.984    493.278    474.984
111.770    560.000    551.092      8.908    474.919    530.694    474.919    495.307    474.919
111.870    506.000    554.885    -48.885    474.857    531.954    474.857    497.778    474.857
111.970    618.000    559.294     58.706    474.798    533.301    474.798    500.781    474.798
112.070    542.000    564.421    -22.421    474.742    534.733    474.742    504.421    474.742
112.170    525.000    570.387    -45.387    474.690    536.255    474.690    508.811    474.690
112.270    623.322    577.331     45.991    474.641    537.882    474.641    514.079    474.641
112.370    614.957    585.408     29.549    474.595    539.638    474.595    520.354    474.595
112.470    594.000    594.783     -0.783    474.553    541.552    474.553    527.772    474.553
112.570    570.265    605.626    -35.361    474.514    543.663    474.514    536.465    474.514
112.670    628.000    618.110      9.890    474.479    546.020    474.479    546.556    474.479
112.770    635.000    632.402      2.598    474.448    548.682    474.448    558.153    474.448
112.870    617.000    648.661    -31.661    474.420    551.725    474.420    571.340    474.420
112.970    670.000    667.036      2.964    474.395    555.250    474.395    586.165    474.395
113.070    655.123    687.666    -32.543    474.374    559.386    474.374    602.636    474.374
113.170    727.000    710.678     16.322    474.358    564.305    474.358    620.711    474.358
113.270    738.000    736.197      1.803    474.344    570.233    474.344    640.287    474.344
113.370    747.758    764.356    -16.598    474.335    577.468    474.335    661.199    474.335
113.470    797.000    795.305      1.695    474.329    586.399    474.329    683.209    474.329
113.570    844.437    829.242     15.195    474.328    597.531    474.328    706.008    474.328
113.670    906.000    866.424     39.576    474.330    611.510    474.330    729.209    474.330
113.770    899.000    907.207     -8.207    474.337    629.152    474.337    752.350    474.337
113.870    933.000    952.070    -19.070    474.347    651.472    474.347    774.897    474.347
113.970   1008.024   1001.655      6.369    474.361    679.710    474.361    796.249    474.361
114.070   1042.162   1056.800    -14.639    474.380    715.356    474.380    815.755    474.380
114.170   1179.991   1118.584     61.406    474.403    760.168    474.403    832.737    474.403
114.270   1239.796   1188.368     51.428    474.430    816.168    474.430    846.531    474.430
114.370   1268.454   1267.834      0.620    474.461    885.639    474.461    856.536    474.461
114.470   1316.585   1359.015    -42.430    474.497    971.085    474.497    862.283    474.497
114.570   1493.704   1464.292     29.411    474.537   1075.171    474.537    863.485    474.537
114.670   1628.000   1586.349     41.651    474.581   1200.641    474.581    860.083    474.581
114.770   1780.000   1728.059     51.941    474.630   1350.193    474.630    852.251    474.630
114.870   1956.000   1892.317     63.683    474.683   1526.339    474.683    840.374    474.683
114.970   2129.000   2081.810     47.190    474.741   1731.224    474.741    824.993    474.741
115.070   2326.495   2298.766     27.728    474.804   1966.437    474.804    806.748    474.804
115.170   2535.000   2544.689     -9.689    474.871   2232.804    474.871    786.317    474.871
115.270   2868.000   2820.110     47.890    474.943   2530.190    474.943    764.369    474.943
115.370   3089.000   3124.373    -35.373    475.019   2857.312    475.019    741.533    475.019
115.470   3363.136   3455.459    -92.323    475.101   3211.583    475.101    718.378    475.101
115.570   3818.000   3809.867      8.133    475.187   3589.005    475.187    695.404    475.187
115.670   4120.000   4182.553    -62.553    475.278   3984.113    475.278    673.035    475.278
115.770   4390.000   4566.945   -176.945    475.374   4389.988    475.374    651.619    475.374
115.870   4742.000   4955.018   -213.018    475.475   4798.335    475.475    631.429    475.475
115.970   5162.000   5337.453   -175.453    475.581   5199.634    475.581    612.668    475.581
116.070   5638.000   5703.871    -65.871    475.693   5583.376    475.693    595.468    475.693
116.170   6065.000   6043.161     21.839    475.809   5938.380    475.809    579.902    475.809
116.270   6287.000   6343.921    -56.921    475.931   6253.227    475.931    565.985    475.931
116.370   6578.000   6595.032    -17.032    476.057   6516.827    476.057    553.689    476.057
116.470   6879.510   6786.374     93.135    476.189   6719.128    476.189    542.946    476.189
116.570   6949.000   6909.648     39.352    476.327   6851.922    476.327    533.661    476.327
116.670   7079.039   6959.176    119.863    476.470   6909.645    476.470    525.716    476.470
116.770   6954.000   6932.529     21.471    476.618   6889.992    476.618    518.983    476.618
116.870   6719.444   6830.803   -111.359    476.772   6794.186    476.772    513.328    476.772
116.970   6780.000   6658.457    121.543    476.931   6626.818    476.931    508.617    476.931
117.070   6644.000   6422.779    221.221    477.096   6395.298    477.096    504.721    477.096
117.170   6191.000   6133.129     57.871    477.267   6109.103    477.267    501.521    477.267
117.270   5658.000   5800.156   -142.156    477.443   5778.991    477.443    498.906    477.443
117.370   5346.079   5434.967    -88.888    477.625   5416.164    477.625    496.779    477.625
117.470   5016.000   5048.592    -32.592    477.813   5031.737    477.813    495.056    477.813
117.570   4751.764   4651.504    100.260    478.007   4636.259    478.007    493.662    478.007
117.670   4243.000   4253.274    -10.274    478.207   4239.362    478.207    492.536    478.207
117.770   3904.000   3862.316     41.684    478.413   3849.512    478.413    491.628    478.413
117.870   3662.000   3485.723    176.277    478.624   3473.848    478.624    490.895    478.624
117.970   3252.000   3129.183    122.817    478.842   3118.092    478.842    490.304    478.842
118.070   2828.953   2796.957     31.995    479.066   2786.537    479.066    489.827    479.066
118.170   2557.000   2491.942     65.058    479.296   2482.101    479.296    489.444    479.296
118.270   2304.000   2215.768     88.232    479.533   2206.433    479.533    489.138    479.533
118.370   1945.000   1968.949    -23.949    479.776   1960.062    479.776    488.895    479.776
118.470   1783.000   1751.054     31.946    480.025   1742.569    480.025    488.706    480.025
118.570   1588.415   1560.895     27.520    480.280   1552.774    480.280    488.564    480.280
118.670   1338.000   1396.706    -58.706    480.542   1388.918    480.542    488.461    480.542
118.770   1202.000   1256.327    -54.327    480.811   1248.848    480.811    488.394    480.811
118.870   1148.143   1137.369     10.773    481.086   1130.177    481.086    488.359    481.086
118.970   1052.000   1037.352     14.648    481.368   1030.427    481.368    488.353    481.368
119.070    953.000    953.824     -0.824    481.657    947.150    481.657    488.374    481.657
119.170    869.000    884.454    -15.454    481.952    878.016    481.952    488.421    481.952
119.270    869.849    827.090     42.759    482.254    820.875    482.254    488.491    482.254
119.370    771.000    779.803     -8.803    482.563    773.796    482.563    488.584    482.563
119.470    703.000    740.898    -37.898    482.879    735.086    482.879    488.699    482.879
119.570    731.112    708.918     22.194    483.202    703.289    483.202    488.836    483.202
119.670    663.000    682.634    -19.634    483.532    677.175    483.532    488.994    483.532
119.770    617.000    661.023    -44.023    483.870    655.720    483.870    489.174    483.870
119.870    641.000    643.245     -2.245    484.214    638.086    484.214    489.374    484.214
119.970    655.000    628.621     26.379    484.566    623.591    484.566    489.596    484.566
120.070    647.788    616.603     31.184    484.925    611.689    484.925    489.839    484.925
120.170    577.348    606.758    -29.410    485.291    601.944    485.291    490.105    485.291
120.270    601.000    598.741      2.259    485.665    594.012    485.665    490.394    485.665
120.370    639.037    592.282     46.755    486.046    587.623    486.046    490.706    486.046
120.470    633.370    587.169     46.201    486.434    582.564    486.434    491.042    486.434
120.570    591.511    583.240      8.270    486.831    578.669    486.831    491.405    486.831
120.670    604.532    580.368     24.164    487.235    575.810    487.235    491.796    487.235
120.770    591.184    578.451     12.733    487.647    573.886    487.647    492.215    487.647
120.870    549.350    577.411    -28.061    488.066    572.817    488.066    492.665    488.066
120.970    582.000    577.186      4.814    488.493    572.541    488.493    493.145    488.493
121.070    539.818    577.724    -37.906    488.929    573.002    488.929    493.657    488.929
121.170    552.000    578.978    -26.978    489.372    574.155    489.372    494.203    489.372
121.270    574.000    580.904     -6.904    489.823    575.955    489.823    494.782    489.823
121.370    569.000    583.458    -14.458    490.283    578.356    490.283    495.396    490.283
121.470    572.000    586.590    -14.590    490.750    581.310    490.750    496.043    490.750
121.570    580.404    590.245     -9.841    491.226    584.762    491.226    496.725    491.226
121.670    602.000    594.362      7.638    491.710    588.651    491.710    497.439    491.710
121.770    622.000    598.868     23.132    492.203    592.907    492.203    498.184    492.203
121.870    614.000    603.682     10.318    492.704    597.450    492.704    498.958    492.704
121.970    643.000    608.714     34.286    493.213    602.194    493.213    499.758    493.213
122.070    610.148    613.863     -3.714    493.731    607.041    493.731    500.581    493.731
122.170    610.000    619.020     -9.020    494.258    611.887    494.258    501.422    494.258
122.270    591.073    624.071    -32.998    494.793    616.621    494.793    502.276    494.793
122.370    647.001    628.896     18.105    495.337    621.131    495.337    503.138    495.337
122.470    606.000    633.375    -27.375    495.890    625.303    495.890    504.001    495.890
122.570    620.000    637.392    -17.392    496.452    629.025    496.452    504.858    496.452
122.670    627.388    640.838    -13.450    497.022    632.200    497.022    505.703    497.022
122.770    628.000    643.624    -15.624    497.602    634.743    497.602    506.527    497.602
122.870    660.066    645.678     14.387    498.191    636.592    498.191    507.322    498.191
122.970    679.000    646.958     32.042    498.789    637.711    498.789    508.082    498.789
123.070    654.000    647.448      6.552    499.396    638.091    499.396    508.800    499.396
123.170    680.078    647.162     32.916    500.013    637.751    500.013    509.471    500.013
123.270    675.000    646.139     28.861    500.638    636.733    500.638    510.090    500.638
123.370    664.000    644.441     19.559    501.274    635.101    501.274    510.658    501.274
123.470    592.951    642.141    -49.190    501.918    632.928    501.918    511.175    501.918
123.570    675.498    639.328     36.170    502.573    630.299    502.573    511.643    502.573
123.670    636.000    636.089     -0.089    503.237    627.299    503.237    512.065    503.237
123.770    582.000    632.522    -50.522    503.910    624.016    503.910    512.452    503.910
123.870    643.699    628.717     14.982    504.594    620.531    504.594    512.812    504.594
123.970    639.347    624.755     14.592    505.287    616.922    505.287    513.150    505.287
124.070    665.000    620.714     44.286    505.990    613.256    505.990    513.475    505.990
124.170    650.000    616.658     33.342    506.704    609.592    506.704    513.793    506.704
124.270    643.000    612.641     30.359    507.427    605.977    507.427    514.111    507.427
124.370    620.936    608.707     12.229    508.160    602.448    508.160    514.437    508.160
124.470    645.959    604.885     41.074    508.904    599.030    508.904    514.774    508.904
124.570    581.000    601.196    -20.196    509.658    595.736    509.658    515.130    509.658
124.670    647.000    597.649     49.351    510.422    592.574    510.422    515.508    510.422
124.770    599.000    594.248      4.752    511.197    589.543    511.197    515.911    511.197
124.870    551.795    590.990    -39.195    511.982    586.636    511.982    516.343    511.982
124.970    587.000    587.868     -0.868    512.777    583.845    512.777    516.806    512.777
