neutron_powder_diffraction_0205
R_wp: 3.976
Temperature (K): 1074.000
Counts: 83639.00
Wavelength (Ã…): 2.52098
COMMENTS
Test file for demonstrating the .xyy file format in Reel1.0
END OF HEADER
   tth       Y_obs     Y_calc      Y_res    Background    Phase_1_Nuc    Phase_1_Mag    Phase_2_Nuc    Phase_2_Mag
  9.970    605.145    575.343     29.802    574.713    575.312    574.713    574.743    574.713
 10.070    534.000    575.315    -41.315    574.615    575.284    574.615    574.646    574.615
 10.170    573.000    575.279     -2.279    574.515    575.248    574.515    574.545    574.515
 10.270    624.000    575.246     48.754    574.411    575.214    574.411    574.442    574.411
 10.370    608.000    575.231     32.769    574.303    575.188    574.303    574.345    574.303
 10.470    607.583    575.218     32.365    574.192    575.174    574.192    574.236    574.192
 10.570    629.000    575.217     53.783    574.078    575.173    574.078    574.122    574.078
 10.670    603.301    575.235     28.065    573.961    575.191    573.961    574.005    573.961
 10.770    592.000    575.279     16.721    573.840    575.234    573.840    573.885    573.840
 10.870    583.000    575.355      7.645    573.717    575.310    573.717    573.761    573.717
 10.970    549.766    575.476    -25.710    573.590    575.430    573.590    573.635    573.590
 11.070    600.000    575.659     24.341    573.460    575.613    573.460    573.505    573.460
 11.170    559.626    575.927    -16.301    573.327    575.880    573.327    573.372    573.327
 11.270    597.000    576.318     20.682    573.191    576.271    573.191    573.237    573.191
 11.370    585.000    576.901      8.099    573.052    576.848    573.052    573.103    573.052
 11.470    576.433    577.806     -1.373    572.910    577.751    572.910    572.962    572.910
 11.570    605.000    579.425     25.575    572.765    579.369    572.765    572.817    572.765
 11.670    630.474    582.885     47.589    572.617    582.827    572.617    572.670    572.617
 11.770    622.000    590.851     31.149    572.467    590.788    572.467    572.519    572.467
 11.870    597.734    607.703     -9.968    572.313    607.630    572.313    572.366    572.313
 11.970    670.000    636.933     33.067    572.157    636.843    572.157    572.210    572.157
 12.070    634.135    674.831    -40.697    571.998    674.720    571.998    572.051    571.998
 12.170    678.000    704.709    -26.709    571.836    704.581    571.836    571.890    571.836
 12.270    659.000    705.527    -46.527    571.672    705.398    571.672    571.726    571.672
 12.370    629.000    676.395    -47.395    571.504    676.282    571.504    571.559    571.504
 12.470    656.416    637.988     18.427    571.335    637.897    571.335    571.389    571.335
 12.570    558.566    607.750    -49.184    571.162    607.675    571.162    571.217    571.162
 12.670    579.000    589.978    -10.978    570.988    589.912    570.988    571.043    570.988
 12.770    626.873    581.353     45.520    570.810    581.292    570.810    570.866    570.810
 12.870    557.000    577.427    -20.427    570.630    577.368    570.630    570.686    570.630
 12.970    579.000    575.430      3.570    570.448    575.371    570.448    570.504    570.448
 13.070    531.591    574.180    -42.590    570.263    574.121    570.263    570.320    570.263
 13.170    551.000    573.269    -22.269    570.076    573.208    570.076    570.136    570.076
 13.270    532.000    572.548    -40.548    569.887    572.486    569.887    569.948    569.887
 13.370    589.000    571.953     17.047    569.695    571.890    569.695    569.756    569.695
 13.470    574.085    571.445      2.640    569.501    571.382    569.501    569.563    569.501
 13.570    579.000    571.000      8.000    569.304    570.937    569.304    569.367    569.304
 13.670    582.957    570.602     12.355    569.106    570.538    569.106    569.169    569.106
 13.770    558.367    570.238    -11.872    568.905    570.174    568.905    568.968    568.905
 13.870    561.000    569.901     -8.901    568.702    569.837    568.702    568.766    568.702
 13.970    520.000    569.584    -49.584    568.497    569.519    568.497    568.561    568.497
 14.070    615.872    569.282     46.589    568.289    569.217    568.289    568.354    568.289
 14.170    583.000    568.993     14.007    568.080    568.927    568.080    568.145    568.080
 14.270    589.780    568.713     21.067    567.869    568.647    567.869    567.934    567.869
 14.370    565.000    568.440     -3.440    567.655    568.374    567.655    567.721    567.655
 14.470    606.869    568.174     38.695    567.440    568.108    567.440    567.506    567.440
 14.570    550.073    567.912    -17.839    567.223    567.845    567.223    567.289    567.223
 14.670    577.793    567.653     10.140    567.003    567.587    567.003    567.070    567.003
 14.770    535.000    567.398    -32.398    566.782    567.331    566.782    566.849    566.782
 14.870    537.524    567.148    -29.624    566.559    567.080    566.559    566.626    566.559
 14.970    534.000    566.898    -32.898    566.334    566.830    566.334    566.402    566.334
 15.070    609.217    566.647     42.570    566.107    566.579    566.107    566.176    566.107
 15.170    559.000    566.398     -7.398    565.879    566.329    565.879    565.947    565.879
 15.270    532.213    566.148    -33.935    565.649    566.079    565.649    565.718    565.649
 15.370    550.000    565.900    -15.900    565.417    565.830    565.417    565.486    565.417
 15.470    579.000    565.651     13.349    565.183    565.581    565.183    565.253    565.183
 15.570    572.000    565.402      6.598    564.948    565.332    564.948    565.018    564.948
 15.670    512.875    565.154    -52.279    564.711    565.082    564.711    564.783    564.711
 15.770    569.633    564.905      4.728    564.472    564.832    564.472    564.545    564.472
 15.870    542.111    564.655    -22.544    564.232    564.582    564.232    564.305    564.232
 15.970    539.000    564.405    -25.405    563.990    564.331    563.990    564.064    563.990
 16.070    561.000    564.153     -3.153    563.747    564.079    563.747    563.821    563.747
 16.170    508.000    563.902    -55.902    563.502    563.827    563.502    563.577    563.502
 16.270    512.000    563.649    -51.649    563.256    563.574    563.256    563.331    563.256
 16.370    559.000    563.396     -4.396    563.008    563.321    563.008    563.084    563.008
 16.470    582.000    563.142     18.858    562.759    563.066    562.759    562.835    562.759
 16.570    549.000    562.887    -13.887    562.509    562.811    562.509    562.585    562.509
 16.670    560.000    562.633     -2.633    562.257    562.556    562.257    562.334    562.257
 16.770    563.977    562.378      1.599    562.004    562.301    562.004    562.081    562.004
 16.870    564.136    562.121      2.015    561.749    562.043    561.749    561.827    561.749
 16.970    568.225    561.863      6.363    561.493    561.784    561.493    561.572    561.493
 17.070    584.000    561.604     22.396    561.236    561.525    561.236    561.315    561.236
 17.170    545.000    561.344    -16.344    560.978    561.265    560.978    561.057    560.978
 17.270    577.190    561.083     16.107    560.719    561.003    560.719    560.798    560.719
 17.370    549.000    560.822    -11.822    560.458    560.741    560.458    560.538    560.458
 17.470    548.000    560.559    -12.559    560.196    560.479    560.196    560.277    560.196
 17.570    565.000    560.297      4.703    559.933    560.215    559.933    560.014    559.933
 17.670    573.188    560.035     13.153    559.669    559.953    559.669    559.751    559.669
 17.770    534.000    559.771    -25.771    559.404    559.688    559.404    559.486    559.404
 17.870    556.000    559.506     -3.506    559.138    559.422    559.138    559.221    559.138
 17.970    584.000    559.240     24.760    558.870    559.156    558.870    558.954    558.870
 18.070    603.000    558.977     44.023    558.602    558.888    558.602    558.691    558.602
 18.170    561.000    558.711      2.289    558.333    558.620    558.333    558.424    558.333
 18.270    585.000    558.443     26.557    558.062    558.351    558.062    558.155    558.062
 18.370    594.357    558.174     36.183    557.791    558.081    557.791    557.884    557.791
 18.470    582.376    557.905     24.471    557.519    557.811    557.519    557.613    557.519
 18.570    533.000    557.634    -24.634    557.246    557.540    557.246    557.340    557.246
 18.670    580.252    557.364     22.888    556.972    557.269    556.972    557.067    556.972
 18.770    552.000    557.092     -5.092    556.698    556.997    556.698    556.793    556.698
 18.870    557.000    556.820      0.180    556.422    556.724    556.422    556.519    556.422
 18.970    540.000    556.548    -16.548    556.146    556.451    556.146    556.243    556.146
 19.070    537.361    556.275    -18.915    555.869    556.177    555.869    555.967    555.869
 19.170    597.576    556.002     41.574    555.591    555.904    555.591    555.690    555.591
 19.270    543.000    555.729    -12.729    555.312    555.630    555.312    555.412    555.312
 19.370    550.763    555.455     -4.692    555.033    555.355    555.033    555.133    555.033
 19.470    551.000    555.180     -4.180    554.753    555.079    554.753    554.854    554.753
 19.570    532.000    554.906    -22.906    554.473    554.805    554.473    554.575    554.473
 19.670    596.000    554.632     41.368    554.191    554.529    554.191    554.294    554.191
 19.770    561.900    554.357      7.543    553.910    554.253    553.910    554.013    553.910
 19.870    557.850    554.081      3.769    553.627    553.977    553.627    553.732    553.627
 19.970    506.969    553.806    -46.837    553.344    553.700    553.344    553.450    553.344
 20.070    536.000    553.530    -17.530    553.061    553.423    553.061    553.167    553.061
 20.170    528.000    553.255    -25.255    552.777    553.147    552.777    552.884    552.777
 20.270    537.000    552.992    -15.992    552.492    552.884    552.492    552.600    552.492
 20.370    508.000    552.726    -44.726    552.207    552.616    552.207    552.316    552.207
 20.470    527.513    552.451    -24.938    551.921    552.340    551.921    552.032    551.921
 20.570    591.000    552.175     38.825    551.635    552.064    551.635    551.747    551.635
 20.670    564.420    551.899     12.520    551.349    551.787    551.349    551.462    551.349
 20.770    583.083    551.624     31.459    551.062    551.511    551.062    551.176    551.062
 20.870    530.123    551.349    -21.226    550.775    551.234    550.775    550.890    550.775
 20.970    521.000    551.075    -30.075    550.488    550.959    550.488    550.604    550.488
 21.070    531.000    550.801    -19.801    550.200    550.683    550.200    550.317    550.200
 21.170    528.000    550.527    -22.527    549.911    550.409    549.911    550.030    549.911
 21.270    538.966    550.254    -11.288    549.623    550.135    549.623    549.743    549.623
 21.370    565.000    549.982     15.018    549.334    549.861    549.334    549.455    549.334
 21.470    553.000    549.711      3.289    549.045    549.589    549.045    549.168    549.045
 21.570    595.943    549.441     46.502    548.756    549.317    548.756    548.880    548.756
 21.670    549.000    549.172     -0.172    548.466    549.047    548.466    548.592    548.466
 21.770    512.000    548.905    -36.905    548.177    548.778    548.177    548.303    548.177
 21.870    544.000    548.639     -4.639    547.887    548.511    547.887    548.015    547.887
 21.970    567.738    548.383     19.356    547.597    548.253    547.597    547.726    547.597
 22.070    511.000    548.204    -37.204    547.307    548.072    547.307    547.438    547.307
 22.170    560.208    547.969     12.239    547.016    547.834    547.016    547.152    547.016
 22.270    543.000    547.736     -4.736    546.726    547.598    546.726    546.864    546.726
 22.370    562.354    547.510     14.844    546.435    547.371    546.435    546.575    546.435
 22.470    570.229    547.264     22.965    546.145    547.123    546.145    546.286    546.145
 22.570    568.000    547.020     20.980    545.854    546.876    545.854    545.998    545.854
 22.670    552.569    546.785      5.785    545.564    546.640    545.564    545.709    545.564
 22.770    496.547    546.596    -50.049    545.273    546.449    545.273    545.420    545.273
 22.870    583.000    546.391     36.609    544.982    546.241    544.982    545.132    544.982
 22.970    566.000    546.180     19.820    544.692    546.028    544.692    544.843    544.692
 23.070    522.000    545.975    -23.975    544.401    545.822    544.401    544.555    544.401
 23.170    540.000    545.784     -5.784    544.110    545.628    544.110    544.267    544.110
 23.270    556.000    545.610     10.390    543.820    545.452    543.820    543.979    543.820
 23.370    530.709    545.458    -14.749    543.530    545.297    543.530    543.691    543.530
 23.470    511.390    545.333    -33.943    543.239    545.169    543.239    543.404    543.239
 23.570    536.161    545.245     -9.084    542.949    545.079    542.949    543.116    542.949
 23.670    565.304    545.206     20.098    542.659    545.037    542.659    542.829    542.659
 23.770    545.000    545.235     -0.235    542.369    545.063    542.369    542.542    542.369
 23.870    526.000    545.359    -19.359    542.080    545.184    542.080    542.256    542.080
 23.970    546.316    545.632      0.684    541.790    545.454    541.790    541.970    541.790
 24.070    569.000    546.178     22.822    541.501    545.997    541.501    541.684    541.501
 24.170    528.000    547.343    -19.343    541.212    547.160    541.212    541.399    541.212
 24.270    618.000    550.082     67.918    540.923    549.897    540.923    541.114    540.923
 24.370    516.791    556.424    -39.633    540.634    556.239    540.634    540.829    540.634
 24.470    587.000    569.225     17.775    540.346    569.045    540.346    540.545    540.346
 24.570    576.114    589.957    -13.843    540.058    589.788    540.058    540.262    540.058
 24.670    638.000    614.589     23.411    539.770    614.433    539.770    539.979    539.770
 24.770    626.447    630.946     -4.498    539.483    630.797    539.483    539.697    539.483
 24.870    644.437    626.948     17.489    539.196    626.791    539.196    539.415    539.196
 24.970    656.000    605.881     50.119    538.909    605.704    538.909    539.134    538.909
 25.070    587.000    581.297      5.703    538.623    581.096    538.623    538.853    538.623
 25.170    562.000    562.653     -0.653    538.337    562.433    538.337    538.574    538.337
 25.270    562.485    551.755     10.730    538.051    551.520    538.051    538.295    538.051
 25.370    532.202    546.345    -14.143    537.766    546.099    537.766    538.017    537.766
 25.470    563.000    543.785     19.215    537.481    543.530    537.481    537.740    537.481
 25.570    535.000    542.417     -7.417    537.197    542.153    537.197    537.464    537.197
 25.670    515.426    541.526    -26.100    536.913    541.252    536.913    537.189    536.913
 25.770    542.236    540.860      1.376    536.630    540.576    536.630    536.915    536.630
 25.870    545.000    540.334      4.666    536.347    540.040    536.347    536.642    536.347
 25.970    551.000    539.906     11.094    536.065    539.601    536.065    536.371    536.065
 26.070    516.987    539.552    -22.565    535.783    539.235    535.783    536.101    535.783
 26.170    539.328    539.260      0.068    535.501    538.930    535.501    535.832    535.501
 26.270    522.000    539.018    -17.018    535.220    538.674    535.220    535.565    535.220
 26.370    552.000    538.824     13.176    534.940    538.465    534.940    535.300    534.940
 26.470    565.000    538.679     26.321    534.660    538.303    534.660    535.037    534.660
 26.570    553.000    538.586     14.414    534.381    538.192    534.381    534.775    534.381
 26.670    542.000    538.574      3.426    534.103    538.160    534.103    534.517    534.103
 26.770    545.891    538.621      7.271    533.825    538.185    533.825    534.260    533.825
 26.870    540.931    538.722      2.209    533.547    538.262    533.547    534.007    533.547
 26.970    565.000    538.913     26.087    533.271    538.427    533.271    533.757    533.271
 27.070    521.000    539.222    -18.222    532.995    538.706    532.995    533.510    532.995
 27.170    511.000    539.688    -28.688    532.719    539.139    532.719    533.268    532.719
 27.270    544.000    540.365      3.635    532.444    539.779    532.444    533.030    532.444
 27.370    542.000    541.328      0.672    532.170    540.700    532.170    532.797    532.170
 27.470    549.000    542.747      6.253    531.897    542.072    531.897    532.571    531.897
 27.570    582.778    545.017     37.761    531.624    544.286    531.624    532.352    531.624
 27.670    594.149    549.452     44.697    531.352    548.659    531.352    532.142    531.352
 27.770    593.000    560.742     32.258    531.081    559.874    531.081    531.942    531.081
 27.870    620.000    590.713     29.287    530.811    589.753    530.811    531.754    530.811
 27.970    663.000    657.798      5.202    530.541    656.720    530.541    531.580    530.541
 28.070    790.141    770.214     19.927    530.272    768.992    530.272    531.425    530.272
 28.170    857.000    896.152    -39.152    530.004    894.767    530.004    531.292    530.004
 28.270    989.408    958.322     31.086    529.736    956.777    529.736    531.188    529.736
 28.370    970.000    905.599     64.401    529.469    903.892    529.469    531.120    529.469
 28.470    768.807    792.232    -23.425    529.204    790.312    529.204    531.101    529.204
 28.570    688.000    704.657    -16.657    528.939    702.437    528.939    531.149    528.939
 28.670    687.000    687.142     -0.142    528.674    684.506    528.674    531.297    528.674
 28.770    778.000    734.531     43.469    528.411    731.322    528.411    531.602    528.411
 28.870    848.914    805.685     43.229    528.149    801.659    528.149    532.164    528.149
 28.970    757.000    839.421    -82.421    527.887    834.167    527.887    533.146    527.887
 29.070    777.000    799.619    -22.619    527.626    792.481    527.626    534.779    527.626
 29.170    721.000    718.132      2.868    527.366    708.178    527.366    537.334    527.366
 29.270    600.574    643.949    -43.374    527.107    630.019    527.107    541.044    527.107
 29.370    586.000    598.940    -12.940    526.849    579.851    526.849    545.940    526.849
 29.470    610.000    579.906     30.094    526.592    554.933    526.592    551.563    526.592
 29.570    564.000    574.501    -10.501    526.336    544.280    526.336    556.553    526.336
 29.670    574.406    572.258      2.148    526.080    539.611    526.080    558.723    526.080
 29.770    544.505    568.009    -23.504    525.826    537.115    525.826    556.716    525.826
 29.870    553.307    561.490     -8.184    525.572    535.494    525.572    551.566    525.572
 29.970    518.245    554.485    -36.239    525.320    534.359    525.320    545.442    525.320
 30.070    543.000    548.388     -5.388    525.068    533.586    525.068    539.868    525.068
 30.170    532.000    543.764    -11.764    524.818    533.146    524.818    535.433    524.818
 30.270    557.000    540.754     16.246    524.568    533.144    524.568    532.175    524.568
 30.370    567.000    539.578     27.422    524.319    534.008    524.319    529.886    524.319
 30.470    542.000    541.120      0.880    524.072    536.891    524.072    528.295    524.072
 30.570    548.000    547.325      0.675    523.825    543.977    523.825    527.161    523.825
 30.670    543.000    560.464    -17.464    523.580    557.711    523.580    526.310    523.580
 30.770    577.000    580.434     -3.434    523.335    578.101    523.335    525.631    523.335
 30.870    635.000    601.265     33.735    523.092    599.246    523.092    525.060    523.092
 30.970    669.000    610.810     58.190    522.849    609.043    522.849    524.562    522.849
 31.070    590.000    601.019    -11.019    522.608    599.468    522.608    524.115    522.608
 31.170    591.000    579.359     11.641    522.368    577.991    522.368    523.707    522.368
 31.270    572.894    557.974     14.920    522.128    556.758    522.128    523.329    522.128
 31.370    544.000    543.086      0.914    521.890    541.994    521.890    522.975    521.890
 31.470    537.000    534.905      2.095    521.653    533.914    521.653    522.640    521.653
 31.570    533.151    531.031      2.120    521.417    530.124    521.417    522.321    521.417
 31.670    575.138    529.224     45.913    521.182    528.390    521.182    522.015    521.182
 31.770    553.000    528.259     24.741    520.948    527.486    520.948    521.720    520.948
 31.870    559.000    527.645     31.355    520.716    526.926    520.716    521.433    520.716
 31.970    565.164    527.221     37.944    520.484    526.549    520.484    521.155    520.484
 32.070    542.000    526.930     15.070    520.254    526.299    520.254    520.884    520.254
 32.170    506.000    526.752    -20.752    520.025    526.157    520.025    520.618    520.025
 32.270    519.468    526.678     -7.210    519.797    526.115    519.797    520.358    519.797
 32.370    516.484    526.711    -10.227    519.570    526.177    519.570    520.103    519.570
 32.470    527.000    526.856      0.144    519.344    526.348    519.344    519.852    519.344
 32.570    501.090    527.127    -26.037    519.119    526.641    519.119    519.604    519.119
 32.670    584.000    527.551     56.449    518.896    527.085    518.896    519.360    518.896
 32.770    542.000    528.163     13.837    518.673    527.716    518.673    519.119    518.673
 32.870    577.000    529.018     47.982    518.452    528.588    518.452    518.882    518.452
 32.970    522.000    530.194     -8.194    518.232    529.778    518.232    518.647    518.232
 33.070    508.056    531.813    -23.757    518.014    531.410    518.014    518.414    518.014
 33.170    594.000    534.093     59.907    517.796    533.703    517.796    518.185    517.796
 33.270    541.735    537.540      4.196    517.580    537.160    517.580    517.957    517.580
 33.370    560.000    543.540     16.460    517.365    543.170    517.365    517.732    517.365
 33.470    582.000    555.811     26.189    517.151    555.448    517.151    517.508    517.151
 33.570    605.000    582.575     22.425    516.938    582.215    516.938    517.287    516.938
 33.670    624.000    637.096    -13.096    516.727    636.735    516.727    517.068    516.727
 33.770    753.000    731.699     21.301    516.517    731.330    516.517    516.851    516.517
 33.870    815.023    863.014    -47.991    516.308    862.635    516.308    516.635    516.308
 33.970   1026.000    995.228     30.772    516.100    994.845    516.100    516.422    516.100
 34.070   1026.000   1060.145    -34.145    515.894   1059.777    515.894    516.210    515.894
 34.170   1001.027   1011.429    -10.402    515.688   1011.093    515.688    516.000    515.688
 34.270    867.226    885.392    -18.166    515.485    885.085    515.485    515.791    515.485
 34.370    777.000    750.680     26.320    515.282    750.387    515.282    515.584    515.282
 34.470    648.000    648.873     -0.873    515.081    648.585    515.081    515.379    515.081
 34.570    609.000    587.790     21.210    514.881    587.501    514.881    515.175    514.881
 34.670    597.763    556.721     41.042    514.682    556.432    514.682    514.973    514.682
 34.770    543.000    542.089      0.911    514.484    541.801    514.484    514.773    514.484
 34.870    506.714    534.820    -28.106    514.288    534.534    514.288    514.574    514.288
 34.970    530.000    530.572     -0.572    514.093    530.288    514.093    514.377    514.093
 35.070    563.000    527.659     35.341    513.900    527.377    513.900    514.181    513.900
 35.170    504.000    525.469    -21.469    513.707    525.189    513.707    513.987    513.707
 35.270    537.000    523.746     13.254    513.516    523.467    513.516    513.794    513.516
 35.370    538.000    522.352     15.648    513.327    522.076    513.327    513.603    513.327
 35.470    517.000    521.203     -4.203    513.138    520.928    513.138    513.413    513.138
 35.570    502.710    520.239    -17.529    512.951    519.965    512.951    513.225    512.951
 35.670    527.000    519.417      7.583    512.766    519.144    512.766    513.038    512.766
 35.770    539.000    518.707     20.293    512.581    518.435    512.581    512.853    512.581
 35.870    505.000    518.086    -13.086    512.398    517.815    512.398    512.669    512.398
 35.970    516.720    517.539     -0.818    512.216    517.268    512.216    512.487    512.216
 36.070    496.792    517.052    -20.260    512.036    516.781    512.036    512.306    512.036
 36.170    517.000    516.616      0.384    511.857    516.346    511.857    512.127    511.857
 36.270    494.993    516.224    -21.231    511.679    515.954    511.679    511.949    511.679
 36.370    506.041    515.872     -9.831    511.503    515.602    511.503    511.773    511.503
 36.470    488.000    515.555    -27.555    511.328    515.285    511.328    511.598    511.328
 36.570    541.000    515.274     25.726    511.155    515.004    511.155    511.425    511.155
 36.670    535.997    515.028     20.969    510.982    514.758    510.982    511.253    510.982
 36.770    490.068    514.824    -24.756    510.811    514.553    510.811    511.082    510.811
 36.870    491.379    514.679    -23.300    510.642    514.408    510.642    510.913    510.642
 36.970    519.000    514.641      4.359    510.474    514.369    510.474    510.745    510.474
 37.070    524.548    514.829      9.719    510.307    514.557    510.307    510.579    510.307
 37.170    471.200    515.479    -44.279    510.142    515.206    510.142    510.415    510.142
 37.270    494.000    516.934    -22.934    509.977    516.661    509.977    510.251    509.977
 37.370    521.000    519.490      1.510    509.815    519.217    509.815    510.090    509.815
 37.470    496.000    523.069    -27.069    509.654    522.795    509.654    509.930    509.654
 37.570    487.835    526.853    -39.018    509.494    526.578    509.494    509.771    509.494
 37.670    481.000    529.245    -48.245    509.335    528.972    509.335    509.613    509.335
 37.770    522.000    528.911     -6.911    509.178    528.638    509.178    509.458    509.178
 37.870    545.000    526.194     18.806    509.022    525.922    509.022    509.303    509.022
 37.970    469.000    522.559    -53.559    508.868    522.286    508.868    509.150    508.868
 38.070    535.158    519.141     16.017    508.715    518.868    508.715    508.999    508.715
 38.170    518.330    516.385      1.944    508.563    516.109    508.563    508.849    508.563
 38.270    495.845    514.371    -18.526    508.413    514.091    508.413    508.701    508.413
 38.370    466.000    513.005    -47.005    508.264    512.720    508.264    508.554    508.264
 38.470    492.000    512.114    -20.114    508.117    511.825    508.117    508.408    508.117
 38.570    510.701    511.536     -0.835    507.971    511.245    507.971    508.264    507.971
 38.670    480.000    511.148    -31.148    507.827    510.854    507.827    508.122    507.827
 38.770    508.000    510.864     -2.864    507.683    510.568    507.683    507.981    507.683
 38.870    553.000    510.636     42.364    507.542    510.337    507.542    507.841    507.542
 38.970    466.901    510.439    -43.539    507.401    510.138    507.401    507.703    507.401
 39.070    506.000    510.262     -4.262    507.262    509.958    507.262    507.566    507.262
 39.170    473.000    510.099    -37.099    507.125    509.793    507.125    507.431    507.125
 39.270    491.000    509.948    -18.948    506.988    509.639    506.988    507.298    506.988
 39.370    526.000    509.807     16.193    506.854    509.495    506.854    507.166    506.854
 39.470    518.357    509.674      8.682    506.720    509.360    506.720    507.035    506.720
 39.570    499.000    509.550    -10.550    506.588    509.233    506.588    506.906    506.588
 39.670    552.238    509.434     42.805    506.458    509.113    506.458    506.778    506.458
 39.770    513.000    509.324      3.676    506.329    509.001    506.329    506.652    506.329
 39.870    465.000    509.223    -44.223    506.201    508.896    506.201    506.528    506.201
 39.970    546.000    509.128     36.872    506.075    508.799    506.075    506.405    506.075
 40.070    490.669    509.042    -18.373    505.950    508.709    505.950    506.283    505.950
 40.170    509.000    508.963      0.037    505.826    508.627    505.826    506.163    505.826
 40.270    510.000    508.893      1.107    505.704    508.553    505.704    506.045    505.704
 40.370    531.339    508.833     22.506    505.584    508.489    505.584    505.928    505.584
 40.470    544.468    508.783     35.685    505.464    508.435    505.464    505.812    505.464
 40.570    509.000    508.744      0.256    505.347    508.392    505.347    505.698    505.347
 40.670    504.753    508.718     -3.966    505.230    508.363    505.230    505.586    505.230
 40.770    540.825    508.708     32.117    505.115    508.348    505.115    505.475    505.115
 40.870    546.197    508.716     37.482    505.001    508.352    505.001    505.366    505.001
 40.970    507.000    508.744     -1.744    504.889    508.376    504.889    505.258    504.889
 41.070    487.000    508.799    -21.799    504.778    508.426    504.778    505.152    504.778
 41.170    498.000    508.884    -10.884    504.669    508.506    504.669    505.048    504.669
 41.270    486.000    509.009    -23.009    504.561    508.626    504.561    504.945    504.561
 41.370    544.000    509.183     34.817    504.454    508.795    504.454    504.843    504.454
 41.470    512.000    509.422      2.578    504.349    509.029    504.349    504.743    504.349
 41.570    547.020    509.748     37.271    504.245    509.350    504.245    504.645    504.245
 41.670    496.000    510.205    -14.205    504.143    509.802    504.143    504.548    504.143
 41.770    472.000    510.886    -38.886    504.042    510.477    504.042    504.453    504.042
 41.870    470.000    512.020    -42.020    503.943    511.605    503.943    504.359    503.943
 41.970    532.803    514.142     18.661    503.844    513.722    503.844    504.267    503.844
 42.070    495.174    518.341    -23.168    503.748    517.917    503.748    504.177    503.748
 42.170    520.000    526.386     -6.386    503.652    525.958    503.652    504.088    503.652
 42.270    493.761    540.337    -46.577    503.558    539.910    503.558    504.001    503.558
 42.370    551.851    561.314     -9.463    503.466    560.889    503.466    503.916    503.466
 42.470    595.000    587.612      7.388    503.374    587.193    503.374    503.832    503.374
 42.570    610.000    613.080     -3.080    503.285    612.668    503.285    503.750    503.285
 42.670    653.920    627.679     26.241    503.196    627.269    503.196    503.670    503.196
 42.770    589.000    623.741    -34.741    503.109    623.325    503.109    503.591    503.109
 42.870    588.000    603.603    -15.603    503.023    603.169    503.023    503.514    503.023
 42.970    550.783    576.826    -26.043    502.939    576.369    502.939    503.439    502.939
 43.070    552.000    552.141     -0.141    502.856    551.661    502.856    503.365    502.856
 43.170    492.119    533.834    -41.715    502.775    533.333    502.775    503.293    502.775
 43.270    477.386    522.294    -44.907    502.695    521.775    502.695    503.223    502.695
 43.370    508.102    515.862     -7.760    502.616    515.329    502.616    503.155    502.616
 43.470    492.000    512.521    -20.521    502.538    511.974    502.538    503.089    502.538
 43.570    501.000    510.769     -9.769    502.462    510.209    502.462    503.024    502.462
 43.670    499.097    509.758    -10.661    502.388    509.186    502.388    502.962    502.388
 43.770    498.000    509.095    -11.095    502.314    508.510    502.314    502.901    502.314
 43.870    537.061    508.614     28.447    502.243    508.016    502.243    502.842    502.243
 43.970    477.763    508.247    -30.484    502.172    507.635    502.172    502.785    502.172
 44.070    504.000    507.960     -3.960    502.103    507.333    502.103    502.730    502.103
 44.170    542.536    507.733     34.803    502.035    507.091    502.035    502.678    502.035
 44.270    471.949    507.554    -35.605    501.968    506.896    501.968    502.627    501.968
 44.370    485.000    507.414    -22.414    501.903    506.739    501.903    502.578    501.903
 44.470    523.560    507.306     16.254    501.839    506.614    501.839    502.532    501.839
 44.570    489.052    507.225    -18.173    501.777    506.515    501.777    502.488    501.777
 44.670    527.000    507.168     19.832    501.716    506.438    501.716    502.446    501.716
 44.770    491.000    507.132    -16.132    501.656    506.382    501.656    502.407    501.656
 44.870    505.237    507.116     -1.879    501.598    506.343    501.598    502.370    501.598
 44.970    529.000    507.116     21.884    501.541    506.321    501.541    502.336    501.541
 45.070    538.402    507.134     31.268    501.485    506.314    501.485    502.305    501.485
 45.170    552.758    507.168     45.590    501.430    506.322    501.430    502.276    501.430
 45.270    535.000    507.218     27.782    501.377    506.345    501.377    502.250    501.377
 45.370    521.000    507.285     13.715    501.325    506.382    501.325    502.228    501.325
 45.470    485.000    507.368    -22.368    501.275    506.434    501.275    502.208    501.275
 45.570    520.000    507.468     12.532    501.226    506.501    501.226    502.192    501.226
 45.670    469.288    507.586    -38.298    501.178    506.584    501.178    502.180    501.178
 45.770    543.554    507.725     35.830    501.131    506.684    501.131    502.171    501.131
 45.870    477.850    507.884    -30.034    501.086    506.803    501.086    502.167    501.086
 45.970    536.000    508.067     27.933    501.042    506.942    501.042    502.167    501.042
 46.070    498.000    508.277    -10.277    500.999    507.104    500.999    502.172    500.999
 46.170    496.000    508.516    -12.516    500.958    507.292    500.958    502.181    500.958
 46.270    495.000    508.789    -13.789    500.918    507.509    500.918    502.197    500.918
 46.370    509.000    509.102     -0.102    500.879    507.761    500.879    502.219    500.879
 46.470    500.000    509.462     -9.462    500.841    508.056    500.841    502.247    500.841
 46.570    498.000    509.879    -11.879    500.805    508.401    500.805    502.282    500.805
 46.670    511.000    510.368      0.632    500.770    508.811    500.770    502.326    500.770
 46.770    548.912    510.954     37.958    500.736    509.310    500.736    502.379    500.736
 46.870    520.195    511.690      8.505    500.704    509.950    500.704    502.442    500.704
 46.970    475.000    512.691    -37.691    500.673    510.845    500.673    502.517    500.673
 47.070    512.993    514.214     -1.222    500.643    512.249    500.643    502.605    500.643
 47.170    544.000    516.767     27.233    500.614    514.669    500.614    502.708    500.614
 47.270    549.000    521.183     27.817    500.587    518.933    500.587    502.828    500.587
 47.370    540.968    528.526     12.442    500.560    526.105    500.560    502.968    500.560
 47.470    541.241    539.676      1.566    500.535    537.058    500.535    503.132    500.535
 47.570    560.000    554.579      5.421    500.512    551.736    500.512    503.323    500.512
 47.670    602.472    571.440     31.032    500.489    568.339    500.489    503.546    500.489
 47.770    625.000    586.267     38.733    500.468    582.872    500.468    503.809    500.468
 47.870    606.000    593.751     12.249    500.448    590.023    500.448    504.120    500.448
 47.970    588.000    590.730     -2.730    500.429    586.618    500.429    504.489    500.429
 48.070    583.171    579.354      3.817    500.411    574.790    500.411    504.933    500.411
 48.170    569.000    564.825      4.175    500.395    559.715    500.395    505.474    500.395
 48.270    581.000    551.638     29.362    500.380    545.848    500.380    506.149    500.380
 48.370    510.000    542.208    -32.208    500.365    535.540    500.365    507.021    500.365
 48.470    519.000    537.102    -18.102    500.353    529.251    500.353    508.195    500.353
 48.570    560.000    535.831     24.169    500.341    526.320    500.341    509.847    500.341
 48.670    527.982    537.676     -9.694    500.330    525.751    500.330    512.250    500.330
 48.770    536.000    542.211     -6.211    500.321    526.727    500.321    515.801    500.321
 48.870    512.552    549.471    -36.919    500.313    528.781    500.313    520.998    500.313
 48.970    495.000    559.852    -64.852    500.306    531.775    500.306    528.377    500.306
 49.070    533.000    573.935    -40.935    500.300    535.870    500.300    538.359    500.300
 49.170    599.000    592.420      6.580    500.295    541.682    500.295    551.025    500.295
 49.270    601.585    616.455    -14.870    500.292    550.916    500.292    565.819    500.292
 49.370    664.000    648.793     15.207    500.289    567.908    500.289    581.157    500.289
 49.470    692.000    696.276     -4.276    500.288    602.410    500.288    594.126    500.288
 49.570    829.000    773.649     55.351    500.288    672.896    500.288    600.993    500.288
 49.670    954.000    906.279     47.721    500.289    807.234    500.289    599.254    500.289
 49.770   1069.292   1124.846    -55.554    500.291   1035.392    500.291    589.624    500.291
 49.870   1450.100   1446.038      4.063    500.294   1370.793    500.294    575.381    500.294
 49.970   1847.000   1845.341      1.659    500.299   1785.426    500.299    560.046    500.299
 50.070   2270.000   2239.652     30.348    500.304   2193.833    500.304    545.994    500.304
 50.170   2598.000   2500.372     97.628    500.311   2466.283    500.311    534.370    500.311
 50.270   2475.000   2515.663    -40.663    500.318   2490.627    500.318    525.448    500.318
 50.370   2325.000   2274.366     50.634    500.327   2255.889    500.327    518.988    500.327
 50.470   1868.000   1877.108     -9.108    500.337   1863.151    500.337    514.505    500.337
 50.570   1462.956   1457.432      5.524    500.347   1446.501    500.347    511.468    500.347
 50.670   1104.950   1110.605     -5.655    500.359   1101.696    500.359    509.412    500.359
 50.770    819.950    873.303    -53.353    500.372    865.782    500.372    507.991    500.372
 50.870    712.443    735.987    -23.543    500.386    729.467    500.386    506.972    500.386
 50.970    706.685    667.354     39.331    500.401    661.595    500.401    506.208    500.401
 51.070    635.000    635.072     -0.072    500.418    629.914    500.418    505.615    500.418
 51.170    573.382    616.369    -42.987    500.435    611.699    500.435    505.140    500.435
 51.270    637.000    600.210     36.790    500.453    595.940    500.453    504.753    500.453
 51.370    619.197    584.127     35.070    500.472    580.188    500.472    504.434    500.472
 51.470    525.942    569.245    -43.303    500.492    565.585    500.492    504.170    500.492
 51.570    511.625    556.994    -45.369    500.514    553.569    500.514    503.951    500.514
 51.670    568.000    548.000     20.000    500.536    544.776    500.536    503.768    500.536
 51.770    583.000    542.074     40.926    500.559    539.021    500.559    503.617    500.559
 51.870    568.000    538.572     29.428    500.583    535.668    500.583    503.492    500.583
 51.970    512.427    536.786    -24.359    500.609    534.009    500.609    503.390    500.609
 52.070    527.461    536.182     -8.721    500.635    533.512    500.635    503.307    500.635
 52.170    547.174    536.471     10.704    500.662    533.894    500.662    503.241    500.662
 52.270    578.504    537.604     40.900    500.690    535.105    500.690    503.191    500.690
 52.370    594.000    539.786     54.214    500.719    537.354    500.719    503.153    500.719
 52.470    559.449    543.628     15.821    500.750    541.250    500.750    503.128    500.750
 52.570    555.766    550.496      5.269    500.781    548.164    500.781    503.113    500.781
 52.670    538.281    563.070    -24.790    500.813    560.774    500.813    503.109    500.813
 52.770    631.212    585.889     45.322    500.845    583.621    500.845    503.113    500.845
 52.870    658.000    625.370     32.630    500.879    623.121    500.879    503.126    500.879
 52.970    742.000    688.516     53.484    500.914    686.280    500.914    503.146    500.914
 53.070    805.000    779.842     25.158    500.950    777.612    500.950    503.174    500.950
 53.170    866.000    896.981    -30.981    500.986    894.754    500.986    503.209    500.986
 53.270    990.000   1026.496    -36.496    501.024   1024.269    501.024    503.251    501.024
 53.370   1177.000   1141.982     35.018    501.062   1139.754    501.062    503.299    501.062
 53.470   1193.000   1208.868    -15.868    501.101   1206.637    501.101    503.354    501.101
 53.570   1168.000   1201.794    -33.794    501.141   1199.555    501.141    503.415    501.141
 53.670   1174.331   1123.956     50.375    501.182   1121.698    501.182    503.482    501.182
 53.770   1006.484   1004.127      2.357    501.224   1001.837    501.224    503.556    501.224
 53.870    849.000    876.031    -27.031    501.267    873.698    501.267    503.636    501.267
 53.970    725.413    763.687    -38.274    501.311    761.303    501.311    503.722    501.311
 54.070    648.000    678.250    -30.250    501.355    675.809    501.355    503.814    501.355
 54.170    649.000    620.488     28.512    501.400    617.986    501.400    503.914    501.400
 54.270    590.000    585.153      4.847    501.446    582.586    501.446    504.020    501.446
 54.370    573.000    565.202      7.798    501.493    562.567    501.493    504.133    501.493
 54.470    565.000    554.535     10.465    501.541    551.824    501.541    504.255    501.541
 54.570    561.000    548.982     12.018    501.590    546.190    501.590    504.384    501.590
 54.670    566.000    546.146     19.854    501.639    543.265    501.639    504.521    501.639
 54.770    532.000    544.820    -12.820    501.689    541.842    501.689    504.668    501.689
 54.870    567.000    544.457     22.543    501.740    541.374    501.740    504.824    501.740
 54.970    546.000    544.830      1.170    501.792    541.632    501.792    504.990    501.792
 55.070    552.000    545.858      6.142    501.844    542.534    501.844    505.168    501.844
 55.170    575.000    547.531     27.469    501.897    544.071    501.897    505.358    501.897
 55.270    553.000    549.889      3.111    501.951    546.280    501.951    505.561    501.951
 55.370    517.675    553.020    -35.344    502.006    549.248    502.006    505.779    502.006
 55.470    578.000    557.083     20.917    502.061    553.133    502.061    506.012    502.061
 55.570    569.000    562.383      6.617    502.118    558.238    502.118    506.263    502.118
 55.670    593.000    569.553     23.447    502.175    565.195    502.175    506.533    502.175
 55.770    577.000    579.973     -2.973    502.232    575.379    502.232    506.825    502.232
 55.870    570.000    596.590    -26.590    502.291    591.738    502.291    507.141    502.291
 55.970    601.000    625.250    -24.250    502.350    620.110    502.350    507.485    502.350
 56.070    654.000    676.268    -22.268    502.409    670.809    502.409    507.858    502.409
 56.170    708.000    765.329    -57.329    502.470    759.512    502.470    508.267    502.470
 56.270    857.000    911.954    -54.954    502.531    905.737    502.531    508.714    502.531
 56.370   1163.631   1133.839     29.793    502.593   1127.177    502.593    509.207    502.593
 56.470   1506.137   1436.884     69.252    502.655   1429.732    502.655    509.751    502.655
 56.570   1822.309   1803.661     18.648    502.718   1795.973    502.718    510.355    502.718
 56.670   2166.000   2185.013    -19.013    502.782   2176.744    502.782    511.028    502.782
 56.770   2490.000   2500.329    -10.329    502.846   2491.429    502.846    511.783    502.846
 56.870   2616.000   2657.283    -41.283    502.912   2647.681    502.912    512.634    502.912
 56.970   2579.000   2600.422    -21.422    502.977   2590.006    502.977    513.598    502.977
 57.070   2329.000   2352.389    -23.389    503.043   2340.990    503.043    514.699    503.043
 57.170   2042.000   1994.893     47.107    503.110   1982.299    503.110    515.968    503.110
 57.270   1568.398   1617.384    -48.986    503.178   1603.350    503.178    517.447    503.178
 57.370   1261.603   1284.550    -22.948    503.246   1268.782    503.246    519.199    503.246
 57.470   1059.000   1028.293     30.707    503.315   1010.413    503.315    521.326    503.315
 57.570    840.939    852.742    -11.802    503.384    832.218    503.384    523.992    503.384
 57.670    806.000    745.042     60.958    503.454    721.080    503.454    527.466    503.454
 57.770    745.000    686.712     58.288    503.524    658.084    503.524    532.178    503.524
 57.870    698.000    661.702     36.298    503.595    626.525    503.595    538.783    503.595
 57.970    674.000    659.989     14.011    503.667    615.447    503.667    548.208    503.667
 58.070    710.000    677.725     32.275    503.739    619.808    503.739    561.645    503.739
 58.170    706.000    715.536     -9.536    503.811    638.866    503.811    580.459    503.811
 58.270    727.000    776.156    -49.156    503.884    674.044    503.884    605.962    503.884
 58.370    878.969    861.777     17.192    503.958    726.632    503.958    639.056    503.958
 58.470    943.000    971.721    -28.721    504.032    795.923    504.032    679.773    504.032
 58.570   1084.000   1100.529    -16.529    504.106    877.840    504.106    726.732    504.106
 58.670   1248.000   1237.041     10.959    504.182    964.655    504.182    776.506    504.182
 58.770   1330.000   1365.536    -35.536    504.257   1046.788    504.257    822.953    504.257
 58.870   1526.000   1468.880     57.120    504.333   1115.889    504.333    857.287    504.333
 58.970   1538.000   1531.584      6.416    504.410   1165.428    504.410    870.549    504.410
 59.070   1525.856   1543.033    -17.177    504.487   1188.890    504.487    858.635    504.487
 59.170   1587.000   1502.620     84.380    504.564   1181.887    504.564    825.319    504.564
 59.270   1399.000   1422.721    -23.721    504.642   1147.951    504.642    779.439    504.642
 59.370   1310.352   1324.422    -14.070    504.720   1099.309    504.720    729.851    504.720
 59.470   1289.000   1229.320     59.680    504.799   1051.283    504.799    682.830    504.799
 59.570   1135.643   1155.448    -19.805    504.878   1018.357    504.878    641.930    504.878
 59.670   1088.000   1117.956    -29.956    504.958   1014.215    504.958    608.616    504.958
 59.770   1122.000   1128.348     -6.348    505.038   1050.334    505.038    582.918    505.038
 59.870   1195.000   1189.732      5.268    505.118   1130.695    505.118    563.966    505.118
 59.970   1341.000   1292.062     48.938    505.199   1246.559    505.199    550.462    505.199
 60.070   1462.000   1410.702     51.298    505.280   1374.665    505.280    541.038    505.280
 60.170   1538.017   1509.188     28.830    505.361   1479.769    505.361    534.490    505.361
 60.270   1603.285   1548.901     54.384    505.443   1524.198    505.443    529.880    505.443
 60.370   1540.965   1507.354     33.611    505.525   1486.124    505.525    526.543    505.525
 60.470   1451.000   1391.899     59.101    505.608   1373.318    505.608    524.041    505.608
 60.570   1336.000   1232.505    103.495    505.690   1216.004    505.690    522.104    505.690
 60.670   1006.000   1063.636    -57.636    505.774   1048.797    505.774    520.569    505.774
 60.770    847.833    911.954    -64.121    505.857    898.450    505.857    519.344    505.857
 60.870    770.051    792.209    -22.157    505.941    779.769    505.941    518.375    505.941
 60.970    690.000    708.191    -18.191    506.025    696.577    506.025    517.636    506.025
 61.070    630.565    656.502    -25.937    506.109    645.495    506.109    517.111    506.109
 61.170    629.000    631.219     -2.219    506.194    620.611    506.194    516.791    506.194
 61.270    627.000    627.718     -0.718    506.279    617.313    506.279    516.665    506.279
 61.370    639.494    644.746     -5.253    506.364    634.365    506.364    516.714    506.364
 61.470    682.000    684.571     -2.571    506.449    674.067    506.449    516.906    506.449
 61.570    749.000    751.393     -2.393    506.535    740.673    506.535    517.184    506.535
 61.670    796.000    848.375    -52.375    506.621    837.431    506.621    517.465    506.621
 61.770    901.000    973.949    -72.949    506.707    962.889    506.707    517.636    506.707
 61.870   1120.040   1118.529      1.511    506.794   1107.579    506.794    517.584    506.794
 61.970   1256.783   1262.845     -6.062    506.880   1252.302    506.880    517.247    506.880
 62.070   1339.922   1379.192    -39.270    506.967   1369.333    506.967    516.651    506.967
 62.170   1459.411   1438.053     21.358    507.054   1429.068    507.054    515.889    507.054
 62.270   1383.000   1421.504    -38.504    507.141   1413.470    507.141    515.067    507.141
 62.370   1298.000   1334.467    -36.467    507.229   1327.363    507.229    514.271    507.229
 62.470   1151.488   1201.182    -49.694    507.316   1194.920    507.316    513.553    507.316
 62.570   1036.000   1051.528    -15.528    507.404   1045.992    507.404    512.941    507.404
 62.670    955.000    910.207     44.793    507.492    905.270    507.492    512.441    507.492
 62.770    767.000    792.459    -25.459    507.580    788.005    507.580    512.049    507.580
 62.870    672.000    704.028    -32.028    507.668    699.959    507.668    511.751    507.668
 62.970    643.000    643.425     -0.425    507.756    639.660    507.756    511.530    507.756
 63.070    581.400    605.164    -23.765    507.845    601.645    507.845    511.368    507.845
 63.170    596.000    582.743     13.257    507.933    579.425    507.933    511.252    507.933
 63.270    601.000    570.587     30.413    508.022    567.437    508.022    511.169    508.022
 63.370    581.978    564.862     17.116    508.111    561.857    508.111    511.111    508.111
 63.470    545.196    563.541    -18.345    508.200    560.662    508.200    511.071    508.200
 63.570    584.000    566.144     17.856    508.289    563.377    508.289    511.046    508.289
 63.670    541.527    573.462    -31.935    508.378    570.795    508.378    511.031    508.378
 63.770    616.000    587.297     28.703    508.467    584.718    508.467    511.027    508.467
 63.870    649.000    610.116     38.884    508.556    607.612    508.556    511.030    508.556
 63.970    663.341    644.446     18.895    508.645    642.008    508.645    511.041    508.645
 64.070    721.109    691.963     29.147    508.734    689.579    508.734    511.058    508.734
 64.170    767.000    752.355     14.645    508.823    750.018    508.823    511.080    508.823
 64.270    837.000    822.256     14.744    508.912    819.960    508.912    511.108    508.912
 64.370    947.875    894.548     53.328    509.002    892.291    509.002    511.141    509.002
 64.470   1023.960    958.593     65.367    509.091    956.379    509.091    511.178    509.091
 64.570    973.000   1002.471    -29.471    509.180   1000.308    509.180    511.219    509.180
 64.670   1051.789   1017.608     34.181    509.269   1015.503    509.269    511.264    509.269
 64.770    984.000   1002.596    -18.596    509.359   1000.555    509.359    511.312    509.359
 64.870    943.226    962.779    -19.552    509.448    960.804    509.448    511.363    509.448
 64.970    923.000    907.357     15.643    509.537    905.445    509.537    511.418    509.537
 65.070    882.000    846.347     35.653    509.626    844.490    509.626    511.475    509.626
 65.170    810.000    787.823     22.177    509.715    786.014    509.715    511.535    509.715
 65.270    690.000    736.366    -46.366    509.804    734.595    509.804    511.597    509.804
 65.370    737.044    693.331     43.712    509.893    691.590    509.893    511.662    509.893
 65.470    683.581    658.277     25.304    509.982    656.557    509.982    511.729    509.982
 65.570    581.633    630.284    -48.651    510.071    628.580    510.071    511.798    510.071
 65.670    646.274    608.434     37.839    510.159    606.743    510.159    511.869    510.159
 65.770    588.000    591.835     -3.835    510.248    590.153    510.248    511.942    510.248
 65.870    577.000    579.642     -2.642    510.336    577.969    510.336    512.017    510.336
 65.970    576.795    571.101      5.694    510.425    569.435    510.425    512.094    510.425
 66.070    589.000    565.544     23.456    510.513    563.885    510.513    512.173    510.513
 66.170    551.000    562.393    -11.393    510.601    560.741    510.601    512.254    510.601
 66.270    594.000    561.165     32.835    510.689    559.517    510.689    512.336    510.689
 66.370    597.000    561.496     35.504    510.777    559.852    510.777    512.420    510.777
 66.470    548.000    563.187    -15.187    510.864    561.545    510.864    512.506    510.864
 66.570    553.901    566.258    -12.357    510.952    564.617    510.952    512.593    510.952
 66.670    567.000    571.054     -4.054    511.039    569.414    511.039    512.681    511.039
 66.770    566.000    578.451    -12.451    511.126    576.807    511.126    512.772    511.126
 66.870    582.000    590.181     -8.181    511.213    588.530    511.213    512.864    511.213
 66.970    560.000    609.316    -49.316    511.300    607.656    511.300    512.959    511.300
 67.070    617.000    640.801    -23.801    511.386    639.129    511.386    513.055    511.386
 67.170    652.000    691.795    -39.795    511.472    690.107    511.472    513.153    511.472
 67.270    724.000    771.434    -47.434    511.558    769.727    511.558    513.253    511.558
 67.370    868.000    889.570    -21.570    511.644    887.843    511.644    513.355    511.644
 67.470   1057.000   1054.222      2.778    511.730   1052.475    511.730    513.460    511.730
 67.570   1287.000   1267.946     19.054    511.815   1266.184    511.815    513.566    511.815
 67.670   1554.737   1523.950     30.787    511.900   1522.182    511.900    513.675    511.900
 67.770   1847.000   1803.114     43.886    511.985   1801.353    511.985    513.786    511.985
 67.870   2075.000   2073.054      1.946    512.069   2071.314    512.069    513.899    512.069
 67.970   2347.368   2290.712     56.656    512.153   2289.006    512.153    514.016    512.153
 68.070   2448.000   2411.464     36.536    512.237   2409.795    512.237    514.135    512.237
 68.170   2425.259   2406.050     19.209    512.321   2404.407    512.321    514.257    512.321
 68.270   2287.000   2275.963     11.037    512.404   2274.316    512.404    514.383    512.404
 68.370   2106.000   2052.515     53.485    512.487   2050.827    512.487    514.512    512.487
 68.470   1836.000   1780.693     55.307    512.570   1778.929    512.570    514.645    512.570
 68.570   1537.000   1502.844     34.156    512.652   1500.981    512.652    514.782    512.652
 68.670   1278.516   1250.258     28.258    512.734   1248.283    512.734    514.924    512.734
 68.770   1065.018   1040.944     24.074    512.816   1038.850    512.816    515.071    512.816
 68.870    856.000    880.772    -24.772    512.897    878.561    512.897    515.223    512.897
 68.970    782.916    766.578     16.338    512.978    764.253    512.978    515.381    512.978
 69.070    675.000    690.070    -15.070    513.058    687.634    513.058    515.546    513.058
 69.170    643.000    641.382      1.618    513.138    638.836    513.138    515.718    513.138
 69.270    699.000    611.514     87.486    513.218    608.856    513.218    515.898    513.218
 69.370    679.000    593.488     85.512    513.298    590.714    513.298    516.086    513.298
 69.470    571.000    582.517    -11.517    513.376    579.618    513.376    516.285    513.376
 69.570    625.000    575.628     49.372    513.455    572.595    513.455    516.495    513.455
 69.670    598.000    571.118     26.882    513.533    567.939    513.533    516.717    513.533
 69.770    590.173    568.078     22.095    513.611    564.740    513.611    516.953    513.611
 69.870    642.000    566.044     75.956    513.688    562.530    513.688    517.205    513.688
 69.970    519.246    564.785    -45.540    513.765    561.078    513.765    517.474    513.765
 70.070    609.029    564.198     44.832    513.841    560.276    513.841    517.764    513.841
 70.170    564.000    564.248     -0.248    513.917    560.088    513.917    518.077    513.917
 70.270    603.000    564.965     38.035    513.993    560.541    513.993    518.416    513.993
 70.370    571.000    566.456      4.544    514.068    561.736    514.068    518.786    514.068
 70.470    596.000    568.963     27.037    514.142    563.911    514.142    519.191    514.142
 70.570    562.000    572.958    -10.958    514.216    567.533    514.216    519.637    514.216
 70.670    567.000    579.319    -12.319    514.290    573.470    514.290    520.131    514.290
 70.770    605.000    589.548     15.452    514.363    583.215    514.363    520.685    514.363
 70.870    608.000    606.048      1.952    514.435    599.156    514.435    521.310    514.435
 70.970    623.000    632.360     -9.360    514.507    624.813    514.507    522.027    514.507
 71.070    677.000    673.206      3.794    514.579    664.877    514.579    522.867    514.579
 71.170    760.270    734.166     26.104    514.650    724.878    514.650    523.879    514.650
 71.270    784.000    820.794    -36.794    514.720    810.290    514.720    525.141    514.720
 71.370    955.000    937.141     17.859    514.790    925.042    514.790    526.778    514.790
 71.470   1010.000   1083.872    -73.872    514.860   1069.609    514.860    528.981    514.860
 71.570   1184.000   1256.395    -72.395    514.928   1239.121    514.928    532.031    514.928
 71.670   1404.000   1443.527    -39.527    514.996   1422.007    514.996    536.321    514.996
 71.770   1592.000   1627.156    -35.156    515.064   1599.657    515.064    542.357    515.064
 71.870   1704.716   1783.507    -78.792    515.131   1747.693    515.131    550.743    515.131
 71.970   1927.000   1887.253     39.747    515.198   1840.151    515.198    562.119    515.198
 72.070   1909.000   1919.488    -10.488    515.263   1857.544    515.263    577.062    515.263
 72.170   1917.866   1876.482     41.384    515.329   1795.766    515.329    595.938    515.329
 72.270   1733.000   1771.811    -38.811    515.393   1668.397    515.393    618.736    515.393
 72.370   1669.000   1629.367     39.633    515.457   1499.890    515.457    644.892    515.457
 72.470   1504.000   1473.799     30.201    515.521   1316.159    515.521    673.136    515.521
 72.570   1364.000   1324.408     39.592    515.583   1138.614    515.583    701.363    515.583
 72.670   1153.000   1192.838    -39.838    515.646    981.876    515.646    726.597    515.646
 72.770   1051.253   1083.112    -31.859    515.707    853.559    515.707    745.249    515.707
 72.870    947.000    993.472    -46.472    515.768    755.261    515.768    753.966    515.768
 72.970    871.035    919.433    -48.398    515.828    684.290    515.828    750.958    515.828
 73.070    823.000    856.653    -33.653    515.888    635.632    515.888    736.895    515.888
 73.170    845.964    802.262     43.702    515.946    603.651    515.946    714.545    515.946
 73.270    773.170    754.764     18.406    516.005    583.253    516.005    687.506    516.005
 73.370    750.694    713.483     37.211    516.062    570.441    516.062    659.096    516.062
 73.470    661.442    678.151    -16.709    516.119    562.415    516.119    631.849    516.119
 73.570    632.258    648.658    -16.400    516.175    557.401    516.175    607.430    516.175
 73.670    647.000    624.869     22.131    516.230    554.371    516.230    586.729    516.230
 73.770    582.000    606.503    -24.503    516.285    552.783    516.285    570.008    516.285
 73.870    556.030    593.084    -37.054    516.339    552.365    516.339    557.065    516.339
 73.970    644.000    583.961     60.039    516.392    552.958    516.392    547.407    516.392
 74.070    590.489    578.356     12.133    516.445    554.408    516.445    540.410    516.445
 74.170    597.000    575.425     21.575    516.496    556.500    516.496    535.445    516.496
 74.270    625.000    574.298     50.702    516.547    558.922    516.547    531.953    516.547
 74.370    568.000    574.113     -6.113    516.597    561.260    516.597    529.486    516.597
 74.470    581.186    574.051      7.135    516.647    563.027    516.647    527.711    516.647
 74.570    684.000    573.415    110.585    516.696    563.758    516.696    526.396    516.696
 74.670    588.823    571.757     17.066    516.744    563.158    516.744    525.386    516.744
 74.770    541.620    568.990    -27.370    516.791    561.241    516.791    524.581    516.791
 74.870    664.000    565.369     98.631    516.837    558.322    516.837    523.921    516.837
 74.970    606.000    561.351     44.649    516.883    554.900    516.883    523.366    516.883
 75.070    595.000    557.455     37.545    516.928    551.517    516.928    522.891    516.928
 75.170    660.000    554.181    105.819    516.972    548.691    516.972    522.481    516.972
 75.270    588.000    552.004     35.996    517.015    546.909    517.015    522.123    517.015
 75.370    572.000    551.388     20.612    517.057    546.643    517.057    521.810    517.057
 75.470    539.000    552.816    -13.816    517.099    548.382    517.099    521.534    517.099
 75.570    574.000    556.800     17.200    517.140    552.646    517.140    521.290    517.140
 75.670    548.000    563.861    -15.861    517.180    559.956    517.180    521.075    517.180
 75.770    591.000    574.443     16.557    517.219    570.763    517.219    520.883    517.219
 75.870    595.000    588.782      6.218    517.257    585.303    517.257    520.712    517.257
 75.970    627.000    606.731     20.269    517.294    603.433    517.294    520.560    517.294
 76.070    646.000    627.601     18.399    517.331    624.467    517.331    520.424    517.331
 76.170    665.152    650.044     15.108    517.366    647.059    517.366    520.302    517.366
 76.270    678.000    672.031      5.969    517.401    669.183    517.401    520.193    517.401
 76.370    620.000    690.953    -70.953    517.435    688.232    517.435    520.094    517.435
 76.470    741.038    703.952     37.086    517.468    701.351    517.468    520.006    517.468
 76.570    692.000    708.636    -16.636    517.501    706.149    517.501    519.926    517.501
 76.670    684.000    704.003    -20.003    517.532    701.626    517.532    519.854    517.532
 76.770    715.565    690.936     24.629    517.562    688.662    517.562    519.789    517.562
 76.870    640.000    671.754    -31.754    517.592    669.578    517.592    519.730    517.592
 76.970    652.000    649.291      2.709    517.620    647.207    517.620    519.676    517.620
 77.070    587.888    626.168    -38.280    517.648    624.167    517.648    519.627    517.648
 77.170    575.000    604.425    -29.425    517.675    602.501    517.675    519.583    517.675
 77.270    567.128    585.411    -18.283    517.701    583.559    517.701    519.543    517.701
 77.370    576.000    569.795      6.205    517.726    568.008    517.726    519.506    517.726
 77.470    507.000    557.670    -50.670    517.750    555.943    517.750    519.473    517.750
 77.570    565.000    548.721     16.279    517.773    547.049    517.773    519.442    517.773
 77.670    521.000    542.404    -21.404    517.795    540.783    517.795    519.414    517.795
 77.770    501.000    538.106    -37.106    517.816    536.533    517.816    519.388    517.816
 77.870    522.000    535.259    -13.259    517.837    533.730    517.837    519.364    517.837
 77.970    501.000    533.400    -32.400    517.856    531.912    517.856    519.342    517.856
 78.070    544.184    532.180     12.004    517.874    530.732    517.874    519.322    517.874
 78.170    565.000    531.347     33.653    517.892    529.935    517.892    519.303    517.892
 78.270    530.000    530.767     -0.767    517.908    529.389    517.908    519.286    517.908
 78.370    531.000    530.382      0.618    517.924    529.035    517.924    519.269    517.924
 78.470    541.021    530.121     10.900    517.938    528.804    517.938    519.254    517.938
 78.570    503.672    529.962    -26.290    517.952    528.673    517.952    519.240    517.952
 78.670    498.000    529.900    -31.900    517.964    528.636    517.964    519.227    517.964
 78.770    545.103    529.945     15.158    517.976    528.704    517.976    519.216    517.976
 78.870    508.000    530.114    -22.114    517.986    528.894    517.986    519.205    517.986
 78.970    576.040    530.433     45.607    517.996    529.231    517.996    519.196    517.996
 79.070    506.316    530.932    -24.617    518.004    529.746    518.004    519.190    518.004
 79.170    540.000    531.644      8.356    518.012    530.469    518.012    519.185    518.012
 79.270    528.000    532.600     -4.600    518.018    531.432    518.018    519.184    518.018
 79.370    512.000    533.826    -21.826    518.024    532.661    518.024    519.186    518.024
 79.470    561.694    535.349     26.345    518.028    534.180    518.028    519.194    518.028
 79.570    539.510    537.199      2.310    518.032    536.019    518.032    519.208    518.032
 79.670    511.000    539.422    -28.422    518.034    538.223    518.034    519.228    518.034
 79.770    547.000    542.098      4.902    518.036    540.872    518.036    519.257    518.036
 79.870    541.000    545.362     -4.362    518.036    544.099    518.036    519.293    518.036
 79.970    531.824    549.433    -17.609    518.035    548.126    518.035    519.337    518.035
 80.070    523.899    554.640    -30.740    518.034    553.281    518.034    519.388    518.034
 80.170    555.000    561.419     -6.419    518.031    560.004    518.031    519.443    518.031
 80.270    555.000    570.270    -15.270    518.027    568.796    518.027    519.500    518.027
 80.370    541.000    581.650    -40.650    518.022    580.120    518.022    519.554    518.022
 80.470    561.468    595.860    -34.392    518.016    594.283    518.016    519.599    518.016
 80.570    619.277    612.928      6.349    518.009    611.319    518.009    519.628    518.009
 80.670    621.000    632.522    -11.522    518.001    630.903    518.001    519.635    518.001
 80.770    680.752    653.909     26.843    517.992    652.304    517.992    519.617    517.992
 80.870    646.000    675.972    -29.972    517.982    674.408    517.982    519.573    517.982
 80.970    671.000    697.336    -26.336    517.971    695.833    517.971    519.507    517.971
 81.070    729.315    716.563     12.752    517.959    715.137    517.959    519.425    517.959
 81.170    699.000    732.351    -33.351    517.945    731.010    517.945    519.334    517.945
 81.270    698.000    743.651    -45.651    517.931    742.397    517.931    519.239    517.931
 81.370    747.000    749.750     -2.750    517.915    748.579    517.915    519.146    517.915
 81.470    705.970    750.352    -44.383    517.899    749.259    517.899    519.056    517.899
 81.570    714.000    745.596    -31.596    517.881    744.571    517.881    518.973    517.881
 81.670    765.000    735.997     29.003    517.862    735.031    517.862    518.897    517.862
 81.770    785.000    722.416     62.584    517.842    721.499    517.842    518.829    517.842
 81.870    734.000    706.027     27.973    517.821    705.149    517.821    518.768    517.821
 81.970    720.771    688.150     32.622    517.799    687.302    517.799    518.713    517.799
 82.070    705.000    669.976     35.024    517.776    669.151    517.776    518.664    517.776
 82.170    673.000    652.353     20.647    517.752    651.546    517.752    518.618    517.752
 82.270    612.178    635.741    -23.563    517.726    634.946    517.726    518.576    517.726
 82.370    639.000    620.319     18.681    517.700    619.533    517.700    518.537    517.700
 82.470    616.000    606.165      9.835    517.672    605.384    517.672    518.498    517.672
 82.570    582.000    593.386    -11.386    517.643    592.608    517.643    518.461    517.643
 82.670    556.034    582.138    -26.104    517.613    581.360    517.613    518.424    517.613
 82.770    531.657    572.597    -40.939    517.582    571.819    517.582    518.387    517.582
 82.870    543.000    564.918    -21.918    517.550    564.138    517.550    518.350    517.550
 82.970    551.033    559.218     -8.184    517.517    558.435    517.517    518.312    517.517
 83.070    542.000    555.561    -13.561    517.483    554.774    517.483    518.274    517.483
 83.170    553.908    553.943     -0.034    517.447    553.152    517.447    518.235    517.447
 83.270    578.000    554.269     23.731    517.411    553.474    517.411    518.196    517.411
 83.370    588.000    556.335     31.665    517.373    555.535    517.373    518.156    517.373
 83.470    569.388    559.815      9.573    517.334    559.010    517.334    518.115    517.334
 83.570    521.434    564.262    -42.828    517.294    563.452    517.294    518.073    517.294
 83.670    573.000    569.121      3.879    517.253    568.306    517.253    518.031    517.253
 83.770    575.000    573.754      1.246    517.211    572.935    517.211    517.988    517.211
 83.870    573.855    577.493     -3.637    517.167    576.672    517.167    517.944    517.167
 83.970    567.000    579.725    -12.725    517.123    578.903    517.123    517.899    517.123
 84.070    585.000    580.022      4.978    517.077    579.201    517.077    517.854    517.077
 84.170    570.608    578.255     -7.647    517.030    577.436    517.030    517.807    517.030
 84.270    605.613    574.626     30.987    516.982    573.810    516.982    517.760    516.982
 84.370    546.600    569.587    -22.987    516.933    568.775    516.933    517.712    516.933
 84.470    623.000    563.698     59.302    516.883    562.890    516.883    517.663    516.883
 84.570    541.514    557.509    -15.996    516.831    556.705    516.831    517.613    516.831
 84.670    574.000    551.489     22.511    516.779    550.687    516.779    517.562    516.779
 84.770    526.000    545.988    -19.988    516.725    545.189    516.725    517.511    516.725
 84.870    521.195    541.233    -20.038    516.670    540.434    516.670    517.458    516.670
 84.970    558.000    537.325     20.675    516.614    536.525    516.614    517.405    516.614
 85.070    521.000    534.267    -13.267    516.557    533.467    516.557    517.351    516.557
 85.170    536.000    531.993      4.007    516.499    531.191    516.499    517.296    516.499
 85.270    508.000    530.396    -22.396    516.439    529.591    516.439    517.240    516.439
 85.370    498.000    529.357    -31.357    516.379    528.548    516.379    517.183    516.379
 85.470    540.484    528.771     11.713    516.317    527.958    516.317    517.126    516.317
 85.570    544.000    528.558     15.442    516.254    527.741    516.254    517.067    516.254
 85.670    563.780    528.675     35.105    516.190    527.853    516.190    517.008    516.190
 85.770    546.000    529.119     16.881    516.125    528.291    516.125    516.948    516.125
 85.870    514.000    529.930    -15.930    516.058    529.095    516.058    516.887    516.058
 85.970    513.000    531.193    -18.193    515.991    530.350    515.991    516.825    515.991
 86.070    558.000    533.033     24.967    515.922    532.182    515.922    516.762    515.922
 86.170    525.000    535.616    -10.616    515.852    534.754    515.852    516.699    515.852
 86.270    556.000    539.130     16.870    515.781    538.257    515.781    516.635    515.781
 86.370    496.906    543.771    -46.865    515.709    542.885    515.709    516.570    515.709
 86.470    537.000    549.710    -12.710    515.636    548.809    515.636    516.504    515.636
 86.570    572.000    557.059     14.941    515.562    556.142    515.562    516.438    515.562
 86.670    580.000    565.826     14.174    515.486    564.890    515.486    516.370    515.486
 86.770    568.309    575.864     -7.555    515.409    574.908    515.409    516.302    515.409
 86.870    538.000    586.876    -48.876    515.332    585.898    515.332    516.234    515.332
 86.970    606.000    598.360      7.640    515.253    597.360    515.253    516.164    515.253
 87.070    654.000    609.610     44.390    515.172    608.590    515.172    516.094    515.172
 87.170    628.000    619.772      8.228    515.091    618.732    515.091    516.024    515.091
 87.270    606.731    627.910    -21.179    515.009    626.854    515.009    515.953    515.009
 87.370    652.148    633.158     18.990    514.925    632.088    514.925    515.881    514.925
 87.470    648.000    634.914     13.086    514.841    633.834    514.841    515.808    514.841
 87.570    674.000    633.024     40.976    514.755    631.938    514.755    515.736    514.755
 87.670    661.522    627.826     33.696    514.668    626.737    514.668    515.662    514.668
 87.770    622.000    620.041      1.959    514.580    618.950    514.580    515.588    514.580
 87.870    671.000    610.598     60.402    514.490    609.506    514.490    515.514    514.490
 87.970    628.965    600.478     28.486    514.400    599.384    514.400    515.439    514.400
 88.070    581.000    590.606     -9.606    514.309    589.507    514.309    515.365    514.309
 88.170    593.000    581.779     11.221    514.216    580.675    514.216    515.289    514.216
 88.270    574.000    574.624     -0.624    514.122    573.512    514.122    515.214    514.122
 88.370    554.039    569.573    -15.534    514.027    568.451    514.027    515.138    514.027
 88.470    562.000    566.852     -4.852    513.931    565.719    513.931    515.063    513.931
 88.570    603.000    566.490     36.510    513.834    565.343    513.834    514.987    513.834
 88.670    550.000    568.332    -18.332    513.736    567.170    513.736    514.912    513.736
 88.770    585.000    572.056     12.944    513.637    570.878    513.637    514.836    513.637
 88.870    551.636    577.196    -25.559    513.536    576.000    513.536    514.761    513.536
 88.970    610.000    583.164     26.836    513.435    581.949    513.435    514.686    513.435
 89.070    619.144    589.286     29.858    513.332    588.050    513.332    514.612    513.332
 89.170    547.430    594.832    -47.401    513.228    593.572    513.228    514.538    513.228
 89.270    606.000    599.083      6.917    513.123    597.797    513.123    514.466    513.123
 89.370    615.000    601.426     13.574    513.018    600.111    513.018    514.394    513.018
 89.470    616.000    601.467     14.533    512.910    600.118    512.910    514.322    512.910
 89.570    577.000    599.123    -22.123    512.802    597.737    512.802    514.252    512.802
 89.670    635.425    594.635     40.790    512.693    593.205    512.693    514.184    512.693
 89.770    549.000    588.474    -39.474    512.583    586.997    512.583    514.118    512.583
 89.870    577.000    581.228     -4.228    512.471    579.697    512.471    514.053    512.471
 89.970    541.895    573.484    -31.589    512.359    571.896    512.359    513.992    512.359
 90.070    525.000    565.766    -40.766    512.245    564.116    512.245    513.933    512.245
 90.170    558.000    558.493     -0.493    512.131    556.777    512.131    513.878    512.131
 90.270    519.000    551.965    -32.965    512.015    550.179    512.015    513.826    512.015
 90.370    527.000    546.364    -19.364    511.898    544.502    511.898    513.779    511.898
 90.470    519.000    541.761    -22.761    511.780    539.819    511.780    513.738    511.780
 90.570    529.000    538.142     -9.142    511.661    536.112    511.661    513.703    511.661
 90.670    526.000    535.429     -9.429    511.541    533.302    511.541    513.676    511.541
 90.770    529.802    533.510     -3.708    511.421    531.276    511.421    513.659    511.421
 90.870    561.000    532.265     28.735    511.298    529.911    511.298    513.655    511.298
 90.970    541.000    531.578      9.422    511.175    529.086    511.175    513.669    511.175
 91.070    568.096    531.329     36.767    511.051    528.676    511.051    513.704    511.051
 91.170    500.000    531.533    -31.533    510.926    528.688    510.926    513.770    510.926
 91.270    511.000    532.169    -21.169    510.800    529.093    510.800    513.874    510.800
 91.370    484.000    533.257    -49.257    510.673    529.896    510.673    514.031    510.673
 91.470    550.000    534.876     15.124    510.545    531.161    510.545    514.256    510.545
 91.570    553.000    537.161     15.839    510.415    533.001    510.415    514.570    510.415
 91.670    517.000    540.281    -23.281    510.285    535.563    510.285    514.995    510.285
 91.770    525.000    544.451    -19.451    510.154    539.034    510.154    515.562    510.154
 91.870    554.000    549.915      4.085    510.022    543.624    510.022    516.300    510.022
 91.970    552.000    556.929     -4.929    509.888    549.559    509.888    517.242    509.888
 92.070    600.283    565.743     34.540    509.754    557.056    509.754    518.421    509.754
 92.170    607.654    576.571     31.083    509.619    566.297    509.619    519.867    509.619
 92.270    568.000    589.558    -21.558    509.483    577.406    509.483    521.603    509.483
 92.370    639.024    604.753     34.272    509.346    590.418    509.346    523.641    509.346
 92.470    627.000    622.076      4.924    509.208    605.256    509.208    525.982    509.208
 92.570    620.809    641.298    -20.490    509.069    621.709    509.069    528.605    509.069
 92.670    644.000    662.025    -18.025    508.929    639.423    508.929    531.470    508.929
 92.770    636.000    683.688    -47.688    508.788    657.897    508.788    534.512    508.788
 92.870    739.000    705.576     33.424    508.646    676.514    508.646    537.636    508.646
 92.970    812.000    726.880     85.120    508.503    694.588    508.503    540.718    508.503
 93.070    824.000    746.778     77.222    508.359    711.458    508.359    543.600    508.359
 93.170    781.235    764.591     16.644    508.214    726.625    508.214    546.100    508.214
 93.270    798.000    779.885     18.115    508.069    739.853    508.069    548.022    508.069
 93.370    844.617    792.528     52.089    507.922    751.188    507.922    549.184    507.922
 93.470    773.000    802.646    -29.646    507.775    760.887    507.775    549.458    507.775
 93.570    795.758    810.553    -14.795    507.626    769.303    507.626    548.802    507.626
 93.670    815.749    816.687     -0.938    507.477    776.822    507.477    547.272    507.477
 93.770    786.000    821.597    -35.597    507.327    783.850    507.327    545.005    507.327
 93.870    785.589    825.938    -40.350    507.176    790.861    507.176    542.188    507.176
 93.970    814.673    830.454    -15.781    507.024    798.400    507.024    539.015    507.024
 94.070    853.000    835.866     17.134    506.872    807.008    506.872    535.669    506.872
 94.170    809.224    842.702    -33.478    506.718    817.063    506.718    532.298    506.718
 94.270    866.686    851.127     15.559    506.564    828.607    506.564    529.027    506.564
 94.370    916.293    860.818     55.475    506.409    841.228    506.409    525.945    506.409
 94.470    856.000    870.948    -14.948    506.253    854.036    506.253    523.113    506.253
 94.570    878.000    880.245     -2.245    506.096    865.726    506.096    520.570    506.096
 94.670    933.303    887.143     46.160    505.938    874.711    505.938    518.330    505.938
 94.770    907.000    890.001     16.999    505.779    879.355    505.779    516.394    505.779
 94.870    951.655    887.421     64.233    505.620    878.272    505.620    514.746    505.620
 94.970    860.455    878.569    -18.114    505.460    870.652    505.460    513.362    505.460
 95.070    897.431    863.401     34.031    505.299    856.481    505.299    512.213    505.299
 95.170    861.000    842.687     18.313    505.138    836.561    505.138    511.265    505.138
 95.270    845.000    817.831     27.169    504.975    812.328    504.975    510.485    504.975
 95.370    820.316    790.606     29.710    504.812    785.584    504.812    509.844    504.812
 95.470    782.000    762.973     19.027    504.648    758.319    504.648    509.314    504.648
 95.570    831.000    736.836     94.164    504.483    732.460    504.483    508.872    504.483
 95.670    695.309    713.980    -18.671    504.318    709.810    504.318    508.498    504.318
 95.770    666.000    696.013    -30.013    504.152    691.995    504.152    508.177    504.152
 95.870    620.000    684.336    -64.336    503.985    680.426    503.985    507.897    503.985
 95.970    687.000    680.142      6.858    503.818    676.305    503.818    507.648    503.818
 96.070    696.527    684.421     12.106    503.649    680.632    503.649    507.425    503.649
 96.170    675.000    697.969    -22.969    503.480    694.204    503.480    507.221    503.480
 96.270    736.000    721.374     14.626    503.311    717.616    503.311    507.035    503.311
 96.370    768.000    754.983     13.017    503.141    751.217    503.141    506.863    503.141
 96.470    760.732    798.816    -38.084    502.970    795.026    502.970    506.703    502.970
 96.570    859.000    852.473      6.527    502.798    848.648    502.798    506.556    502.798
 96.670    924.000    915.034      8.966    502.626    911.163    502.626    506.419    502.626
 96.770    982.000    984.958     -2.958    502.453    981.031    502.453    506.293    502.453
 96.870   1040.000   1060.026    -20.026    502.280   1056.033    502.280    506.178    502.280
 96.970   1131.000   1137.316     -6.316    502.106   1133.250    502.106    506.073    502.106
 97.070   1182.000   1213.249    -31.249    501.931   1209.102    501.931    505.979    501.931
 97.170   1254.000   1283.709    -29.709    501.756   1279.474    501.756    505.897    501.756
 97.270   1324.000   1344.287    -20.287    501.580   1339.956    501.580    505.826    501.580
 97.370   1359.000   1390.704    -31.704    501.404   1386.269    501.404    505.768    501.404
 97.470   1352.874   1419.406    -66.533    501.227   1414.858    501.227    505.723    501.227
 97.570   1406.000   1428.213    -22.213    501.050   1423.538    501.050    505.692    501.050
 97.670   1452.000   1416.755     35.245    500.872   1411.939    500.872    505.678    500.872
 97.770   1418.171   1386.498     31.673    500.693   1381.519    500.693    505.682    500.693
 97.870   1332.000   1340.350     -8.350    500.514   1335.186    500.514    505.707    500.514
 97.970   1322.000   1282.094     39.906    500.335   1276.716    500.335    505.755    500.335
 98.070   1271.318   1215.856     55.463    500.155   1210.230    500.155    505.833    500.155
 98.170   1139.000   1145.729     -6.729    499.975   1139.816    499.975    505.945    499.975
 98.270   1132.841   1075.528     57.312    499.794   1069.282    499.794    506.100    499.794
 98.370   1034.000   1008.644     25.356    499.612   1002.005    499.612    506.310    499.612
 98.470    930.253    947.961    -17.708    499.431    940.856    499.431    506.589    499.431
 98.570    907.000    895.840     11.160    499.248    888.176    499.248    506.957    499.248
 98.670    814.673    854.141    -39.468    499.066    845.801    499.066    507.442    499.066
 98.770    833.573    824.276      9.298    498.883    815.110    498.883    508.075    498.883
 98.870    775.588    807.284    -31.696    498.700    797.101    498.700    508.899    498.700
 98.970    843.335    803.900     39.435    498.516    792.456    498.516    509.967    498.516
 99.070    781.000    814.664    -33.664    498.332    801.653    498.332    511.340    498.332
 99.170    842.000    839.897      2.103    498.147    824.941    498.147    513.093    498.147
 99.270    879.000    879.718     -0.718    497.962    862.356    497.962    515.307    497.962
 99.370    925.140    934.004     -8.865    497.777    913.685    497.777    518.074    497.777
 99.470   1004.000   1002.319      1.681    497.592    978.397    497.592    521.489    497.592
 99.570   1034.000   1083.809    -49.809    497.406   1055.543    497.406    525.647    497.406
 99.670   1177.000   1177.105     -0.105    497.220   1143.667    497.220    530.637    497.220
 99.770   1290.973   1280.228     10.745    497.034   1240.717    497.034    536.531    497.034
 99.870   1369.000   1390.522    -21.522    496.847   1343.986    496.847    543.379    496.847
 99.970   1530.000   1504.640     25.360    496.661   1450.112    496.661    551.200    496.661
100.070   1665.000   1618.612     46.388    496.474   1555.149    496.474    559.968    496.474
100.170   1763.419   1728.041     35.378    496.287   1654.773    496.287    569.607    496.287
100.270   1883.000   1828.428     54.572    496.099   1744.620    496.099    579.985    496.099
100.370   1985.831   1915.584     70.247    495.912   1820.698    495.912    590.901    495.912
100.470   2070.866   1985.971     84.895    495.724   1879.738    495.724    602.087    495.724
100.570   2125.111   2036.871     88.240    495.536   1919.362    495.536    613.199    495.536
100.670   2086.000   2066.369     19.631    495.348   1938.074    495.348    623.818    495.348
100.770   2142.000   2073.312     68.688    495.160   1935.204    495.160    633.460    495.160
100.870   2080.000   2057.403     22.597    494.971   1910.982    494.971    641.598    494.971
100.970   1932.507   2019.451    -86.944    494.783   1866.742    494.783    647.705    494.783
101.070   1854.000   1961.629   -107.629    494.595   1805.108    494.595    651.330    494.595
101.170   1887.000   1887.483     -0.483    494.406   1729.930    494.406    652.172    494.406
101.270   1796.000   1801.631     -5.631    494.218   1645.907    494.218    650.146    494.218
101.370   1656.433   1709.199    -52.766    494.029   1558.019    494.029    645.402    494.029
101.470   1577.873   1615.240    -37.366    493.840   1470.965    493.840    638.294    493.840
101.570   1535.027   1524.242     10.785    493.652   1388.754    493.652    629.302    493.652
101.670   1438.540   1439.817     -1.276    493.463   1314.465    493.463    618.961    493.463
101.770   1405.337   1364.531     40.807    493.275   1250.146    493.275    607.790    493.275
101.870   1361.206   1299.859     61.347    493.086   1196.806    493.086    596.255    493.086
101.970   1218.000   1246.215    -28.215    492.898   1154.461    492.898    584.755    492.898
102.070   1132.000   1203.044    -71.044    492.709   1122.236    492.709    573.610    492.709
102.170   1109.000   1168.962    -59.962    492.521   1098.498    492.521    563.071    492.521
102.270   1087.000   1141.936    -54.936    492.333   1081.034    492.333    553.315    492.333
102.370   1143.000   1119.512     23.488    492.145   1067.276    492.145    544.459    492.145
102.470   1031.239   1099.092    -67.852    491.957   1054.563    491.957    536.563    491.957
102.570   1044.000   1078.245    -34.245    491.769   1040.454    491.769    529.639    491.769
102.670   1129.000   1055.025     73.975    491.581   1023.029    491.581    523.659    491.581
102.770   1050.000   1028.199     21.801    491.394   1001.112    491.394    518.564    491.394
102.870   1027.000    997.328     29.672    491.207    974.341    491.207    514.276    491.207
102.970    936.000    962.678    -26.678    491.020    943.075    491.020    510.705    491.020
103.070    984.000    925.028     58.972    490.833    908.186    490.833    507.755    490.833
103.170    914.697    885.449     29.248    490.647    870.841    490.647    505.330    490.647
103.270    856.441    845.119     11.321    490.461    832.307    490.461    503.344    490.461
103.370    837.175    805.192     31.983    490.275    793.818    490.275    501.714    490.275
103.470    755.000    766.707    -11.707    490.089    756.484    490.089    500.371    490.089
103.570    708.521    730.534    -22.013    489.904    721.234    489.904    499.256    489.904
103.670    707.000    697.338      9.662    489.719    688.784    489.719    498.319    489.719
103.770    685.983    667.564     18.419    489.535    659.616    489.535    497.521    489.535
103.870    689.918    641.442     48.476    489.351    633.995    489.351    496.830    489.351
103.970    634.000    619.010     14.990    489.167    611.980    489.167    496.224    489.167
104.070    640.042    600.132     39.910    488.984    593.455    488.984    495.682    488.984
104.170    535.872    584.568    -48.697    488.801    578.195    488.801    495.192    488.801
104.270    564.000    571.983     -7.983    488.619    565.872    488.619    494.742    488.619
104.370    560.000    561.998     -1.998    488.437    556.120    488.437    494.326    488.437
104.470    556.000    554.233      1.767    488.256    548.559    488.256    493.937    488.256
104.570    553.064    548.322      4.742    488.076    542.830    488.076    493.571    488.076
104.670    552.658    543.938      8.720    487.895    538.610    487.895    493.226    487.895
104.770    518.153    540.802    -22.649    487.716    535.620    487.716    492.898    487.716
104.870    513.996    538.690    -24.694    487.537    533.640    487.537    492.586    487.537
104.970    572.000    537.434     34.566    487.358    532.502    487.358    492.288    487.358
105.070    566.000    536.917     29.083    487.181    532.092    487.181    492.002    487.181
105.170    564.795    537.075     27.721    487.003    532.344    487.003    491.729    487.003
105.270    528.559    537.885     -9.326    486.827    533.239    486.827    491.467    486.827
105.370    574.000    539.367     34.633    486.651    534.796    486.651    491.215    486.651
105.470    546.139    541.576      4.563    486.476    537.071    486.476    490.972    486.476
105.570    506.155    544.592    -38.437    486.302    540.144    486.302    490.739    486.302
105.670    546.000    548.512     -2.512    486.128    544.113    486.128    490.514    486.128
105.770    549.040    553.439     -4.398    485.956    549.081    485.956    490.297    485.956
105.870    576.039    559.466     16.572    485.784    555.143    485.784    490.088    485.784
105.970    583.000    566.664     16.336    485.613    562.369    485.613    489.887    485.613
106.070    559.308    575.064    -15.756    485.442    570.789    485.442    489.692    485.442
106.170    577.000    584.644     -7.644    485.273    580.384    485.273    489.505    485.273
106.270    617.000    595.323     21.677    485.104    591.072    485.104    489.324    485.104
106.370    583.000    606.953    -23.953    484.937    602.705    484.937    489.150    484.937
106.470    625.000    619.313      5.687    484.770    615.063    484.770    488.982    484.770
106.570    607.000    632.117    -25.117    484.604    627.861    484.604    488.821    484.604
106.670    620.000    645.014    -25.014    484.440    640.751    484.440    488.660    484.440
106.770    695.831    657.616     38.215    484.276    653.337    484.276    488.511    484.276
106.870    621.297    669.493    -48.196    484.113    665.194    484.113    488.368    484.113
106.970    692.490    680.213     12.277    483.951    675.889    483.951    488.231    483.951
107.070    682.761    689.380     -6.620    483.791    685.027    483.791    488.101    483.791
107.170    674.153    696.683    -22.530    483.631    692.297    483.631    487.976    483.631
107.270    686.000    701.945    -15.945    483.473    697.521    483.473    487.858    483.473
107.370    668.000    705.165    -37.165    483.315    700.699    483.315    487.746    483.315
107.470    674.000    706.524    -32.524    483.159    702.012    483.159    487.640    483.159
107.570    695.000    706.360    -11.360    483.004    701.797    483.004    487.540    483.004
107.670    703.000    705.101     -2.101    482.851    700.491    482.851    487.438    482.851
107.770    669.834    703.233    -33.399    482.698    698.562    482.698    487.351    482.698
107.870    683.000    701.192    -18.192    482.547    696.452    482.547    487.272    482.547
107.970    683.000    699.346    -16.346    482.397    694.532    482.397    487.200    482.397
108.070    647.000    697.962    -50.962    482.248    693.068    482.248    487.136    482.248
108.170    663.000    697.186    -34.186    482.101    692.205    482.101    487.079    482.101
108.270    671.000    697.034    -26.034    481.955    691.960    481.955    487.030    481.955
108.370    718.095    697.393     20.702    481.811    692.219    481.811    486.989    481.811
108.470    712.000    698.030     13.970    481.668    692.748    481.668    486.957    481.668
108.570    669.000    698.611    -29.611    481.526    693.214    481.526    486.934    481.526
108.670    746.000    698.735     47.265    481.386    693.214    481.386    486.919    481.386
108.770    670.632    697.977    -27.346    481.247    692.326    481.247    486.915    481.247
108.870    659.000    695.949    -36.949    481.110    690.157    481.110    486.920    481.110
108.970    667.000    692.351    -25.351    480.974    686.409    480.974    486.937    480.974
109.070    696.755    687.026      9.729    480.840    680.923    480.840    486.964    480.840
109.170    720.000    679.972     40.028    480.707    673.699    480.707    487.003    480.707
109.270    687.075    671.338     15.737    480.576    664.883    480.576    487.055    480.576
109.370    698.000    661.387     36.613    480.447    654.737    480.447    487.120    480.447
109.470    673.000    650.450     22.550    480.319    643.592    480.319    487.200    480.319
109.570    655.000    638.867     16.133    480.193    631.788    480.193    487.294    480.193
109.670    645.000    627.032     17.968    480.069    619.717    480.069    487.404    480.069
109.770    590.000    615.302    -25.302    479.947    607.734    479.947    487.532    479.947
109.870    640.000    603.961     36.039    479.826    596.125    479.826    487.679    479.826
109.970    607.000    593.265     13.735    479.707    585.141    479.707    487.845    479.707
110.070    566.000    583.418    -17.418    479.590    574.986    479.590    488.035    479.590
110.170    598.000    574.569     23.431    479.475    565.806    479.475    488.248    479.475
110.270    530.197    566.814    -36.617    479.362    557.693    479.362    488.490    479.362
110.370    573.253    560.196     13.058    479.250    550.690    479.250    488.762    479.250
110.470    565.000    554.716     10.284    479.141    544.792    479.141    489.069    479.141
110.570    531.230    550.340    -19.110    479.033    539.958    479.033    489.417    479.033
110.670    506.000    547.004    -41.004    478.928    536.120    478.928    489.812    478.928
110.770    563.000    544.627     18.373    478.824    533.187    478.824    490.264    478.824
110.870    561.660    543.121     18.539    478.723    531.059    478.723    490.782    478.723
110.970    544.108    542.393      1.716    478.624    529.632    478.624    491.382    478.624
111.070    592.000    542.356     49.644    478.527    528.800    478.527    492.078    478.527
111.170    588.000    542.934     45.066    478.432    528.466    478.432    492.894    478.432
111.270    530.941    544.062    -13.122    478.339    528.540    478.339    493.855    478.339
111.370    546.000    545.694      0.306    478.248    528.942    478.248    494.994    478.248
111.470    537.000    547.799    -10.799    478.160    529.603    478.160    496.349    478.160
111.570    563.000    550.365     12.635    478.074    530.465    478.074    497.966    478.074
111.670    570.000    553.401     16.599    477.990    531.481    477.990    499.901    477.990
111.770    601.842    556.935     44.908    477.908    532.617    477.908    502.217    477.908
111.870    566.000    561.013      4.987    477.829    533.846    477.829    504.986    477.829
111.970    553.000    565.704    -12.704    477.753    535.156    477.753    508.291    477.753
112.070    558.381    571.095    -12.713    477.678    536.542    477.678    512.221    477.678
112.170    593.005    577.289     15.717    477.606    538.011    477.606    516.873    477.606
112.270    632.339    584.404     47.935    477.537    539.578    477.537    522.351    477.537
112.370    644.217    592.568     51.649    477.470    541.268    477.470    528.758    477.470
112.470    597.000    601.917     -4.917    477.406    543.111    477.406    536.199    477.406
112.570    607.000    612.589     -5.589    477.344    545.147    477.344    544.772    477.344
112.670    604.000    624.719    -20.719    477.285    547.425    477.285    554.564    477.285
112.770    678.929    638.442     40.487    477.228    550.006    477.228    565.648    477.228
112.870    649.000    653.885     -4.885    477.174    552.969    477.174    578.073    477.174
112.970    715.000    671.172     43.828    477.123    556.416    477.123    591.860    477.123
113.070    691.000    690.421      0.579    477.075    560.480    477.075    606.996    477.075
113.170    672.449    711.753    -39.304    477.029    565.335    477.029    623.425    477.029
113.270    692.219    735.298    -43.079    476.986    571.213    476.986    641.047    476.986
113.370    803.000    761.211     41.789    476.946    578.418    476.946    659.713    476.946
113.470    844.590    789.681     54.909    476.909    587.345    476.909    679.215    476.909
113.570    808.000    820.957    -12.957    476.875    598.508    476.875    699.289    476.875
113.670    897.985    855.371     42.614    476.844    612.563    476.844    719.612    476.844
113.770    866.000    893.361    -27.361    476.816    630.336    476.816    739.795    476.816
113.870    926.010    935.507     -9.497    476.790    652.851    476.790    759.392    476.790
113.970    985.000    982.556      2.444    476.768    681.362    476.768    777.898    476.768
114.070   1049.000   1035.461     13.539    476.749    717.371    476.749    794.764    476.749
114.170   1068.000   1095.416    -27.416    476.733    762.641    476.733    809.419    476.733
114.270   1201.000   1163.891     37.109    476.720    819.207    476.720    821.299    476.720
114.370   1279.000   1242.665     36.335    476.710    889.350    476.710    829.898    476.710
114.470   1342.000   1333.842      8.158    476.703    975.575    476.703    834.820    476.703
114.570   1436.781   1439.840     -3.060    476.700   1080.539    476.700    835.824    476.700
114.670   1525.398   1563.337    -37.939    476.700   1206.969    476.700    832.858    476.700
114.770   1627.716   1707.155    -79.440    476.703   1357.542    476.703    826.069    476.703
114.870   2044.000   1874.097    169.903    476.710   1534.738    476.710    815.781    476.710
114.970   2103.000   2066.727     36.273    476.720   1740.662    476.720    802.451    476.720
115.070   2220.778   2287.127    -66.349    476.733   1976.858    476.733    786.621    476.733
115.170   2468.000   2536.646    -68.646    476.750   2244.103    476.750    768.862    476.750
115.270   2758.601   2815.660    -57.059    476.770   2542.210    476.770    749.739    476.770
115.370   3187.000   3123.361     63.639    476.794   2869.842    476.794    729.781    476.794
115.470   3562.594   3457.591    105.003    476.821   3224.368    476.821    709.467    476.821
115.570   3743.000   3814.729    -71.729    476.852   3601.750    476.852    689.213    476.852
115.670   4192.000   4189.639      2.361    476.887   3996.498    476.887    669.377    476.887
115.770   4443.510   4575.684   -132.175    476.925   4401.682    476.925    650.252    476.925
115.870   4645.000   4964.812   -319.812    476.968   4809.019    476.968    632.073    476.968
115.970   5249.000   5347.716    -98.716    477.013   5209.024    477.013    615.020    477.013
116.070   5478.000   5714.070   -236.070    477.063   5591.249    477.063    599.217    477.063
116.170   6020.285   6052.859    -32.573    477.116   5944.602    477.116    584.741    477.116
116.270   6399.000   6352.813     46.187    477.174   6257.781    477.174    571.627    477.174
116.370   6615.000   6602.976     12.024    477.235   6519.832    477.235    559.869    477.235
116.470   6886.000   6793.400     92.600    477.300   6720.844    477.300    549.433    477.300
116.570   6973.000   6915.942     57.058    477.369   6852.729    477.369    540.256    477.369
116.670   7128.000   6965.049    162.951    477.442   6910.014    477.442    532.259    477.442
116.770   7052.000   6938.401    113.599    477.519   6890.466    477.519    525.348    477.519
116.870   6790.981   6837.078    -46.097    477.600   6795.262    477.600    519.421    477.600
116.970   6818.000   6665.484    152.516    477.686   6628.906    477.686    514.373    477.686
117.070   6409.000   6430.813    -21.813    477.775   6398.691    477.775    510.102    477.775
117.170   6257.225   6142.306    114.919    477.869   6113.956    477.869    506.505    477.869
117.270   5581.000   5810.454   -229.454    477.967   5785.282    477.967    503.491    477.967
117.370   5590.538   5446.271    144.267    478.069   5423.770    478.069    500.972    478.069
117.470   5094.000   5060.705     33.295    478.176   5040.444    478.176    498.871    478.176
117.570   4554.572   4664.168   -109.596    478.287   4645.786    478.287    497.121    478.287
117.670   4372.000   4266.195    105.805    478.402   4249.391    478.402    495.662    478.402
117.770   3805.479   3875.189    -69.710    478.522   3859.714    478.522    494.444    478.522
117.870   3688.000   3498.253    189.747    478.647   3483.903    478.647    493.425    478.647
117.970   3322.000   3141.098    180.902    478.776   3127.707    478.776    492.568    478.776
118.070   2860.710   2808.029     52.682    478.909   2795.460    478.909    491.846    478.909
118.170   2402.887   2501.985    -99.097    479.047   2490.128    479.047    491.234    479.047
118.270   2281.087   2224.647     56.440    479.190   2213.415    479.190    490.713    479.190
118.370   1930.190   1976.582    -46.392    479.337   1965.902    479.337    490.269    479.337
118.470   1759.327   1757.408      1.919    479.489   1747.222    479.489    489.888    479.489
118.570   1556.000   1565.977     -9.977    479.646   1556.238    479.646    489.563    479.646
118.670   1456.000   1400.563     55.437    479.808   1391.231    479.808    489.284    479.808
118.770   1286.676   1259.034     27.643    479.975   1250.077    479.975    489.046    479.975
118.870   1117.000   1139.020    -22.020    480.146   1130.411    480.146    488.845    480.146
118.970   1012.000   1038.056    -26.056    480.323   1029.771    480.323    488.677    480.323
119.070    993.431    953.698     39.733    480.504    945.715    480.504    488.538    480.504
119.170    943.000    883.613     59.387    480.691    875.913    480.691    488.427    480.691
119.270    807.000    825.646    -18.646    480.882    818.213    480.882    488.342    480.882
119.370    767.247    777.859    -10.612    481.079    770.675    481.079    488.281    481.079
119.470    695.000    738.546    -43.546    481.281    731.595    481.281    488.244    481.281
119.570    701.000    706.239     -5.239    481.488    699.506    481.488    488.229    481.488
119.670    721.000    679.694     41.306    481.700    673.164    481.700    488.236    481.700
119.770    665.000    657.877      7.123    481.918    651.534    481.918    488.265    481.918
119.870    623.000    639.937    -16.937    482.141    633.765    482.141    488.315    482.141
119.970    625.432    625.181      0.251    482.369    619.166    482.369    488.386    482.369
120.070    642.000    613.055     28.945    482.603    607.181    482.603    488.479    482.603
120.170    630.615    603.116     27.499    482.842    597.367    482.842    488.594    482.842
120.270    587.000    595.014     -8.014    483.087    589.372    483.087    488.731    483.087
120.370    627.730    588.473     39.257    483.337    582.922    483.337    488.892    483.337
120.470    577.000    583.279     -6.279    483.593    577.800    483.593    489.076    483.593
120.570    558.000    579.262    -21.262    483.855    573.837    483.855    489.284    483.855
120.670    587.000    576.294     10.706    484.122    570.903    484.122    489.517    484.122
120.770    544.219    574.272    -30.053    484.395    568.896    484.395    489.777    484.395
120.870    543.000    573.117    -30.117    484.674    567.734    484.674    490.064    484.674
120.970    548.680    572.765    -24.085    484.959    567.353    484.959    490.378    484.959
121.070    596.000    573.163     22.837    485.249    567.700    485.249    490.720    485.249
121.170    563.000    574.264    -11.264    485.546    568.728    485.546    491.091    485.546
121.270    547.196    576.024    -28.828    485.848    570.391    485.848    491.492    485.848
121.370    599.255    578.397     20.858    486.157    572.645    486.157    491.921    486.157
121.470    570.188    581.335    -11.147    486.472    575.441    486.472    492.379    486.472
121.570    607.600    584.782     22.817    486.792    578.726    486.792    492.865    486.792
121.670    572.934    588.678    -15.745    487.119    582.438    487.119    493.378    487.119
121.770    610.333    592.952     17.381    487.452    586.508    487.452    493.916    487.452
121.870    560.454    597.522    -37.068    487.792    590.859    487.792    494.478    487.792
121.970    617.000    602.300     14.700    488.137    595.403    488.137    495.061    488.137
122.070    603.000    607.188     -4.188    488.489    600.044    488.489    495.661    488.489
122.170    601.000    612.077    -11.077    488.848    604.681    488.848    496.276    488.848
122.270    619.000    616.857      2.143    489.213    609.204    489.213    496.900    489.213
122.370    600.000    621.410    -21.410    489.584    613.501    489.584    497.530    489.584
122.470    615.000    625.619    -10.619    489.962    617.461    489.962    498.160    489.962
122.570    675.779    629.370     46.408    490.347    620.975    490.347    498.783    490.347
122.670    598.088    632.560    -34.472    490.738    623.947    490.738    499.395    490.738
122.770    686.000    635.099     50.901    491.136    626.293    491.136    499.988    491.136
122.870    688.192    636.920     51.272    491.541    627.953    491.541    500.555    491.541
122.970    602.861    637.980    -35.119    491.952    628.889    491.952    501.091    491.952
123.070    635.000    638.266     -3.266    492.371    629.095    492.371    501.589    492.371
123.170    663.456    637.789     25.667    492.796    628.586    492.796    502.047    492.796
123.270    647.000    636.589     10.411    493.228    627.404    493.228    502.460    493.228
123.370    685.492    634.724     50.768    493.668    625.610    493.668    502.827    493.668
123.470    652.781    632.268     20.514    494.114    623.275    494.114    503.150    494.114
123.570    597.117    629.304    -32.187    494.567    620.482    494.567    503.431    494.567
123.670    650.000    625.920     24.080    495.028    617.316    495.028    503.671    495.028
123.770    623.445    622.209      1.236    495.496    613.860    495.496    503.881    495.496
123.870    620.000    618.258      1.742    495.971    610.198    495.971    504.065    495.971
123.970    613.918    614.149     -0.231    496.453    606.404    496.453    504.229    496.453
124.070    626.000    609.955     16.045    496.943    602.547    496.943    504.379    496.943
124.170    588.637    605.743    -17.106    497.440    598.685    497.440    504.523    497.440
124.270    635.000    601.564     33.436    497.945    594.867    497.945    504.665    497.945
124.370    599.000    597.463      1.537    498.457    591.128    498.457    504.810    498.457
124.470    615.000    593.468     21.532    498.977    587.497    498.977    504.965    498.977
124.570    598.195    589.602      8.593    499.504    583.987    499.504    505.133    499.504
124.670    611.468    585.873     25.594    500.040    580.608    500.040    505.317    500.040
124.770    629.534    582.286     47.248    500.583    577.358    500.583    505.521    500.583
124.870    574.037    578.835     -4.798    501.133    574.230    501.133    505.746    501.133
124.970    546.475    575.522    -29.047    501.692    571.224    501.692    505.996    501.692
