neutron_powder_diffraction_0093
R_wp: 4.011
Temperature (K): 854.074
Counts: 83645.00
Wavelength (Ã…): 2.52098
COMMENTS
Test file for demonstrating the .xyy file format in Reel1.0
END OF HEADER
   tth       Y_obs     Y_calc      Y_res    Background    Phase_1_Nuc    Phase_1_Mag    Phase_2_Nuc    Phase_2_Mag
  9.970    608.000    555.703     52.297    554.430    555.509    554.430    554.599    554.455
 10.070    559.000    556.278      2.722    554.915    556.083    554.915    555.084    554.940
 10.170    570.387    556.855     13.532    555.388    556.659    555.388    555.559    555.414
 10.270    601.625    557.438     44.187    555.852    557.241    555.852    556.023    555.877
 10.370    588.000    558.028     29.972    556.305    557.830    556.305    556.476    556.331
 10.470    567.575    558.631      8.943    556.747    558.432    556.747    556.920    556.774
 10.570    588.000    559.252     28.748    557.180    559.052    557.180    557.353    557.206
 10.670    613.000    559.898     53.102    557.603    559.697    557.603    557.777    557.629
 10.770    582.873    560.578     22.296    558.015    560.375    558.015    558.190    558.042
 10.870    555.000    561.304     -6.304    558.418    561.101    558.418    558.593    558.445
 10.970    574.000    562.095     11.905    558.811    561.890    558.811    558.987    558.838
 11.070    529.649    562.974    -33.325    559.194    562.768    559.194    559.370    559.221
 11.170    611.000    563.974     47.026    559.567    563.767    559.567    559.745    559.595
 11.270    521.835    565.150    -43.315    559.931    564.941    559.931    560.109    559.959
 11.370    551.703    566.595    -14.893    560.285    566.385    560.285    560.464    560.314
 11.470    566.158    568.502     -2.344    560.630    568.290    560.630    560.810    560.659
 11.570    609.000    571.310     37.690    560.965    571.095    560.965    561.146    560.995
 11.670    621.000    575.984     45.016    561.292    575.766    561.292    561.473    561.321
 11.770    658.000    584.312     73.688    561.609    584.087    561.609    561.791    561.638
 11.870    661.000    598.771     62.229    561.917    598.537    561.917    562.100    561.947
 11.970    677.000    621.317     55.683    562.215    621.069    562.215    562.399    562.246
 12.070    668.000    650.767     17.233    562.505    650.502    562.505    562.690    562.536
 12.170    646.137    679.163    -33.026    562.786    678.880    562.786    562.972    562.817
 12.270    652.000    691.063    -39.063    563.058    690.772    563.058    563.245    563.090
 12.370    662.000    677.205    -15.205    563.322    676.920    563.322    563.509    563.353
 12.470    618.000    648.405    -30.405    563.577    648.136    563.577    563.764    563.609
 12.570    635.000    619.924     15.076    563.823    619.671    563.823    564.011    563.855
 12.670    585.993    598.839    -12.846    564.060    598.597    564.060    564.250    564.093
 12.770    540.000    585.762    -45.762    564.290    585.526    564.290    564.480    564.323
 12.870    578.000    578.541     -0.541    564.510    578.309    564.510    564.702    564.544
 12.970    563.000    574.724    -11.724    564.723    574.493    564.723    564.915    564.757
 13.070    545.000    572.617    -27.617    564.927    572.386    564.927    565.120    564.961
 13.170    590.000    571.334     18.666    565.123    571.102    565.123    565.317    565.158
 13.270    520.000    570.479    -50.479    565.311    570.246    565.311    565.506    565.346
 13.370    581.000    569.878     11.122    565.491    569.645    565.491    565.687    565.527
 13.470    565.487    569.447     -3.960    565.664    569.213    565.664    565.860    565.699
 13.570    544.000    569.136    -25.136    565.828    568.900    565.828    566.026    565.864
 13.670    571.000    568.910      2.090    565.984    568.674    565.984    566.183    566.021
 13.770    529.000    568.750    -39.750    566.133    568.512    566.133    566.333    566.170
 13.870    587.785    568.636     19.149    566.274    568.397    566.274    566.475    566.312
 13.970    553.223    568.556    -15.334    566.408    568.316    566.408    566.609    566.446
 14.070    563.873    568.503     -4.631    566.534    568.262    566.534    566.736    566.572
 14.170    573.000    568.471      4.529    566.652    568.228    566.652    566.856    566.691
 14.270    553.000    568.457    -15.457    566.763    568.213    566.763    566.968    566.803
 14.370    588.000    568.475     19.525    566.867    568.229    566.867    567.073    566.907
 14.470    545.000    568.481    -23.481    566.964    568.234    566.964    567.171    567.004
 14.570    567.000    568.488     -1.488    567.054    568.239    567.054    567.261    567.094
 14.670    529.000    568.497    -39.497    567.136    568.247    567.136    567.345    567.177
 14.770    539.238    568.509    -29.271    567.211    568.257    567.211    567.421    567.253
 14.870    548.227    568.521    -20.294    567.280    568.268    567.280    567.491    567.322
 14.970    544.000    568.533    -24.533    567.341    568.278    567.341    567.553    567.384
 15.070    575.696    568.544      7.152    567.396    568.287    567.396    567.609    567.439
 15.170    552.805    568.562    -15.757    567.444    568.304    567.444    567.658    567.488
 15.270    547.261    568.665    -21.405    567.485    568.405    567.485    567.701    567.530
 15.370    569.960    568.704      1.256    567.520    568.442    567.520    567.737    567.565
 15.470    571.000    568.708      2.292    567.548    568.444    567.548    567.766    567.594
 15.570    577.000    568.705      8.295    567.569    568.440    567.569    567.789    567.616
 15.670    535.200    568.698    -33.499    567.585    568.431    567.585    567.805    567.632
 15.770    578.000    568.688      9.312    567.593    568.419    567.593    567.815    567.641
 15.870    535.969    568.673    -32.704    567.596    568.402    567.596    567.819    567.644
 15.970    529.000    568.654    -39.654    567.592    568.382    567.592    567.816    567.641
 16.070    624.000    568.631     55.369    567.582    568.356    567.582    567.807    567.632
 16.170    527.000    568.603    -41.603    567.566    568.326    567.566    567.793    567.616
 16.270    604.933    568.570     36.362    567.544    568.292    567.544    567.772    567.595
 16.370    564.000    568.533     -4.533    567.516    568.252    567.516    567.745    567.568
 16.470    541.000    568.491    -27.491    567.482    568.208    567.482    567.712    567.534
 16.570    549.000    568.444    -19.444    567.442    568.160    567.442    567.674    567.495
 16.670    616.171    568.395     47.776    567.396    568.108    567.396    567.630    567.450
 16.770    539.000    568.344    -29.344    567.345    568.055    567.345    567.580    567.400
 16.870    605.496    568.283     37.213    567.288    567.992    567.288    567.524    567.343
 16.970    550.933    568.218    -17.284    567.225    567.924    567.225    567.463    567.281
 17.070    569.000    568.147      0.853    567.157    567.851    567.157    567.396    567.214
 17.170    590.920    568.074     22.847    567.083    567.775    567.083    567.324    567.141
 17.270    554.000    567.997    -13.997    567.004    567.696    567.004    567.246    567.063
 17.370    569.000    567.912      1.088    566.919    567.609    566.919    567.163    566.979
 17.470    549.000    567.823    -18.823    566.829    567.517    566.829    567.075    566.890
 17.570    553.000    567.729    -14.729    566.734    567.421    566.734    566.981    566.796
 17.670    588.000    567.632     20.368    566.634    567.321    566.634    566.882    566.697
 17.770    570.983    567.551      3.432    566.529    567.237    566.529    566.779    566.592
 17.870    490.000    567.495    -77.495    566.418    567.179    566.418    566.670    566.483
 17.970    524.588    567.388    -42.800    566.302    567.070    566.302    566.556    566.368
 18.070    571.257    567.272      3.985    566.182    566.951    566.182    566.437    566.249
 18.170    497.000    567.152    -70.152    566.056    566.827    566.056    566.313    566.125
 18.270    569.548    567.027      2.522    565.926    566.699    565.926    566.185    565.995
 18.370    542.000    566.897    -24.897    565.791    566.567    565.791    566.052    565.861
 18.470    585.000    566.764     18.236    565.651    566.431    565.651    565.914    565.723
 18.570    599.698    566.626     33.072    565.507    566.290    565.507    565.771    565.580
 18.670    562.000    566.486     -4.486    565.358    566.146    565.358    565.624    565.432
 18.770    530.000    566.357    -36.357    565.204    566.014    565.204    565.472    565.279
 18.870    568.384    566.231      2.153    565.046    565.885    565.046    565.316    565.123
 18.970    553.000    566.080    -13.080    564.883    565.730    564.883    565.155    564.961
 19.070    578.000    565.922     12.078    564.716    565.569    564.716    564.990    564.796
 19.170    555.210    565.761    -10.551    564.545    565.405    564.545    564.821    564.626
 19.270    541.000    565.599    -24.599    564.369    565.239    564.369    564.648    564.451
 19.370    528.000    565.442    -37.442    564.189    565.078    564.189    564.470    564.273
 19.470    564.607    565.271     -0.664    564.005    564.903    564.005    564.288    564.091
 19.570    533.000    565.095    -32.095    563.817    564.724    563.817    564.102    563.904
 19.670    520.000    564.917    -44.917    563.625    564.542    563.625    563.912    563.713
 19.770    571.374    564.751      6.623    563.428    564.371    563.428    563.718    563.519
 19.870    557.061    564.603     -7.543    563.228    564.220    563.228    563.520    563.320
 19.970    553.000    564.419    -11.419    563.024    564.031    563.024    563.318    563.118
 20.070    586.000    564.227     21.773    562.816    563.835    562.816    563.113    562.911
 20.170    564.000    564.032     -0.032    562.604    563.635    562.604    562.903    562.701
 20.270    526.000    563.835    -37.835    562.388    563.433    562.388    562.690    562.488
 20.370    586.069    563.634     22.435    562.169    563.228    562.169    562.474    562.270
 20.470    577.000    563.432     13.568    561.946    563.021    561.946    562.254    562.049
 20.570    541.137    563.226    -22.090    561.719    562.810    561.719    562.030    561.825
 20.670    566.000    563.018      2.982    561.489    562.597    561.489    561.802    561.597
 20.770    564.000    562.813      1.187    561.255    562.386    561.255    561.572    561.365
 20.870    589.000    562.627     26.373    561.018    562.195    561.018    561.337    561.131
 20.970    545.000    562.421    -17.421    560.777    561.983    560.777    561.100    560.892
 21.070    542.367    562.255    -19.889    560.533    561.812    560.533    560.859    560.651
 21.170    540.000    562.088    -22.088    560.286    561.639    560.286    560.615    560.406
 21.270    522.000    561.892    -39.892    560.035    561.437    560.035    560.368    560.158
 21.370    518.788    561.674    -42.886    559.781    561.212    559.781    560.118    559.907
 21.470    572.000    561.462     10.538    559.524    560.994    559.524    559.864    559.653
 21.570    531.000    561.274    -30.274    559.264    560.799    559.264    559.608    559.396
 21.670    580.000    561.054     18.946    559.001    560.572    559.001    559.349    559.136
 21.770    522.000    560.830    -38.830    558.735    560.341    558.735    559.086    558.873
 21.870    583.440    560.607     22.833    558.466    560.111    558.466    558.821    558.608
 21.970    592.000    560.394     31.606    558.194    559.890    558.194    558.553    558.339
 22.070    569.000    560.201      8.799    557.919    559.689    557.919    558.282    558.068
 22.170    532.736    559.983    -27.247    557.641    559.464    557.641    558.009    557.794
 22.270    557.000    559.767     -2.767    557.360    559.239    557.360    557.733    557.517
 22.370    519.404    559.551    -40.148    557.077    559.015    557.077    557.454    557.238
 22.470    566.215    559.339      6.876    556.791    558.793    556.791    557.173    556.956
 22.570    556.000    559.132     -3.132    556.502    558.577    556.502    556.889    556.671
 22.670    547.000    558.932    -11.932    556.211    558.367    556.211    556.603    556.385
 22.770    528.412    558.736    -30.324    555.917    558.161    555.917    556.314    556.095
 22.870    533.000    558.550    -25.550    555.620    557.965    555.620    556.024    555.804
 22.970    564.000    558.375      5.625    555.321    557.779    555.321    555.730    555.510
 23.070    574.980    558.214     16.765    555.020    557.607    555.020    555.435    555.214
 23.170    568.000    558.072      9.928    554.716    557.452    554.716    555.137    554.916
 23.270    590.848    557.957     32.891    554.410    557.325    554.410    554.838    554.616
 23.370    528.443    557.865    -29.422    554.102    557.221    554.102    554.536    554.314
 23.470    567.000    557.811      9.189    553.791    557.153    553.791    554.232    554.009
 23.570    578.118    557.804     20.314    553.478    557.133    553.478    553.926    553.703
 23.670    512.177    557.863    -45.686    553.163    557.177    553.163    553.619    553.395
 23.770    576.000    558.008     17.992    552.846    557.308    552.846    553.309    553.085
 23.870    575.357    558.272     17.085    552.527    557.556    552.527    552.998    552.774
 23.970    527.000    558.715    -31.715    552.205    557.983    552.205    552.685    552.460
 24.070    605.000    559.460     45.540    551.882    558.712    551.882    552.371    552.146
 24.170    576.000    560.779     15.221    551.556    560.013    551.556    552.055    551.829
 24.270    570.000    563.254      6.746    551.229    562.471    551.229    551.737    551.511
 24.370    560.360    567.955     -7.595    550.900    567.155    550.900    551.418    551.192
 24.470    614.000    576.371     37.629    550.569    575.556    550.569    551.098    550.872
 24.570    560.000    589.769    -29.769    550.236    588.942    550.236    550.776    550.550
 24.670    613.407    607.779      5.628    549.901    606.941    549.901    550.453    550.227
 24.770    614.000    626.272    -12.272    549.565    625.422    549.565    550.129    549.903
 24.870    641.000    636.322      4.678    549.227    635.454    549.227    549.804    549.578
 24.970    584.090    630.866    -46.776    548.887    629.967    548.887    549.478    549.252
 25.070    626.000    613.900     12.100    548.546    612.960    548.546    549.151    548.925
 25.170    640.000    594.632     45.368    548.203    593.648    548.203    548.823    548.598
 25.270    624.000    578.914     45.086    547.859    577.887    547.859    548.495    548.270
 25.370    611.000    568.272     42.728    547.513    567.202    547.513    548.166    547.941
 25.470    516.826    561.870    -45.044    547.165    560.760    547.165    547.837    547.613
 25.570    590.000    558.217     31.783    546.816    557.065    546.816    547.507    547.284
 25.670    549.000    556.073     -7.073    546.466    554.878    546.466    547.177    546.955
 25.770    620.000    554.693     65.307    546.115    553.453    546.115    546.847    546.626
 25.870    582.000    553.711     28.289    545.762    552.423    545.762    546.518    546.297
 25.970    601.000    552.963     48.037    545.408    551.624    545.408    546.188    545.969
 26.070    589.000    552.374     36.626    545.052    550.981    545.052    545.859    545.641
 26.170    600.560    551.906     48.654    544.696    550.454    544.696    545.531    545.314
 26.270    554.000    551.536      2.464    544.338    550.021    544.338    545.203    544.989
 26.370    562.000    551.252     10.748    543.979    549.669    543.979    544.877    544.665
 26.470    571.000    551.046     19.954    543.619    549.391    543.619    544.552    544.342
 26.570    589.621    550.918     38.703    543.258    549.184    543.258    544.229    544.022
 26.670    524.398    550.871    -26.473    542.896    549.052    542.896    543.908    543.704
 26.770    505.158    550.912    -45.754    542.533    549.001    542.533    543.589    543.388
 26.870    565.000    551.054     13.946    542.168    549.042    542.168    543.274    543.076
 26.970    528.000    551.316    -23.316    541.803    549.194    541.803    542.961    542.768
 27.070    622.000    551.724     70.276    541.438    549.482    541.438    542.653    542.464
 27.170    578.766    552.319     26.447    541.071    549.946    541.071    542.349    542.166
 27.270    601.000    553.160     47.840    540.703    550.643    540.703    542.050    541.873
 27.370    583.000    554.331     28.669    540.335    551.656    540.335    541.757    541.587
 27.470    557.000    555.990      1.010    539.966    553.142    539.966    541.471    541.308
 27.570    570.000    558.503     11.497    539.596    555.461    539.596    541.192    541.039
 27.670    558.029    562.942     -4.913    539.225    559.687    539.225    540.923    540.779
 27.770    577.000    572.434      4.566    538.854    568.942    538.854    540.664    540.530
 27.870    604.105    594.274      9.830    538.482    590.513    538.482    540.415    540.294
 27.970    699.000    640.311     58.689    538.110    636.245    538.110    540.180    540.072
 28.070    717.000    720.030     -3.030    537.736    715.623    537.736    539.959    539.866
 28.170    814.000    824.530    -10.530    537.363    819.746    537.363    539.753    539.678
 28.270    852.540    913.269    -60.728    536.989    908.088    536.989    539.566    539.509
 28.370    973.000    932.521     40.479    536.614    926.926    536.614    539.397    539.362
 28.470    861.280    872.749    -11.469    536.239    866.701    536.239    539.249    539.237
 28.570    804.831    787.299     17.531    535.864    780.744    535.864    539.122    539.137
 28.670    718.000    733.666    -15.666    535.488    726.543    535.488    539.019    539.062
 28.770    699.000    733.892    -34.892    535.112    726.147    535.112    538.937    539.012
 28.870    832.258    774.420     57.837    534.735    766.010    534.735    538.876    538.984
 28.970    795.156    817.478    -22.323    534.358    808.373    534.358    538.832    538.976
 29.070    810.000    821.795    -11.795    533.981    811.977    533.981    538.800    538.981
 29.170    759.000    776.231    -17.231    533.604    765.690    533.604    538.771    538.988
 29.270    730.000    707.762     22.238    533.226    696.510    533.226    538.731    538.985
 29.370    675.000    646.458     28.542    532.849    634.543    532.849    538.667    538.954
 29.470    612.000    604.819      7.181    532.471    592.330    532.471    538.561    538.876
 29.570    600.000    581.453     18.547    532.093    568.518    532.093    538.394    538.731
 29.670    596.000    569.736     26.264    531.715    556.518    531.715    538.150    538.500
 29.770    609.054    563.801     45.252    531.337    550.485    531.337    537.819    538.173
 29.870    525.324    560.317    -34.994    530.958    547.095    530.958    537.397    537.744
 29.970    576.000    557.858     18.142    530.580    544.915    530.580    536.888    537.217
 30.070    628.000    555.924     72.076    530.202    543.420    530.202    536.303    536.606
 30.170    524.092    554.386    -30.294    529.824    542.450    529.824    535.657    535.928
 30.270    575.690    553.311     22.379    529.446    542.030    529.446    534.969    535.203
 30.370    546.000    552.996     -6.996    529.067    542.423    529.067    534.257    534.450
 30.470    552.000    554.120     -2.120    528.690    544.273    528.690    533.535    533.687
 30.570    570.000    557.849     12.151    528.312    548.720    528.312    532.817    532.928
 30.670    546.274    565.565    -19.291    527.934    557.127    527.934    532.110    532.182
 30.770    572.898    577.914     -5.016    527.557    570.126    527.557    531.421    531.456
 30.870    584.000    593.237     -9.237    527.180    586.054    527.180    530.754    530.753
 30.970    612.000    606.188      5.812    526.803    599.566    526.803    530.109    530.075
 31.070    621.176    609.175     12.001    526.426    603.074    526.426    529.488    529.424
 31.170    643.135    599.278     43.857    526.049    593.657    526.049    528.889    528.797
 31.270    577.000    582.320     -5.320    525.673    577.138    525.673    528.311    528.194
 31.370    642.000    565.748     76.252    525.298    560.961    525.298    527.754    527.613
 31.470    516.150    553.287    -37.137    524.922    548.856    524.922    527.214    527.052
 31.570    540.000    545.373     -5.373    524.547    541.260    524.547    526.692    526.511
 31.670    500.634    540.848    -40.213    524.173    537.020    524.173    526.184    525.985
 31.770    568.011    538.320     29.691    523.798    534.749    523.798    525.691    525.476
 31.870    529.000    536.814     -7.814    523.425    533.473    523.425    525.210    524.980
 31.970    565.483    535.821     29.662    523.051    532.687    523.051    524.740    524.496
 32.070    558.664    535.120     23.544    522.679    532.173    522.679    524.280    524.023
 32.170    575.116    534.626     40.489    522.306    531.850    522.306    523.829    523.560
 32.270    550.000    534.309     15.691    521.935    531.685    521.935    523.386    523.107
 32.370    561.000    534.158     26.842    521.564    531.674    521.564    522.951    522.661
 32.470    584.000    534.177     49.823    521.193    531.819    521.193    522.522    522.222
 32.570    540.000    534.382      5.618    520.823    532.139    520.823    522.099    521.790
 32.670    490.370    534.798    -44.428    520.454    532.660    520.454    521.682    521.364
 32.770    578.000    535.467     42.533    520.085    533.424    520.085    521.269    520.944
 32.870    577.480    536.449     41.031    519.717    534.494    519.717    520.861    520.528
 32.970    508.000    537.832    -29.832    519.350    535.957    519.350    520.457    520.117
 33.070    544.000    539.752      4.248    518.984    537.950    518.984    520.057    519.710
 33.170    545.000    542.442      2.558    518.618    540.708    518.618    519.661    519.307
 33.270    537.169    546.372     -9.204    518.253    544.700    518.253    519.268    518.907
 33.370    560.000    552.602      7.398    517.888    550.987    517.888    518.878    518.511
 33.470    581.000    563.484     17.516    517.525    561.919    517.525    518.491    518.118
 33.570    582.000    583.619     -1.619    517.162    582.099    517.162    518.106    517.727
 33.670    604.000    620.270    -16.270    516.800    618.788    516.800    517.725    517.340
 33.770    695.000    681.600     13.400    516.440    680.150    516.440    517.345    516.954
 33.870    803.340    771.479     31.861    516.079    770.058    516.079    516.968    516.572
 33.970    864.000    881.363    -17.363    515.720    879.971    515.720    516.593    516.192
 34.070    974.000    981.540     -7.540    515.362    980.185    515.362    516.221    515.814
 34.170    963.963   1023.120    -59.157    515.005   1021.811    515.005    515.850    515.438
 34.270    976.869    977.843     -0.974    514.648    976.578    514.648    515.482    515.064
 34.370    913.000    875.531     37.469    514.293    874.304    514.293    515.115    514.692
 34.470    759.000    765.071     -6.071    513.938    763.874    513.938    514.750    514.322
 34.570    657.000    675.356    -18.356    513.585    674.184    513.585    514.387    513.954
 34.670    609.000    614.267     -5.267    513.232    613.118    513.232    514.026    513.588
 34.770    577.000    577.608     -0.608    512.881    576.479    512.881    513.667    513.224
 34.870    598.000    557.151     40.849    512.530    556.041    512.530    513.309    512.861
 34.970    572.819    545.708     27.111    512.181    544.616    512.181    512.954    512.500
 35.070    543.821    538.772      5.049    511.833    537.697    511.833    512.599    512.141
 35.170    501.705    534.061    -32.356    511.486    533.001    511.486    512.247    511.784
 35.270    577.226    530.549     46.677    511.140    529.505    511.140    511.896    511.428
 35.370    495.220    527.781    -32.561    510.795    526.750    510.795    511.547    511.074
 35.470    530.000    525.527      4.473    510.451    524.508    510.451    511.199    510.721
 35.570    499.000    523.650    -24.650    510.108    522.644    510.108    510.854    510.370
 35.670    534.000    522.061     11.939    509.767    521.065    509.767    510.509    510.021
 35.770    533.000    520.694     12.306    509.427    519.709    509.427    510.167    509.673
 35.870    520.904    519.504      1.400    509.088    518.528    509.088    509.825    509.327
 35.970    539.000    518.455     20.545    508.750    517.488    508.750    509.486    508.982
 36.070    537.000    517.522     19.478    508.413    516.562    508.413    509.148    508.639
 36.170    525.000    516.684      8.316    508.078    515.732    508.078    508.812    508.297
 36.270    511.088    515.928     -4.840    507.744    514.983    507.744    508.477    507.957
 36.370    502.000    515.241    -13.241    507.411    514.302    507.411    508.144    507.619
 36.470    523.000    514.618      8.382    507.080    513.684    507.080    507.812    507.282
 36.570    559.239    514.051     45.188    506.750    513.122    506.750    507.482    506.947
 36.670    500.000    513.539    -13.539    506.421    512.615    506.421    507.154    506.613
 36.770    488.797    513.085    -24.288    506.094    512.165    506.094    506.827    506.281
 36.870    474.000    512.697    -38.697    505.768    511.781    505.768    506.502    505.950
 36.970    488.000    512.402    -24.402    505.443    511.489    505.443    506.179    505.621
 37.070    524.000    512.255     11.745    505.119    511.344    505.119    505.857    505.293
 37.170    519.000    512.360      6.640    504.797    511.452    504.797    505.537    504.967
 37.270    520.000    512.879      7.121    504.477    511.973    504.477    505.219    504.643
 37.370    495.805    514.004    -18.199    504.158    513.100    504.158    504.902    504.320
 37.470    531.000    515.875     15.125    503.840    514.972    503.840    504.586    503.998
 37.570    521.700    518.432      3.268    503.524    517.531    503.524    504.273    503.679
 37.670    503.568    521.230    -17.662    503.209    520.330    503.209    503.961    503.360
 37.770    507.455    523.330    -15.875    502.895    522.432    502.895    503.651    503.044
 37.870    503.000    523.688    -20.688    502.583    522.791    502.583    503.342    502.729
 37.970    529.000    522.067      6.933    502.273    521.172    502.273    503.036    502.416
 38.070    484.000    519.238    -35.238    501.964    518.343    501.964    502.731    502.104
 38.170    512.000    516.089     -4.089    501.657    515.193    501.657    502.427    501.794
 38.270    510.000    513.139     -3.139    501.351    512.240    501.351    502.126    501.485
 38.370    484.105    510.673    -26.568    501.046    509.770    501.046    501.826    501.178
 38.470    485.000    508.789    -23.789    500.744    507.882    500.744    501.528    500.873
 38.570    524.000    507.425     16.575    500.442    506.513    500.442    501.232    500.569
 38.670    506.000    506.449     -0.449    500.143    505.533    500.143    500.937    500.267
 38.770    504.000    505.731     -1.731    499.844    504.811    499.844    500.644    499.967
 38.870    476.000    505.174    -29.174    499.548    504.250    499.548    500.353    499.668
 38.970    521.000    504.714     16.286    499.253    503.785    499.253    500.064    499.371
 39.070    481.000    504.311    -23.311    498.959    503.378    498.959    499.777    499.076
 39.170    510.000    503.946      6.054    498.668    503.008    498.668    499.492    498.783
 39.270    495.896    503.606     -7.709    498.377    502.663    498.377    499.208    498.491
 39.370    458.375    503.281    -44.907    498.089    502.334    498.089    498.926    498.200
 39.470    471.000    502.979    -31.979    497.802    502.026    497.802    498.647    497.912
 39.570    537.205    502.692     34.513    497.517    501.733    497.517    498.369    497.625
 39.670    530.000    502.419     27.581    497.233    501.454    497.233    498.092    497.340
 39.770    456.000    502.158    -46.158    496.951    501.187    496.951    497.818    497.056
 39.870    494.000    501.910     -7.910    496.671    500.932    496.671    497.546    496.775
 39.970    496.014    501.673     -5.659    496.392    500.688    496.392    497.276    496.495
 40.070    542.945    501.449     41.496    496.115    500.457    496.115    497.008    496.217
 40.170    526.694    501.237     25.457    495.840    500.237    495.840    496.741    495.940
 40.270    479.000    501.038    -22.038    495.566    500.030    495.566    496.477    495.665
 40.370    540.854    500.853     40.001    495.295    499.837    495.295    496.215    495.392
 40.470    506.000    500.684      5.316    495.024    499.659    495.024    495.954    495.121
 40.570    495.000    500.530     -5.530    494.756    499.497    494.756    495.696    494.852
 40.670    477.000    500.396    -23.396    494.489    499.353    494.489    495.440    494.584
 40.770    460.000    500.283    -40.283    494.224    499.230    494.224    495.186    494.318
 40.870    456.000    500.195    -44.195    493.961    499.131    493.961    494.933    494.054
 40.970    486.000    500.135    -14.135    493.700    499.061    493.700    494.683    493.792
 41.070    504.000    500.109      3.891    493.440    499.024    493.440    494.436    493.531
 41.170    504.000    500.124      3.876    493.182    499.028    493.182    494.190    493.273
 41.270    542.000    500.189     41.811    492.926    499.082    492.926    493.946    493.016
 41.370    490.000    500.317    -10.317    492.672    499.197    492.672    493.705    492.761
 41.470    507.000    500.523      6.477    492.419    499.390    492.419    493.466    492.507
 41.570    546.945    500.833     46.112    492.168    499.687    492.168    493.229    492.256
 41.670    502.000    501.288      0.712    491.919    500.129    491.919    492.994    492.006
 41.770    528.744    501.965     26.779    491.672    500.792    491.672    492.761    491.759
 41.870    454.000    503.019    -49.019    491.426    501.832    491.426    492.531    491.513
 41.970    505.855    504.759      1.095    491.183    503.558    491.183    492.303    491.269
 42.070    518.000    507.755     10.245    490.941    506.539    490.941    492.078    491.026
 42.170    509.000    512.916     -3.916    490.701    511.686    490.701    491.855    490.786
 42.270    508.000    521.434    -13.434    490.463    520.191    490.463    491.634    490.548
 42.370    514.000    534.443    -20.443    490.226    533.188    490.226    491.415    490.311
 42.470    527.243    552.348    -25.105    489.992    551.083    489.992    491.199    490.076
 42.570    540.274    573.895    -33.621    489.759    572.622    489.759    490.986    489.843
 42.670    587.057    595.173     -8.117    489.528    593.892    489.528    490.775    489.612
 42.770    590.000    609.502    -19.502    489.299    608.210    489.299    490.567    489.383
 42.870    566.000    610.508    -44.508    489.072    609.198    489.072    490.361    489.156
 42.970    577.847    597.564    -19.717    488.847    596.227    488.847    490.158    488.930
 43.070    542.727    576.501    -33.774    488.623    575.130    488.623    489.958    488.707
 43.170    513.000    554.327    -41.327    488.401    552.920    488.401    489.760    488.485
 43.270    561.218    535.419     25.799    488.182    533.976    488.182    489.565    488.266
 43.370    483.000    521.366    -38.366    487.964    519.889    487.964    489.373    488.048
 43.470    494.000    511.941    -17.941    487.747    510.432    487.747    489.184    487.832
 43.570    502.000    506.065     -4.065    487.533    504.523    487.533    488.998    487.618
 43.670    479.247    502.520    -23.273    487.321    500.947    487.321    488.815    487.406
 43.770    514.000    500.344     13.656    487.110    498.739    487.110    488.635    487.196
 43.870    465.000    498.921    -33.921    486.902    497.283    486.902    488.458    486.988
 43.970    542.000    497.910     44.090    486.695    496.237    486.695    488.284    486.782
 44.070    487.000    497.139    -10.139    486.490    495.431    486.490    488.114    486.578
 44.170    464.000    496.526    -32.526    486.287    494.781    486.287    487.947    486.375
 44.270    472.000    496.025    -24.025    486.086    494.241    486.086    487.783    486.175
 44.370    477.000    495.610    -18.610    485.887    493.785    485.887    487.624    485.977
 44.470    489.000    495.264     -6.264    485.689    493.397    485.689    487.468    485.780
 44.570    494.975    494.976     -0.001    485.494    493.064    485.494    487.316    485.586
 44.670    487.407    494.735     -7.328    485.300    492.777    485.300    487.167    485.393
 44.770    513.737    494.536     19.201    485.109    492.529    485.109    487.023    485.203
 44.870    500.000    494.374      5.626    484.919    492.315    484.919    486.884    485.015
 44.970    479.000    494.244    -15.244    484.731    492.131    484.731    486.749    484.828
 45.070    518.000    494.145     23.855    484.545    491.975    484.545    486.618    484.644
 45.170    485.000    494.075     -9.075    484.361    491.844    484.361    486.493    484.461
 45.270    505.762    494.032     11.730    484.178    491.737    484.178    486.372    484.281
 45.370    486.012    494.016     -8.004    483.998    491.653    483.998    486.257    484.102
 45.470    483.000    494.027    -11.027    483.820    491.593    483.820    486.148    483.926
 45.570    505.447    494.065     11.382    483.643    491.556    483.643    486.045    483.752
 45.670    479.000    494.132    -15.132    483.468    491.542    483.468    485.948    483.580
 45.770    462.152    494.228    -32.076    483.295    491.553    483.295    485.858    483.409
 45.870    473.000    494.356    -21.356    483.125    491.590    483.125    485.775    483.241
 45.970    503.674    494.519      9.155    482.955    491.655    482.955    485.700    483.076
 46.070    486.000    494.719     -8.719    482.788    491.752    482.788    485.633    482.912
 46.170    499.019    494.960      4.059    482.623    491.882    482.623    485.575    482.750
 46.270    512.000    495.249     16.751    482.460    492.052    482.460    485.526    482.591
 46.370    474.000    495.590    -21.590    482.298    492.265    482.298    485.488    482.434
 46.470    546.000    495.994     50.006    482.139    492.531    482.139    485.461    482.279
 46.570    479.594    496.470    -16.876    481.981    492.859    481.981    485.446    482.127
 46.670    537.628    497.035     40.593    481.825    493.263    481.825    485.445    481.977
 46.770    460.713    497.712    -36.999    481.671    493.766    481.671    485.458    481.829
 46.870    537.211    498.541     38.670    481.519    494.407    481.519    485.488    481.684
 46.970    465.000    499.601    -34.601    481.369    495.261    481.369    485.535    481.541
 47.070    489.373    501.032    -11.659    481.220    496.467    481.220    485.603    481.401
 47.170    572.000    503.092     68.908    481.074    498.281    481.074    485.692    481.264
 47.270    499.000    506.192     -7.192    480.929    501.111    480.929    485.806    481.129
 47.370    466.852    510.904    -44.052    480.787    505.524    480.787    485.947    480.998
 47.470    502.000    517.865    -15.865    480.646    512.155    480.646    486.119    480.870
 47.570    480.733    527.557    -46.825    480.507    521.482    480.507    486.324    480.745
 47.670    509.000    539.956    -30.956    480.370    533.477    480.370    486.568    480.623
 47.770    592.000    554.112     37.888    480.234    547.185    480.234    486.853    480.505
 47.870    543.000    567.757    -24.757    480.101    560.337    480.101    487.185    480.391
 47.970    597.987    577.394     20.593    479.969    569.432    479.969    487.570    480.281
 48.070    557.000    579.804    -22.804    479.840    571.248    479.840    488.011    480.175
 48.170    578.000    574.552      3.448    479.712    565.344    479.712    488.515    480.074
 48.270    590.000    564.456     25.544    479.586    554.528    479.586    489.087    479.977
 48.370    548.000    553.245     -5.245    479.462    542.524    479.462    489.732    479.886
 48.470    520.000    543.583    -23.583    479.339    531.988    479.339    490.456    479.801
 48.570    554.000    536.755     17.245    479.219    524.200    479.219    491.261    479.720
 48.670    568.459    533.026     35.432    479.100    519.425    479.100    492.150    479.646
 48.770    531.000    532.078     -1.078    478.983    517.345    478.983    493.119    479.577
 48.870    525.000    533.382     -8.382    478.868    517.440    478.868    494.163    479.514
 48.970    569.828    536.472     33.356    478.755    519.259    478.755    495.268    479.455
 49.070    523.000    541.109    -18.109    478.644    522.584    478.644    496.413    479.401
 49.170    510.955    547.406    -36.450    478.534    527.561    478.534    497.565    479.349
 49.270    577.000    556.100     20.900    478.426    534.975    478.426    498.681    479.297
 49.370    555.000    569.238    -14.238    478.320    546.928    478.320    499.705    479.243
 49.470    642.802    591.531     51.271    478.216    568.198    478.216    500.574    479.184
 49.570    625.000    632.401     -7.401    478.114    608.271    478.114    501.223    479.116
 49.670    745.000    707.742     37.258    478.013    683.099    478.013    501.595    479.036
 49.770    863.199    839.130     24.069    477.915    814.296    477.915    501.652    478.944
 49.870   1108.653   1047.439     61.215    477.818   1022.753    477.818    501.383    478.837
 49.970   1324.000   1339.809    -15.809    477.722   1315.604    477.722    500.806    478.718
 50.070   1682.627   1693.754    -11.127    477.629   1670.332    477.629    499.964    478.587
 50.170   2020.000   2046.414    -26.414    477.537   2024.032    477.537    498.916    478.449
 50.270   2307.000   2300.067      6.933    477.447   2278.918    477.447    497.728    478.306
 50.370   2384.017   2359.730     24.287    477.359   2339.916    477.359    496.462    478.161
 50.470   2280.343   2198.678     81.665    477.273   2180.200    477.273    495.172    478.017
 50.570   1942.861   1883.858     59.003    477.188   1866.653    477.188    493.898    477.876
 50.670   1563.326   1521.020     42.306    477.105   1504.999    477.105    492.670    477.739
 50.770   1126.000   1194.699    -68.699    477.024   1179.775    477.024    491.508    477.607
 50.870    961.502    948.083     13.419    476.944    934.172    476.944    490.423    477.481
 50.970    754.826    787.227    -32.402    476.867    774.254    476.867    489.420    477.360
 51.070    728.000    695.274     32.726    476.791    683.164    476.791    488.502    477.245
 51.170    652.000    647.732      4.268    476.716    636.409    476.716    487.665    477.135
 51.270    625.406    622.841      2.565    476.644    612.232    476.644    486.906    477.030
 51.370    599.000    606.211     -7.211    476.573    596.241    476.573    486.221    476.930
 51.470    611.000    591.280     19.720    476.503    581.880    476.503    485.604    476.835
 51.570    626.000    576.806     49.194    476.436    567.910    476.436    485.050    476.744
 51.670    603.000    563.595     39.405    476.370    555.146    476.370    484.552    476.658
 51.770    588.413    552.560     35.853    476.306    544.505    476.306    484.107    476.575
 51.870    576.000    544.136     31.864    476.243    536.430    476.243    483.709    476.496
 51.970    520.068    538.300    -18.232    476.182    530.900    476.182    483.354    476.420
 52.070    510.000    534.739    -24.739    476.123    527.608    476.123    483.038    476.347
 52.170    576.000    533.053     42.947    476.066    526.156    476.066    482.757    476.278
 52.270    574.000    532.913     41.087    476.010    526.219    476.010    482.507    476.211
 52.370    538.000    534.172      3.828    475.955    527.654    475.955    482.287    476.147
 52.470    507.619    536.959    -29.341    475.903    530.591    475.903    482.093    476.086
 52.570    555.000    541.807     13.193    475.852    535.566    475.852    481.923    476.027
 52.670    586.507    549.855     36.652    475.802    543.719    475.802    481.775    475.970
 52.770    559.000    563.115     -4.115    475.754    557.065    475.754    481.647    475.916
 52.870    630.000    584.689     45.311    475.708    578.706    475.708    481.539    475.864
 52.970    608.000    618.656    -10.656    475.663    612.724    475.663    481.449    475.814
 53.070    685.000    669.402     15.598    475.620    663.505    475.620    481.375    475.766
 53.170    740.000    740.189     -0.189    475.579    734.313    475.579    481.317    475.720
 53.270    774.391    831.107    -56.715    475.539    825.238    475.539    481.275    475.676
 53.370   1018.000    936.706     81.294    475.500    930.834    475.500    481.247    475.634
 53.470   1016.000   1043.708    -27.708    475.464   1037.821    475.464    481.234    475.593
 53.570   1131.025   1129.906      1.119    475.428   1123.994    475.428    481.234    475.555
 53.670   1129.000   1169.214    -40.214    475.395   1163.266    475.395    481.249    475.519
 53.770   1150.000   1147.036      2.964    475.362   1141.039    475.362    481.277    475.484
 53.870   1035.166   1072.386    -37.220    475.332   1066.324    475.332    481.318    475.451
 53.970   1003.000    969.802     33.198    475.302    963.657    475.302    481.374    475.420
 54.070    885.000    863.220     21.780    475.275    856.974    475.275    481.443    475.390
 54.170    823.572    768.381     55.191    475.248    762.021    475.248    481.526    475.362
 54.270    700.000    692.738      7.262    475.224    686.250    475.224    481.624    475.336
 54.370    650.000    637.552     12.448    475.200    630.923    475.200    481.737    475.312
 54.470    644.036    600.257     43.779    475.179    593.474    475.179    481.865    475.289
 54.570    548.000    576.634    -28.634    475.158    569.684    475.158    482.009    475.267
 54.670    576.000    562.441     13.559    475.139    555.310    475.139    482.170    475.248
 54.770    573.000    554.290     18.710    475.122    546.962    475.122    482.349    475.230
 54.870    570.000    549.869     20.131    475.106    542.328    475.106    482.546    475.213
 54.970    550.000    547.792      2.208    475.091    540.018    475.091    482.763    475.198
 55.070    581.000    547.308     33.692    475.078    539.283    475.078    483.001    475.185
 55.170    581.000    548.058     32.942    475.066    539.760    475.066    483.262    475.173
 55.270    596.529    549.901     46.628    475.056    541.307    475.056    483.547    475.163
 55.370    527.000    552.828    -25.828    475.047    543.914    475.047    483.859    475.154
 55.470    508.997    556.934    -47.937    475.039    547.671    475.039    484.198    475.147
 55.570    599.576    562.437     37.139    475.033    552.797    475.033    484.569    475.141
 55.670    588.078    569.776     18.302    475.028    559.726    475.028    484.974    475.137
 55.770    593.705    579.807     13.898    475.024    569.310    475.024    485.416    475.134
 55.870    605.018    594.187     10.831    475.022    583.203    475.022    485.898    475.133
 55.970    655.000    615.981     39.019    475.021    604.465    475.021    486.426    475.133
 56.070    607.000    650.447    -43.447    475.021    638.348    475.021    487.004    475.135
 56.170    712.000    705.738      6.262    475.023    693.000    475.023    487.638    475.138
 56.270    721.000    792.951    -71.951    475.026    779.511    475.026    488.333    475.143
 56.370    884.000    924.768    -40.768    475.030    910.558    475.030    489.097    475.149
 56.470   1057.159   1112.086    -54.927    475.036   1097.032    475.036    489.938    475.157
 56.570   1292.161   1358.773    -66.612    475.043   1342.797    475.043    490.865    475.166
 56.670   1584.931   1655.560    -70.629    475.051   1638.582    475.051    491.887    475.177
 56.770   1907.000   1974.525    -67.525    475.060   1956.459    475.060    493.016    475.189
 56.870   2168.000   2266.082    -98.082    475.071   2246.833    475.071    494.263    475.202
 56.970   2369.579   2464.123    -94.545    475.083   2443.580    475.083    495.642    475.218
 57.070   2579.214   2509.562     69.652    475.096   2487.578    475.096    497.167    475.234
 57.170   2431.000   2387.054     43.946    475.110   2363.441    475.110    498.852    475.253
 57.270   2173.000   2137.552     35.448    475.125   2112.095    475.125    500.715    475.273
 57.370   1849.000   1828.862     20.138    475.142   1801.336    475.142    502.770    475.294
 57.470   1563.330   1520.954     42.375    475.160   1491.132    475.160    505.036    475.317
 57.570   1128.000   1252.572   -124.572    475.178   1220.222    475.178    507.529    475.342
 57.670    984.539   1041.748    -57.209    475.199   1006.633    475.199    510.264    475.368
 57.770    871.000    890.622    -19.622    475.220    852.494    475.220    513.256    475.396
 57.870    745.464    791.531    -46.067    475.242    750.134    475.242    516.512    475.426
 57.970    746.371    733.034     13.336    475.266    688.108    475.266    520.038    475.457
 58.070    715.000    704.484     10.516    475.290    655.771    475.290    523.827    475.490
 58.170    725.000    698.425     26.575    475.316    645.683    475.316    527.863    475.525
 58.270    697.416    711.012    -13.596    475.343    654.032    475.343    532.108    475.561
 58.370    716.000    741.051    -25.051    475.371    679.682    475.371    536.506    475.599
 58.470    752.792    788.394    -35.602    475.400    722.571    475.400    540.969    475.639
 58.570    853.005    852.210      0.795    475.430    781.986    475.430    545.379    475.680
 58.670    883.596    929.457    -45.861    475.461    855.039    475.461    549.587    475.723
 58.770    994.000   1013.897    -19.897    475.493    935.673    475.493    553.414    475.767
 58.870   1072.000   1096.681    -24.681    475.526   1015.233    475.526    556.668    475.811
 58.970   1130.000   1169.225    -39.225    475.560   1085.325    475.560    559.158    475.857
 59.070   1190.668   1225.271    -34.602    475.595   1139.849    475.595    560.722    475.903
 59.170   1255.519   1259.217     -3.698    475.631   1173.309    475.631    561.254    475.951
 59.270   1309.131   1265.813     43.318    475.668   1180.482    475.668    560.717    475.999
 59.370   1341.000   1245.424     95.576    475.706   1161.685    475.706    559.155    476.048
 59.470   1246.990   1207.945     39.045    475.745   1126.694    475.745    556.681    476.098
 59.570   1243.000   1168.299     74.701    475.785   1090.270    475.785    553.461    476.150
 59.670   1202.696   1139.815     62.881    475.826   1065.554    475.826    549.687    476.203
 59.770   1247.000   1132.216    114.784    475.868   1062.078    475.868    545.550    476.259
 59.870   1210.000   1152.436     57.564    475.911   1086.602    475.911    541.228    476.317
 59.970   1209.000   1203.924      5.076    475.954   1142.430    475.954    536.867    476.377
 60.070   1356.000   1283.398     72.602    475.999   1226.171    475.999    532.583    476.441
 60.170   1409.000   1377.991     31.009    476.044   1324.881    476.044    528.460    476.508
 60.270   1509.202   1465.151     44.051    476.090   1415.958    476.090    524.552    476.579
 60.370   1594.000   1516.705     77.295    476.137   1471.203    476.137    520.895    476.653
 60.470   1474.660   1509.174    -34.514    476.185   1467.114    476.185    517.505    476.732
 60.570   1440.945   1436.805      4.139    476.234   1397.925    476.234    514.387    476.814
 60.670   1292.000   1314.961    -22.961    476.284   1278.989    476.284    511.535    476.900
 60.770   1119.101   1169.605    -50.505    476.334   1136.275    476.334    508.941    476.991
 60.870   1084.801   1024.992     59.809    476.385    994.047    476.385    506.590    477.085
 60.970    886.912    898.058    -11.146    476.437    869.259    476.437    504.466    477.184
 61.070    786.000    797.787    -11.787    476.490    770.914    476.490    502.553    477.286
 61.170    724.000    726.679     -2.679    476.543    701.530    476.543    500.833    477.391
 61.270    693.718    683.211     10.507    476.597    659.606    476.597    499.288    477.498
 61.370    699.000    664.528     34.472    476.652    642.303    476.652    497.902    477.606
 61.470    691.000    668.556     22.444    476.708    647.569    476.708    496.659    477.714
 61.570    707.528    694.969     12.560    476.764    675.091    476.764    495.541    477.820
 61.670    706.052    744.837    -38.784    476.821    725.959    476.821    494.535    477.922
 61.770    799.000    819.172    -20.172    476.879    801.201    476.879    493.626    478.018
 61.870    917.000    916.834      0.166    476.937    899.694    476.937    492.802    478.106
 61.970   1025.000   1032.410     -7.410    476.996   1016.042    476.996    492.051    478.184
 62.070   1090.234   1154.620    -64.386    477.056   1138.981    477.056    491.363    478.252
 62.170   1209.000   1265.728    -56.728    477.116   1250.788    477.116    490.729    478.308
 62.270   1293.773   1343.272    -49.499    477.177   1329.012    477.177    490.142    478.353
 62.370   1294.000   1366.751    -72.751    477.239   1353.152    477.239    489.598    478.388
 62.470   1258.412   1328.550    -70.137    477.301   1315.586    477.301    489.092    478.414
 62.570   1271.177   1239.274     31.903    477.364   1226.915    477.364    488.622    478.433
 62.670   1070.000   1120.624    -50.624    477.427   1108.835    477.427    488.184    478.447
 62.770    997.000    994.493      2.507    477.491    983.240    477.491    487.778    478.458
 62.870    859.000    877.234    -18.234    477.556    866.482    477.556    487.402    478.467
 62.970    680.000    778.523    -98.523    477.620    768.240    477.620    487.054    478.477
 63.070    703.000    702.063      0.937    477.686    692.220    477.686    486.733    478.489
 63.170    629.998    647.132    -17.134    477.752    637.700    477.752    486.438    478.502
 63.270    627.000    610.318     16.682    477.818    601.270    477.818    486.168    478.518
 63.370    615.000    587.329     27.671    477.885    578.641    477.885    485.920    478.538
 63.470    547.000    574.268    -27.268    477.953    565.916    477.953    485.694    478.561
 63.570    595.000    568.322     26.678    478.021    560.283    478.021    485.488    478.588
 63.670    565.000    567.981     -2.981    478.089    560.233    478.089    485.301    478.618
 63.770    599.511    572.962     26.549    478.158    565.484    478.158    485.132    478.651
 63.870    574.000    583.983     -9.983    478.227    576.755    478.227    484.979    478.688
 63.970    602.008    602.445     -0.438    478.297    595.446    478.297    484.842    478.728
 64.070    634.000    629.996      4.004    478.367    623.206    478.367    484.719    478.771
 64.170    693.000    667.969     25.031    478.437    661.371    478.437    484.610    478.816
 64.270    729.000    716.711     12.289    478.508    710.287    478.508    484.514    478.864
 64.370    758.000    774.875    -16.875    478.579    768.611    478.579    484.429    478.915
 64.470    841.150    838.768      2.382    478.651    832.652    478.651    484.355    478.967
 64.570    928.000    901.889     26.111    478.722    895.913    478.722    484.292    479.022
 64.670    986.000    955.168     30.832    478.794    949.328    478.794    484.238    479.078
 64.770    968.000    988.964    -20.964    478.867    983.259    478.867    484.194    479.137
 64.870   1007.720    996.939     10.781    478.940    991.370    478.940    484.158    479.196
 64.970    982.000    978.958      3.042    479.013    973.523    479.013    484.130    479.258
 65.070    940.000    940.429     -0.429    479.086    935.123    479.086    484.110    479.320
 65.170    897.026    889.555      7.471    479.159    884.369    479.159    484.098    479.384
 65.270    830.000    834.614     -4.614    479.233    829.537    479.233    484.092    479.449
 65.370    774.000    781.986     -7.986    479.307    777.006    479.307    484.093    479.515
 65.470    712.857    735.283    -22.427    479.382    730.390    479.382    484.100    479.581
 65.570    668.000    695.624    -27.624    479.456    690.804    479.456    484.113    479.649
 65.670    660.000    662.666     -2.666    479.531    657.910    479.531    484.132    479.717
 65.770    594.000    635.681    -41.681    479.605    630.978    479.605    484.157    479.787
 65.870    640.069    614.014     26.056    479.680    609.357    479.680    484.187    479.856
 65.970    554.000    597.064    -43.064    479.756    592.446    479.756    484.223    479.927
 66.070    554.288    584.215    -29.926    479.831    579.632    479.831    484.263    479.998
 66.170    609.003    574.875     34.128    479.906    570.322    479.906    484.308    480.069
 66.270    584.642    568.536     16.106    479.982    564.009    479.982    484.359    480.141
 66.370    571.851    564.795      7.056    480.057    560.290    480.057    484.414    480.213
 66.470    540.000    563.357    -23.357    480.133    558.870    480.133    484.473    480.286
 66.570    520.170    564.047    -43.878    480.209    559.574    480.209    484.538    480.359
 66.670    580.000    566.865     13.135    480.285    562.401    480.285    484.607    480.433
 66.770    559.058    572.092    -13.034    480.361    567.633    480.361    484.681    480.507
 66.870    611.000    580.461     30.539    480.437    576.002    480.437    484.759    480.581
 66.970    611.000    593.384     17.616    480.513    588.920    480.513    484.842    480.655
 67.070    584.636    613.233    -28.597    480.589    608.759    480.589    484.930    480.730
 67.170    670.000    643.614     26.386    480.665    639.124    480.665    485.023    480.805
 67.270    673.000    689.500    -16.500    480.741    684.990    480.741    485.121    480.880
 67.370    701.000    757.058    -56.058    480.817    752.522    480.817    485.223    480.955
 67.470    893.523    852.948     40.575    480.893    848.383    480.893    485.331    481.030
 67.570   1010.064    983.009     27.056    480.969    978.412    480.969    485.444    481.106
 67.670   1208.000   1150.365     57.635    481.045   1145.737    481.045    485.562    481.181
 67.770   1336.000   1353.267    -17.267    481.120   1348.609    481.120    485.686    481.257
 67.870   1582.495   1583.047     -0.552    481.196   1578.364    481.196    485.816    481.333
 67.970   1740.000   1822.558    -82.558    481.272   1817.853    481.272    485.952    481.409
 68.070   1977.742   2045.528    -67.786    481.347   2040.807    481.347    486.094    481.485
 68.170   2175.138   2218.355    -43.217    481.423   2213.620    481.423    486.243    481.562
 68.270   2369.000   2307.423     61.577    481.498   2302.667    481.498    486.400    481.638
 68.370   2287.400   2292.424     -5.024    481.573   2287.628    481.573    486.564    481.714
 68.470   2227.000   2177.145     49.855    481.648   2172.278    481.648    486.735    481.791
 68.570   2040.000   1987.161     52.839    481.723   1982.185    481.723    486.916    481.867
 68.670   1716.296   1757.073    -40.777    481.797   1751.953    481.797    487.105    481.944
 68.770   1583.941   1518.727     65.214    481.872   1513.438    481.872    487.305    482.021
 68.870   1229.968   1295.819    -65.851    481.946   1290.342    481.946    487.515    482.097
 68.970   1121.000   1102.987     18.013    482.020   1097.310    482.020    487.736    482.174
 69.070    988.171    946.767     41.404    482.093    940.881    482.093    487.969    482.251
 69.170    849.139    827.319     21.820    482.167    821.217    482.167    488.216    482.328
 69.270    796.000    740.545     55.455    482.240    734.221    482.240    488.478    482.405
 69.370    630.607    680.213    -49.606    482.313    673.658    482.313    488.756    482.482
 69.470    653.000    639.695     13.305    482.386    632.896    482.386    489.051    482.559
 69.570    610.301    613.102     -2.801    482.458    606.045    482.458    489.366    482.637
 69.670    643.000    595.812     47.188    482.530    588.478    482.530    489.702    482.715
 69.770    528.000    584.529    -56.529    482.602    576.895    482.602    490.063    482.793
 69.870    610.018    577.085     32.933    482.673    569.125    482.673    490.451    482.871
 69.970    579.000    572.149      6.851    482.744    563.831    482.744    490.869    482.950
 70.070    539.057    568.951    -29.894    482.815    560.240    482.815    491.322    483.029
 70.170    567.775    567.071      0.704    482.885    557.929    482.885    491.813    483.108
 70.270    574.000    566.309      7.691    482.955    556.690    482.955    492.349    483.188
 70.370    523.000    566.606    -43.606    483.025    556.458    483.025    492.935    483.269
 70.470    614.000    568.027     45.973    483.094    557.291    483.094    493.578    483.351
 70.570    526.000    570.777    -44.777    483.163    559.385    483.163    494.286    483.434
 70.670    581.860    575.264      6.596    483.231    563.140    483.231    495.069    483.518
 70.770    561.748    582.199    -20.451    483.299    569.255    483.299    495.936    483.604
 70.870    623.000    592.729     30.271    483.366    578.867    483.366    496.900    483.690
 70.970    644.941    608.592     36.350    483.433    593.698    483.433    497.972    483.779
 71.070    582.000    632.232    -50.232    483.499    616.179    483.499    499.166    483.870
 71.170    640.000    666.831    -26.831    483.565    649.475    483.565    500.498    483.963
 71.270    695.754    716.136    -20.382    483.631    697.318    483.631    501.983    484.058
 71.370    736.000    784.036    -48.036    483.696    763.579    483.696    503.638    484.157
 71.470    854.323    873.813    -19.490    483.760    851.525    483.760    505.479    484.258
 71.570    972.273    987.159    -14.886    483.824    962.830    483.824    507.522    484.362
 71.670   1171.946   1123.061     48.884    483.887   1096.471    483.887    509.783    484.470
 71.770   1216.000   1276.774    -60.774    483.950   1247.687    483.950    512.274    484.582
 71.870   1503.590   1439.005     64.584    484.012   1407.184    484.012    515.006    484.697
 71.970   1560.106   1595.505    -35.400    484.074   1560.708    484.074    517.984    484.816
 72.070   1714.421   1727.530    -13.109    484.135   1689.522    484.135    521.203    484.938
 72.170   1791.000   1814.504    -23.504    484.195   1773.067    484.195    524.651    485.064
 72.270   1861.016   1840.041     20.975    484.255   1794.980    484.255    528.297    485.191
 72.370   1753.000   1799.227    -46.227    484.314   1750.393    484.314    532.092    485.321
 72.470   1747.000   1701.286     45.714    484.373   1648.599    484.373    535.962    485.450
 72.570   1638.105   1564.815     73.290    484.431   1508.300    484.431    539.802    485.577
 72.670   1390.000   1410.230    -20.230    484.488   1350.050    484.488    543.474    485.699
 72.770   1287.000   1254.763     32.237    484.544   1191.252    484.544    546.812    485.814
 72.870   1172.000   1110.761     61.239    484.600   1044.440    484.600    549.632    485.919
 72.970    966.523    985.681    -19.158    484.655    917.262    484.655    551.750    486.010
 73.070    925.554    882.721     42.832    484.710    813.072    484.710    553.011    486.086
 73.170    772.000    801.748    -29.748    484.764    731.839    484.764    553.317    486.145
 73.270    706.000    740.400    -34.400    484.817    671.224    484.817    552.645    486.186
 73.370    742.000    695.179     46.821    484.869    627.670    484.869    551.056    486.210
 73.470    639.000    662.347    -23.347    484.920    597.309    484.920    548.677    486.220
 73.570    622.000    638.542    -16.542    484.971    576.602    484.971    545.680    486.218
 73.670    613.000    621.076     -8.076    485.021    562.673    485.021    542.254    486.207
 73.770    589.000    608.001    -19.001    485.070    553.391    485.070    538.577    486.189
 73.870    619.806    598.017     21.789    485.119    547.301    485.119    534.801    486.169
 73.970    558.000    590.318    -32.318    485.166    543.474    485.166    531.048    486.147
 74.070    624.000    584.423     39.577    485.213    541.335    485.213    527.409    486.125
 74.170    620.945    580.031     40.914    485.259    540.522    485.259    523.946    486.106
 74.270    558.000    576.915    -18.915    485.304    540.766    485.304    520.697    486.088
 74.370    558.000    574.844    -16.844    485.348    541.815    485.348    517.685    486.074
 74.470    577.000    573.534      3.466    485.392    543.376    485.392    514.916    486.063
 74.570    581.239    572.627      8.612    485.434    545.091    485.434    512.392    486.056
 74.670    587.963    571.687     16.275    485.476    546.531    485.476    510.103    486.052
 74.770    555.595    570.254    -14.659    485.516    547.247    485.516    508.039    486.052
 74.870    638.000    567.958     70.042    485.556    546.884    485.556    506.184    486.054
 74.970    650.000    564.673     85.327    485.595    545.330    485.595    504.525    486.059
 75.070    635.000    560.583     74.417    485.633    542.787    485.633    503.042    486.067
 75.170    600.060    556.105     43.956    485.670    539.690    485.670    501.721    486.077
 75.270    642.000    551.753     90.247    485.706    536.569    485.706    500.544    486.088
 75.370    593.000    548.049     44.951    485.742    533.962    485.742    499.497    486.102
 75.470    563.000    545.489     17.511    485.776    532.380    485.776    498.565    486.117
 75.570    501.481    544.553    -43.073    485.809    532.318    485.809    497.735    486.134
 75.670    561.000    545.707     15.293    485.841    534.253    485.841    496.995    486.151
 75.770    563.000    549.392     13.608    485.873    538.637    485.873    496.333    486.169
 75.870    577.000    555.991     21.009    485.903    545.864    485.903    495.740    486.188
 75.970    567.273    565.774      1.499    485.932    556.212    485.932    495.207    486.207
 76.070    575.849    578.815     -2.966    485.961    569.762    485.961    494.728    486.227
 76.170    603.000    594.896      8.104    485.988    586.304    485.988    494.294    486.246
 76.270    635.000    613.425     21.575    486.014    605.251    486.014    493.901    486.266
 76.370    631.000    633.359     -2.359    486.039    625.565    486.039    493.544    486.286
 76.470    655.687    653.159      2.528    486.063    645.712    486.063    493.218    486.305
 76.570    616.000    670.800    -54.800    486.086    663.674    486.086    492.920    486.325
 76.670    687.940    683.961      3.979    486.108    677.131    486.108    492.646    486.344
 76.770    720.000    690.487     29.513    486.129    683.934    486.129    492.394    486.363
 76.870    657.927    689.107    -31.180    486.149    682.812    486.149    492.161    486.381
 76.970    673.569    679.970     -6.401    486.167    673.916    486.167    491.946    486.399
 77.070    708.794    664.565     44.229    486.185    658.736    486.185    491.746    486.417
 77.170    658.000    645.108     12.892    486.201    639.487    486.201    491.560    486.434
 77.270    615.000    623.851     -8.851    486.217    618.425    486.217    491.386    486.451
 77.370    571.000    602.688    -31.688    486.231    597.442    486.231    491.224    486.467
 77.470    599.000    583.005     15.995    486.244    577.925    486.244    491.073    486.483
 77.570    561.000    565.685     -4.685    486.256    560.759    486.256    490.931    486.499
 77.670    514.180    551.156    -36.976    486.266    546.373    486.266    490.797    486.514
 77.770    547.000    539.479      7.521    486.276    534.828    486.276    490.671    486.529
 77.870    519.072    530.445    -11.373    486.284    525.917    486.284    490.552    486.544
 77.970    558.182    523.684     34.497    486.291    519.269    486.291    490.440    486.558
 78.070    521.000    518.762      2.238    486.297    514.451    486.297    490.334    486.573
 78.170    517.000    515.248      1.752    486.302    511.034    486.302    490.233    486.587
 78.270    472.000    512.769    -40.769    486.306    508.643    486.306    490.138    486.601
 78.370    497.000    511.023    -14.023    486.308    506.979    486.308    490.047    486.615
 78.470    553.000    509.787     43.213    486.309    505.819    486.309    489.960    486.629
 78.570    499.000    508.907     -9.907    486.309    505.006    486.309    489.877    486.644
 78.670    530.000    508.280     21.720    486.308    504.441    486.308    489.798    486.658
 78.770    515.000    507.845      7.155    486.305    504.061    486.305    489.722    486.674
 78.870    494.000    507.570    -13.570    486.301    503.836    486.301    489.650    486.689
 78.970    533.828    507.444     26.384    486.296    503.754    486.296    489.580    486.705
 79.070    505.000    507.468     -2.468    486.290    503.815    486.290    489.513    486.722
 79.170    527.823    507.656     20.167    486.282    504.035    486.282    489.448    486.740
 79.270    464.791    508.029    -43.238    486.273    504.433    486.273    489.385    486.758
 79.370    529.000    508.614     20.386    486.263    505.039    486.263    489.325    486.777
 79.470    535.000    509.448     25.552    486.251    505.889    486.251    489.267    486.796
 79.570    542.949    510.577     32.372    486.238    507.028    486.238    489.210    486.817
 79.670    555.452    512.060     43.392    486.224    508.516    486.224    489.155    486.838
 79.770    508.939    513.975     -5.036    486.208    510.431    486.208    489.101    486.860
 79.870    509.000    516.431     -7.431    486.191    512.883    486.191    489.048    486.882
 79.970    513.000    519.571     -6.571    486.173    516.017    486.173    488.997    486.904
 80.070    522.899    523.585     -0.686    486.154    520.021    486.154    488.946    486.925
 80.170    526.000    528.708     -2.708    486.133    525.131    486.133    488.896    486.945
 80.270    500.868    535.223    -34.355    486.110    531.634    486.110    488.846    486.964
 80.370    560.266    543.460     16.806    486.087    539.860    486.087    488.796    486.979
 80.470    541.013    553.767    -12.755    486.062    550.157    486.062    488.746    486.990
 80.570    575.000    566.454      8.546    486.036    562.838    486.036    488.695    486.996
 80.670    586.000    581.702      4.298    486.008    578.085    486.008    488.644    486.996
 80.770    593.920    599.462     -5.542    485.979    595.851    485.979    488.591    486.989
 80.870    601.000    619.372    -18.372    485.948    615.775    485.948    488.537    486.972
 80.970    598.000    640.730    -42.730    485.916    637.156    485.916    488.482    486.947
 81.070    627.835    662.576    -34.741    485.883    659.034    485.883    488.424    486.912
 81.170    645.000    683.643    -38.643    485.848    680.142    485.848    488.365    486.868
 81.270    703.000    702.646      0.354    485.812    699.194    485.812    488.304    486.815
 81.370    639.000    718.439    -79.439    485.774    715.043    485.774    488.242    486.753
 81.470    656.000    730.118    -74.118    485.735    726.784    485.735    488.178    486.684
 81.570    743.000    737.090      5.910    485.695    733.823    485.695    488.112    486.609
 81.670    698.878    739.129    -40.250    485.653    735.930    485.653    488.046    486.529
 81.770    703.000    736.354    -33.354    485.610    733.224    485.610    487.978    486.445
 81.870    681.000    729.132    -48.132    485.565    726.070    485.565    487.910    486.358
 81.970    701.000    718.001    -17.001    485.519    715.006    485.519    487.841    486.269
 82.070    667.000    703.716    -36.716    485.471    700.785    485.471    487.772    486.179
 82.170    665.000    687.253    -22.253    485.422    684.382    485.422    487.702    486.089
 82.270    676.793    669.665      7.128    485.371    666.851    485.371    487.632    485.998
 82.370    678.607    651.850     26.757    485.319    649.090    485.319    487.561    485.907
 82.470    623.000    634.417    -11.417    485.266    631.706    485.266    487.490    485.817
 82.570    607.000    617.718    -10.718    485.211    615.053    485.211    487.419    485.727
 82.670    634.256    601.988     32.268    485.154    599.365    485.154    487.347    485.638
 82.770    578.000    587.466     -9.466    485.096    584.881    485.096    487.275    485.550
 82.870    552.702    574.426    -21.724    485.037    571.877    485.037    487.203    485.462
 82.970    551.000    563.142    -12.142    484.976    560.623    484.976    487.130    485.374
 83.070    500.000    553.833    -53.833    484.914    551.343    484.914    487.057    485.287
 83.170    535.000    546.650    -11.650    484.850    544.184    484.850    486.984    485.200
 83.270    569.365    541.657     27.707    484.784    539.214    484.784    486.910    485.113
 83.370    520.335    538.836    -18.501    484.717    536.412    484.717    486.835    485.027
 83.470    527.910    538.073    -10.163    484.649    535.666    484.649    486.760    484.940
 83.570    498.938    539.155    -40.217    484.579    536.762    484.579    486.684    484.853
 83.670    550.000    541.764      8.236    484.507    539.384    484.507    486.608    484.767
 83.770    534.000    545.481    -11.481    484.434    543.112    484.434    486.530    484.679
 83.870    529.000    549.791    -20.791    484.360    547.431    484.360    486.453    484.592
 83.970    534.000    554.100    -20.100    484.284    551.749    484.284    486.374    484.504
 84.070    543.818    557.770    -13.952    484.206    555.428    484.206    486.295    484.415
 84.170    533.000    560.183    -27.183    484.127    557.849    484.127    486.215    484.326
 84.270    559.000    560.851     -1.851    484.046    558.527    484.046    486.135    484.236
 84.370    512.712    559.545    -46.833    483.964    557.231    483.964    486.053    484.145
 84.470    514.000    556.344    -42.344    483.880    554.040    483.880    485.971    484.053
 84.570    562.146    551.597     10.548    483.795    549.304    483.795    485.888    483.961
 84.670    500.468    545.797    -45.330    483.708    543.513    483.708    485.804    483.867
 84.770    505.000    539.461    -34.461    483.620    537.184    483.620    485.719    483.772
 84.870    535.000    533.052      1.948    483.530    530.782    483.530    485.634    483.677
 84.970    503.791    526.944    -23.153    483.439    524.679    483.439    485.547    483.580
 85.070    556.000    521.408     34.592    483.346    519.146    483.346    485.460    483.482
 85.170    524.000    516.613      7.387    483.251    514.353    483.251    485.372    483.382
 85.270    481.333    512.636    -31.303    483.155    510.376    483.155    485.283    483.282
 85.370    501.000    509.480     -8.480    483.058    507.218    483.058    485.193    483.180
 85.470    520.725    507.093     13.631    482.958    504.827    482.958    485.103    483.077
 85.570    501.000    505.394     -4.394    482.858    503.123    482.858    485.011    482.972
 85.670    520.000    504.293     15.707    482.755    502.016    482.755    484.919    482.867
 85.770    507.000    503.708      3.292    482.651    501.423    482.651    484.826    482.760
 85.870    540.420    503.578     36.842    482.546    501.284    482.546    484.732    482.651
 85.970    484.000    503.874    -19.874    482.439    501.570    482.439    484.637    482.541
 86.070    457.000    504.598    -47.598    482.331    502.282    482.331    484.542    482.430
 86.170    531.000    505.790     25.210    482.221    503.461    482.221    484.446    482.317
 86.270    488.482    507.521    -19.038    482.109    505.177    482.109    484.349    482.203
 86.370    501.000    509.890     -8.890    481.996    507.531    481.996    484.251    482.088
 86.470    526.000    513.018     12.982    481.881    510.640    481.881    484.152    481.971
 86.570    509.000    517.030     -8.030    481.765    514.632    481.765    484.053    481.853
 86.670    491.000    522.044    -31.044    481.647    519.624    481.647    483.954    481.733
 86.770    528.750    528.149      0.601    481.528    525.704    481.528    483.853    481.612
 86.870    564.000    535.380     28.620    481.407    532.909    481.407    483.752    481.489
 86.970    541.000    543.695     -2.695    481.284    541.196    481.284    483.651    481.365
 87.070    576.201    552.947     23.255    481.160    550.417    481.160    483.548    481.240
 87.170    603.000    562.863     40.137    481.034    560.301    481.034    483.446    481.113
 87.270    556.105    573.034    -16.929    480.907    570.440    480.907    483.343    480.984
 87.370    597.000    582.912     14.088    480.779    580.285    480.779    483.239    480.854
 87.470    552.213    591.822    -39.609    480.648    589.163    480.648    483.135    480.723
 87.570    598.512    599.027     -0.515    480.517    596.337    480.517    483.031    480.590
 87.670    643.000    603.839     39.161    480.383    601.120    480.383    482.927    480.455
 87.770    667.000    605.782     61.218    480.248    603.037    480.248    482.822    480.320
 87.870    618.000    604.740     13.260    480.112    601.970    480.112    482.718    480.182
 87.970    623.000    600.988     22.012    479.974    598.195    479.974    482.613    480.044
 88.070    609.266    595.111     14.156    479.835    592.295    479.835    482.508    479.903
 88.170    538.916    587.859    -48.943    479.694    585.019    479.694    482.404    479.762
 88.270    537.983    580.021    -42.038    479.551    577.156    479.551    482.299    479.619
 88.370    542.186    572.343    -30.158    479.407    569.451    479.407    482.195    479.474
 88.470    544.220    565.482    -21.263    479.262    562.560    479.262    482.092    479.328
 88.570    553.044    559.965     -6.921    479.115    557.009    479.115    481.989    479.180
 88.670    556.000    556.163     -0.163    478.966    553.172    478.966    481.886    479.031
 88.770    578.518    554.284     24.235    478.816    551.253    478.816    481.785    478.881
 88.870    562.000    554.358      7.642    478.664    551.286    478.664    481.685    478.729
 88.970    554.577    556.259     -1.682    478.511    553.141    478.511    481.586    478.576
 89.070    510.157    559.702    -49.545    478.356    556.535    478.356    481.488    478.421
 89.170    590.000    564.267     25.733    478.200    561.048    478.200    481.392    478.265
 89.270    615.000    569.422     45.578    478.043    566.147    478.043    481.298    478.107
 89.370    634.000    574.544     59.456    477.884    571.209    477.884    481.206    477.948
 89.470    608.000    578.966     29.034    477.723    575.565    477.723    481.116    477.788
 89.570    601.817    582.040     19.777    477.561    578.569    477.561    481.030    477.626
 89.670    576.000    583.243     -7.243    477.397    579.695    477.397    480.946    477.463
 89.770    571.000    582.283    -11.283    477.232    578.652    477.232    480.866    477.299
 89.870    580.000    579.164      0.836    477.066    575.441    477.066    480.790    477.133
 89.970    581.608    574.164      7.443    476.898    570.342    476.898    480.719    476.965
 90.070    590.000    567.742     22.258    476.729    563.812    476.729    480.652    476.797
 90.170    576.367    560.423     15.944    476.558    556.378    476.558    480.591    476.627
 90.270    528.770    552.718    -23.949    476.385    548.549    476.385    480.535    476.456
 90.370    581.127    545.070     36.057    476.212    540.768    476.212    480.487    476.283
 90.470    535.000    537.832     -2.832    476.036    533.389    476.036    480.445    476.109
 90.570    536.000    531.265      4.735    475.860    526.672    475.860    480.411    475.934
 90.670    506.000    525.538    -19.538    475.682    520.785    475.682    480.386    475.758
 90.770    496.000    520.733    -24.733    475.502    515.810    475.502    480.370    475.580
 90.870    508.000    516.866     -8.866    475.322    511.762    475.322    480.364    475.402
 90.970    559.000    513.901     45.099    475.139    508.604    475.139    480.369    475.222
 91.070    470.077    511.766    -41.690    474.956    506.264    474.956    480.385    475.040
 91.170    498.000    510.380    -12.380    474.771    504.659    474.771    480.414    474.858
 91.270    515.000    509.660      5.340    474.584    503.707    474.584    480.455    474.675
 91.370    496.651    509.545    -12.893    474.396    503.344    474.396    480.510    474.490
 91.470    476.000    509.995    -33.995    474.207    503.530    474.207    480.580    474.304
 91.570    523.000    511.007     11.993    474.017    504.262    474.017    480.664    474.118
 91.670    518.751    512.614      6.136    473.825    505.572    473.825    480.765    473.930
 91.770    473.000    514.887    -41.887    473.632    507.528    473.632    480.881    473.741
 91.870    529.000    517.930     11.070    473.437    510.237    473.437    481.015    473.551
 91.970    545.957    521.880     24.078    473.241    513.834    473.241    481.165    473.360
 92.070    557.136    526.895     30.242    473.044    518.478    473.044    481.331    473.168
 92.170    520.000    533.145    -13.145    472.846    524.338    472.846    481.514    472.975
 92.270    557.244    540.796     16.448    472.646    531.581    472.646    481.713    472.781
 92.370    562.000    549.994     12.006    472.445    540.354    472.445    481.926    472.586
 92.470    538.000    560.847    -22.847    472.242    550.768    472.242    482.152    472.389
 92.570    588.000    573.406     14.594    472.039    562.874    472.039    482.389    472.192
 92.670    626.746    587.646     39.100    471.834    576.652    471.834    482.633    471.994
 92.770    581.655    603.452    -21.797    471.628    591.992    471.628    482.880    471.794
 92.870    638.520    620.607     17.913    471.420    608.681    471.420    483.126    471.593
 92.970    661.000    638.778     22.222    471.211    626.392    471.211    483.364    471.391
 93.070    614.000    657.504    -43.504    471.002    644.673    471.002    483.589    471.187
 93.170    683.000    676.288      6.712    470.790    663.033    470.790    483.791    470.982
 93.270    678.000    694.550    -16.550    470.578    680.902    470.578    483.964    470.775
 93.370    749.000    711.772     37.228    470.365    697.769    470.365    484.098    470.566
 93.470    686.000    727.607    -41.607    470.150    713.297    470.150    484.186    470.356
 93.570    760.377    741.950     18.428    469.934    727.389    469.934    484.219    470.143
 93.670    771.000    754.928     16.072    469.717    740.176    469.717    484.192    469.928
 93.770    856.000    766.807     89.193    469.499    751.931    469.499    484.100    469.711
 93.870    807.000    777.874     29.126    469.279    762.940    469.279    483.941    469.491
 93.970    799.000    788.343     10.657    469.059    773.419    469.059    483.714    469.269
 94.070    751.648    798.346    -46.697    468.837    783.497    468.837    483.422    469.045
 94.170    857.000    807.985     49.015    468.615    793.273    468.615    483.070    468.819
 94.270    826.000    817.402      8.598    468.391    802.880    468.391    482.663    468.591
 94.370    868.710    826.782     41.929    468.166    812.496    468.166    482.210    468.361
 94.470    869.000    836.273     32.727    467.940    822.261    467.940    481.718    468.130
 94.570    842.000    845.846     -3.846    467.713    832.137    467.713    481.198    467.896
 94.670    810.000    855.196    -45.196    467.485    841.812    467.485    480.656    467.662
 94.770    927.000    863.668     63.332    467.256    850.621    467.256    480.101    467.426
 94.870    920.000    870.305     49.695    467.026    857.601    467.026    479.540    467.189
 94.970    865.000    873.960     -8.960    466.795    861.599    466.795    478.979    466.951
 95.070    909.000    873.494     35.506    466.563    861.470    466.563    478.424    466.711
 95.170    866.000    868.035     -2.035    466.329    856.338    466.329    477.878    466.472
 95.270    855.789    857.228     -1.439    466.095    845.844    466.095    477.346    466.231
 95.370    864.995    841.375     23.620    465.860    830.286    465.860    476.829    465.989
 95.470    845.766    821.395     24.371    465.625    810.581    465.625    476.331    465.747
 95.570    800.000    798.651      1.349    465.388    788.089    465.388    475.852    465.504
 95.670    822.000    774.736     47.264    465.150    764.402    465.150    475.394    465.261
 95.770    817.000    751.299     65.701    464.911    741.170    464.911    474.957    465.017
 95.870    766.000    729.942     36.058    464.672    719.992    464.672    474.542    464.772
 95.970    750.000    712.152     37.848    464.431    702.357    464.431    474.149    464.527
 96.070    693.000    699.267     -6.267    464.190    689.602    464.190    473.778    464.281
 96.170    728.000    692.453     35.547    463.948    682.894    463.948    473.430    464.035
 96.270    734.000    692.676     41.324    463.705    683.197    463.705    473.104    463.788
 96.370    702.000    700.715      1.285    463.461    691.293    463.461    472.801    463.541
 96.470    683.867    717.229    -33.362    463.217    707.839    463.217    472.519    463.293
 96.570    751.000    742.525      8.475    462.972    733.145    462.972    472.260    463.044
 96.670    787.000    776.729     10.271    462.726    767.334    462.726    472.023    462.795
 96.770    840.000    819.649     20.351    462.479    810.217    462.479    471.809    462.546
 96.870    819.439    870.761    -51.322    462.231    861.269    462.231    471.618    462.296
 96.970    902.926    929.146    -26.220    461.983    919.571    461.983    471.449    462.045
 97.070   1020.000    993.437     26.563    461.734    983.756    461.734    471.304    461.794
 97.170   1039.000   1061.776    -22.776    461.485   1051.966    461.485    471.183    461.542
 97.270   1149.000   1131.794     17.206    461.235   1121.833    461.235    471.087    461.290
 97.370   1230.884   1200.617     30.267    460.984   1190.482    460.984    471.017    461.038
 97.470   1271.052   1264.924      6.128    460.732   1254.590    460.732    470.973    460.785
 97.570   1348.000   1321.101     26.899    460.480   1310.543    460.480    470.958    460.531
 97.670   1366.000   1365.548      0.452    460.228   1354.740    460.228    470.971    460.277
 97.770   1424.000   1395.146     28.854    459.975   1384.058    459.975    471.015    460.023
 97.870   1453.000   1407.797     45.203    459.721   1396.399    459.721    471.092    459.768
 97.970   1364.000   1402.856    -38.856    459.467   1391.112    459.467    471.203    459.512
 98.070   1380.280   1381.241     -0.961    459.212   1369.112    459.212    471.350    459.257
 98.170   1320.565   1345.192    -24.627    458.957   1332.637    458.957    471.536    459.000
 98.270   1309.000   1297.810     11.190    458.701   1284.784    458.701    471.763    458.744
 98.370   1302.805   1242.578     60.227    458.445   1229.033    458.445    472.032    458.487
 98.470   1195.670   1183.007     12.663    458.188   1168.894    458.188    472.348    458.230
 98.570   1104.000   1122.406    -18.406    457.931   1107.671    457.931    472.711    457.972
 98.670   1089.000   1063.759     25.241    457.674   1048.350    457.674    473.126    457.714
 98.770   1038.000   1009.675     28.325    457.416    993.534    457.416    473.594    457.456
 98.870    953.000    962.374     -9.374    457.158    945.443    457.158    474.119    457.197
 98.970    917.000    923.700     -6.700    456.900    905.919    456.900    474.702    456.939
 99.070    859.000    895.145    -36.145    456.641    876.452    456.641    475.347    456.680
 99.170    816.000    877.862    -61.862    456.382    858.193    456.382    476.056    456.420
 99.270    917.000    872.690     44.310    456.123    851.979    456.123    476.830    456.161
 99.370    871.524    880.165     -8.641    455.863    858.346    455.863    477.673    455.901
 99.470    889.945    900.543    -10.599    455.604    877.549    455.604    478.584    455.641
 99.570    936.657    933.800      2.857    455.344    909.562    455.344    479.565    455.381
 99.670    990.000    979.618     10.382    455.084    954.068    455.084    480.615    455.121
 99.770   1013.000   1037.380    -24.380    454.823   1010.453    454.823    481.734    454.861
 99.870   1118.001   1106.159     11.842    454.563   1077.789    454.563    482.920    454.601
 99.970   1202.000   1184.597     17.403    454.303   1154.726    454.303    484.170    454.340
100.070   1263.000   1270.929     -7.929    454.042   1239.501    454.042    485.478    454.080
100.170   1318.000   1362.929    -44.929    453.782   1329.895    453.782    486.838    453.820
100.270   1503.000   1457.905     45.095    453.521   1423.228    453.521    488.240    453.559
100.370   1577.000   1552.762     24.238    453.260   1516.414    453.260    489.671    453.299
100.470   1716.739   1644.142     72.596    453.000   1606.112    453.000    491.117    453.038
100.570   1705.000   1728.681    -23.681    452.739   1688.974    452.739    492.560    452.778
100.670   1785.437   1803.308    -17.871    452.479   1761.951    452.479    493.976    452.518
100.770   1904.441   1865.493     38.947    452.218   1822.536    452.218    495.341    452.258
100.870   1909.000   1913.343     -4.343    451.958   1868.865    451.958    496.626    451.997
100.970   1985.000   1945.514     39.486    451.698   1899.623    451.698    497.801    451.737
101.070   1904.000   1961.076    -57.076    451.438   1913.912    451.438    498.832    451.478
101.170   1970.210   1959.466     10.744    451.178   1911.200    451.178    499.687    451.218
101.270   1905.627   1940.636    -35.009    450.918   1891.470    450.918    500.337    450.958
101.370   1885.000   1905.345    -20.345    450.659   1855.505    450.659    500.755    450.699
101.470   1841.941   1855.389    -13.448    450.400   1805.124    450.400    500.921    450.440
101.570   1837.000   1793.618     43.382    450.141   1743.188    450.141    500.822    450.181
101.670   1735.000   1723.648     11.352    449.883   1673.320    449.883    500.452    449.922
101.770   1670.000   1649.396     20.604    449.624   1599.432    449.624    499.818    449.664
101.870   1574.000   1574.602     -0.602    449.367   1525.252    449.367    498.930    449.405
101.970   1479.000   1502.473    -23.473    449.109   1453.967    449.109    497.811    449.147
102.070   1416.000   1435.484    -19.484    448.852   1388.028    448.852    496.487    448.890
102.170   1387.000   1375.305     11.695    448.596   1329.077    448.596    494.987    448.633
102.270   1300.000   1322.807    -22.807    448.340   1277.950    448.340    493.344    448.376
102.370   1280.000   1278.105      1.895    448.084   1234.732    448.084    491.591    448.120
102.470   1252.000   1240.628     11.372    447.829   1198.823    447.829    489.757    447.864
102.570   1184.554   1209.217    -24.663    447.575   1169.034    447.575    487.873    447.609
102.670   1194.162   1182.247     11.915    447.321   1143.713    447.321    485.963    447.355
102.770   1138.000   1157.800    -19.800    447.068   1120.922    447.068    484.049    447.101
102.870   1163.000   1133.903     29.097    446.815   1098.668    446.815    482.151    446.848
102.970   1106.000   1108.791     -2.791    446.564   1075.171    446.564    480.283    446.595
103.070   1104.878   1081.139     23.739    446.312   1049.092    446.312    478.458    446.343
103.170    995.000   1050.229    -55.229    446.062   1019.703    446.062    476.685    446.092
103.270   1061.286   1015.968     45.318    445.812    986.904    445.812    474.972    445.842
103.370    986.000    978.778      7.222    445.564    951.112    445.564    473.322    445.593
103.470    951.000    939.424     11.576    445.316    913.087    445.316    471.741    445.344
103.570    932.000    898.838     33.162    445.069    873.761    445.069    470.229    445.097
103.670    806.827    857.986    -51.159    444.822    834.098    444.822    468.788    444.850
103.770    826.000    817.780      8.220    444.577    795.010    444.577    467.417    444.604
103.870    779.000    779.022     -0.022    444.333    757.301    444.333    466.116    444.359
103.970    793.000    742.374     50.626    444.090    721.635    444.090    464.884    444.116
104.070    752.000    708.402     43.598    443.847    688.579    443.847    463.718    443.873
104.170    683.000    677.460      5.540    443.606    658.490    443.606    462.618    443.631
104.270    696.000    649.765     46.235    443.366    631.586    443.366    461.579    443.391
104.370    629.000    625.394      3.606    443.127    607.949    443.127    460.600    443.151
104.470    638.000    604.301     33.699    442.889    587.534    442.889    459.679    442.913
104.570    584.000    586.341     -2.341    442.652    570.199    442.652    458.811    442.676
104.670    576.000    571.292      4.708    442.417    555.727    442.417    457.996    442.440
104.770    573.000    558.889     14.111    442.183    543.852    442.183    457.229    442.206
104.870    592.000    548.842     43.158    441.950    534.289    441.950    456.508    441.973
104.970    521.941    540.863    -18.923    441.718    526.754    441.718    455.830    441.741
105.070    547.403    534.683     12.721    441.488    520.977    441.488    455.194    441.510
105.170    569.841    530.060     39.781    441.259    516.722    441.259    454.595    441.281
105.270    488.630    526.793    -38.163    441.031    513.788    441.031    454.033    441.054
105.370    534.407    524.722      9.686    440.805    512.017    440.805    453.504    440.828
105.470    530.000    523.728      6.272    440.581    511.295    440.581    453.006    440.603
105.570    543.000    523.736     19.264    440.358    511.546    440.358    452.539    440.380
105.670    543.000    524.704     18.296    440.137    512.731    440.137    452.098    440.158
105.770    493.000    526.621    -33.621    439.917    514.841    439.917    451.684    439.939
105.870    517.964    529.502    -11.538    439.699    517.892    439.699    451.294    439.720
105.970    562.970    533.379     29.591    439.482    521.917    439.482    450.927    439.504
106.070    548.000    538.293      9.707    439.268    526.958    439.268    450.582    439.289
106.170    534.000    544.282    -10.282    439.055    533.057    439.055    450.257    439.076
106.270    608.000    551.375     56.625    438.843    540.241    438.843    449.952    438.865
106.370    584.480    559.576     24.904    438.634    548.518    438.634    449.664    438.655
106.470    614.000    568.857     45.143    438.426    557.858    438.426    449.395    438.448
106.570    558.686    579.146    -20.460    438.221    568.192    438.221    449.142    438.242
106.670    576.000    590.325    -14.325    438.017    579.401    438.017    448.906    438.038
106.770    624.000    602.223     21.777    437.816    591.315    437.816    448.685    437.837
106.870    615.000    614.616      0.384    437.616    603.712    437.616    448.479    437.637
106.970    634.000    627.231      6.769    437.418    616.318    437.418    448.288    437.439
107.070    614.031    639.746    -25.715    437.223    628.812    437.223    448.112    437.244
107.170    666.424    651.804     14.620    437.029    640.838    437.029    447.950    437.051
107.270    636.000    663.025    -27.025    436.838    652.015    436.838    447.802    436.859
107.370    674.000    673.032      0.968    436.649    661.968    436.649    447.668    436.670
107.470    634.000    681.490    -47.490    436.462    670.361    436.462    447.548    436.484
107.570    674.760    688.152    -13.392    436.278    676.947    436.278    447.442    436.299
107.670    744.542    692.898     51.643    436.096    681.606    436.096    447.350    436.117
107.770    710.317    695.768     14.549    435.916    684.378    435.916    447.272    435.938
107.870    666.000    696.957    -30.957    435.739    685.457    435.739    447.209    435.760
107.970    705.099    696.786      8.314    435.564    685.164    435.564    447.160    435.586
108.070    721.180    695.652     25.528    435.392    683.896    435.392    447.127    435.413
108.170    671.000    693.974    -22.974    435.222    682.071    435.222    447.108    435.244
108.270    726.989    692.141     34.848    435.055    680.078    435.055    447.106    435.077
108.370    639.230    690.479    -51.250    434.890    678.242    434.890    447.119    434.912
108.470    643.000    689.227    -46.227    434.728    676.802    434.728    447.150    434.750
108.570    703.747    688.526     15.221    434.569    675.897    434.569    447.198    434.591
108.670    735.334    688.409     46.925    434.413    675.562    434.413    447.263    434.435
108.770    660.000    688.804    -28.804    434.259    675.722    434.259    447.348    434.282
108.870    692.000    689.536      2.464    434.108    676.203    434.108    447.452    434.131
108.970    682.000    690.339     -8.339    433.960    676.737    433.960    447.577    433.983
109.070    705.418    690.876     14.542    433.816    676.985    433.816    447.724    433.838
109.170    685.000    690.765     -5.765    433.674    676.566    433.674    447.893    433.697
109.270    679.749    689.637     -9.888    433.535    675.109    433.535    448.086    433.558
109.370    661.000    687.172    -26.172    433.399    672.293    433.399    448.305    433.422
109.470    708.849    683.150     25.699    433.266    667.895    433.266    448.550    433.290
109.570    673.080    677.487     -4.407    433.137    661.830    433.137    448.823    433.160
109.670    706.000    670.241     35.759    433.010    654.156    433.010    449.125    433.034
109.770    649.000    661.595    -12.595    432.887    645.053    432.887    449.460    432.912
109.870    609.001    651.820    -42.819    432.767    634.789    432.767    449.828    432.792
109.970    673.404    641.235     32.169    432.651    623.684    432.651    450.231    432.676
110.070    664.000    630.174     33.826    432.538    612.067    432.538    450.672    432.563
110.170    616.000    618.956     -2.956    432.428    600.257    432.428    451.153    432.454
110.270    597.128    607.867    -10.740    432.322    588.537    432.322    451.676    432.348
110.370    633.000    597.186     35.814    432.219    577.182    432.219    452.244    432.246
110.470    586.000    587.121     -1.121    432.120    566.401    432.120    452.859    432.147
110.570    622.000    577.847     44.153    432.025    556.363    432.025    453.525    432.052
110.670    557.974    569.498    -11.524    431.933    547.200    431.933    454.244    431.961
110.770    559.402    562.165     -2.763    431.846    539.001    431.846    455.020    431.874
110.870    570.000    555.899     14.101    431.761    531.814    431.761    455.855    431.790
110.970    544.053    550.719     -6.666    431.681    525.653    431.681    456.754    431.710
111.070    567.000    546.611     20.389    431.605    520.501    431.605    457.718    431.634
111.170    553.000    543.535      9.465    431.532    516.317    431.532    458.753    431.562
111.270    552.469    541.436     11.033    431.464    513.039    431.464    459.860    431.494
111.370    522.645    540.240    -17.595    431.399    510.593    431.399    461.045    431.430
111.470    535.000    539.871     -4.871    431.339    508.897    431.339    462.309    431.371
111.570    509.857    540.244    -30.387    431.283    507.864    431.283    463.658    431.315
111.670    532.000    541.280     -9.280    431.231    507.409    431.231    465.095    431.264
111.770    586.754    542.900     43.854    431.183    507.454    431.183    466.622    431.217
111.870    534.280    545.035    -10.755    431.139    507.922    431.139    468.243    431.174
111.970    531.000    547.620    -16.620    431.100    508.748    431.100    469.962    431.136
112.070    560.937    550.604     10.333    431.065    509.877    431.065    471.782    431.102
112.170    547.000    553.945     -6.945    431.035    511.264    431.035    473.704    431.073
112.270    573.070    557.610     15.461    431.009    512.875    431.009    475.731    431.048
112.370    557.785    561.579     -3.795    430.988    514.688    430.988    477.865    431.028
112.470    531.667    565.846    -34.179    430.971    516.695    430.971    480.108    431.012
112.570    562.121    570.414     -8.294    430.959    518.899    430.959    482.460    431.001
112.670    562.269    575.300    -13.031    430.952    521.316    430.952    484.921    430.995
112.770    603.016    580.531     22.486    430.950    523.974    430.950    487.490    430.994
112.870    531.000    586.146    -55.146    430.952    526.915    430.952    490.165    430.998
112.970    561.000    592.198    -31.198    430.959    530.195    430.959    492.943    431.006
113.070    585.000    598.754    -13.754    430.971    533.887    430.971    495.819    431.020
113.170    567.269    605.904    -38.635    430.989    538.085    430.989    498.788    431.039
113.270    612.281    613.761     -1.480    431.011    542.911    431.011    501.839    431.062
113.370    625.000    622.473      2.527    431.038    548.523    431.038    504.965    431.091
113.470    599.000    632.229    -33.229    431.071    555.124    431.071    508.150    431.125
113.570    638.000    643.275     -5.275    431.108    562.976    431.108    511.380    431.165
113.670    654.659    655.925     -1.266    431.151    572.409    431.151    514.637    431.209
113.770    627.000    670.578    -43.578    431.200    583.846    431.200    517.898    431.259
113.870    648.000    687.736    -39.736    431.254    597.815    431.254    521.138    431.315
113.970    686.000    708.027    -22.027    431.313    614.968    431.313    524.329    431.375
114.070    681.116    732.217    -51.101    431.378    636.107    431.378    527.440    431.442
114.170    752.000    761.240     -9.240    431.448    662.198    431.448    530.435    431.514
114.270    816.822    796.207     20.615    431.524    694.390    431.524    533.277    431.591
114.370    809.162    838.423    -29.261    431.606    734.026    431.606    535.928    431.674
114.470    865.471    889.393    -23.923    431.693    782.651    431.693    538.349    431.763
114.570    960.000    950.818      9.182    431.786    842.004    431.786    540.500    431.857
114.670    957.000   1024.579    -67.579    431.885    914.001    431.885    542.346    431.958
114.770   1087.776   1112.706    -24.930    431.990   1000.708    431.990    543.852    432.064
114.870   1218.000   1217.332      0.668    432.101   1104.283    432.101    544.992    432.176
114.970   1367.752   1340.623     27.129    432.218   1226.916    432.218    545.743    432.293
115.070   1491.000   1484.692      6.308    432.341   1370.732    432.341    546.093    432.417
115.170   1730.000   1651.495     78.505    432.471   1537.691    432.471    546.037    432.547
115.270   1941.000   1842.702     98.298    432.606   1729.463    432.606    545.578    432.683
115.370   2114.844   2059.568     55.276    432.748   1947.288    432.748    544.729    432.825
115.470   2338.026   2302.784     35.242    432.897   2191.840    432.897    543.510    432.973
115.570   2627.000   2572.314     54.686    433.051   2463.055    433.051    541.949    433.128
115.670   2987.000   2867.368    119.632    433.212   2760.113    433.212    540.077    433.288
115.770   3231.000   3186.173     44.827    433.380   3081.206    433.380    537.931    433.456
115.870   3425.000   3525.891   -100.891    433.555   3423.460    433.555    535.551    433.630
115.970   3989.000   3882.617    106.383    433.736   3782.929    433.736    532.974    433.810
116.070   4226.000   4251.338    -25.338    433.923   4154.566    433.923    530.241    433.998
116.170   4652.000   4625.958     26.042    434.118   4532.236    434.118    527.389    434.192
116.270   5020.000   4999.355     20.645    434.320   4908.786    434.320    524.453    434.393
116.370   5282.000   5363.494    -81.494    434.528   5276.148    434.528    521.464    434.601
116.470   5556.000   5709.591   -153.591    434.743   5625.510    434.743    518.453    434.816
116.570   6226.000   6028.345    197.655    434.966   5947.547    434.966    515.445    435.038
116.670   6214.333   6310.274    -95.942    435.196   6232.755    435.196    512.462    435.267
116.770   6655.189   6546.161    109.028    435.433   6471.895    435.433    509.523    435.503
116.870   6704.000   6727.627    -23.627    435.677   6656.572    435.677    506.645    435.747
116.970   6839.000   6847.788     -8.788    435.928   6779.885    435.928    503.841    435.999
117.070   6928.000   6901.903     26.097    436.187   6837.079    436.187    501.121    436.257
117.170   6846.099   6887.886    -41.787    436.454   6826.056    436.454    498.495    436.524
117.270   6800.907   6806.539     -5.631    436.728   6747.606    436.728    495.968    436.798
117.370   6730.000   6661.451     68.549    437.009   6605.310    437.009    493.547    437.079
117.470   6490.000   6458.589     31.411    437.298   6405.127    437.298    491.234    437.369
117.570   6069.409   6205.687   -136.279    437.595   6154.788    437.595    489.032    437.666
117.670   5935.321   5911.578     23.744    437.900   5863.122    437.900    486.942    437.971
117.770   5494.000   5585.578    -91.578    438.213   5539.445    438.213    484.965    438.285
117.870   5092.000   5236.986   -144.986    438.534   5193.057    438.534    483.099    438.606
117.970   4989.665   4874.706    114.959    438.862   4832.865    438.862    481.344    438.936
118.070   4477.000   4506.973    -29.973    439.199   4467.107    439.199    479.698    439.273
118.170   4174.000   4141.165     32.835    439.544   4103.163    439.544    478.160    439.620
118.270   3797.081   3783.675     13.406    439.897   3747.432    439.897    476.725    439.974
118.370   3555.000   3439.837    115.163    440.259   3405.253    440.259    475.393    440.337
118.470   3153.000   3113.903     39.097    440.629   3080.882    440.629    474.159    440.708
118.570   2815.000   2809.054      5.946    441.008   2777.506    441.008    473.021    441.088
118.670   2493.285   2527.463    -34.178    441.395   2497.302    441.395    471.976    441.477
118.770   2337.470   2270.377     67.094    441.790   2241.523    441.790    471.019    441.875
118.870   2024.000   2038.226    -14.226    442.194   2010.603    442.194    470.148    442.281
118.970   1806.000   1830.748    -24.748    442.607   1804.285    442.607    469.359    442.696
119.070   1620.000   1647.109    -27.109    443.029   1621.740    443.029    468.649    443.121
119.170   1445.000   1486.035    -41.035    443.460   1461.698    443.460    468.014    443.554
119.270   1359.457   1345.928     13.529    443.900   1322.563    443.900    467.451    443.997
119.370   1163.057   1224.979    -61.922    444.349   1202.531    444.349    466.957    444.448
119.470   1171.000   1121.272     49.728    444.807   1099.688    444.807    466.529    444.910
119.570   1060.309   1032.866     27.443    445.274   1012.097    445.274    466.163    445.380
119.670    994.000    957.872     36.128    445.750    937.872    445.750    465.856    445.860
119.770    900.000    894.505      5.495    446.236    875.229    446.236    465.606    446.350
119.870    812.534    841.118    -28.584    446.731    822.526    446.731    465.410    446.849
119.970    774.000    796.232    -22.232    447.236    778.284    447.236    465.265    447.358
120.070    704.440    758.540    -54.099    447.751    741.198    447.751    465.169    447.877
120.170    753.288    726.908     26.380    448.275    710.139    448.275    465.120    448.406
120.270    713.000    700.369     12.631    448.808    684.139    448.808    465.115    448.944
120.370    700.000    678.107     21.893    449.352    662.385    449.352    465.152    449.493
120.470    661.000    659.444      1.556    449.906    644.201    449.906    465.229    450.052
120.570    619.000    643.818    -24.818    450.469    629.026    450.469    465.345    450.621
120.670    626.511    630.771     -4.260    451.043    616.405    451.043    465.497    451.201
120.770    604.000    619.930    -15.930    451.626    605.967    451.626    465.685    451.791
120.870    609.687    610.993     -1.306    452.220    597.410    452.220    465.907    452.391
120.970    564.726    603.714    -38.988    452.825    590.491    452.825    466.160    453.002
121.070    605.000    597.894      7.106    453.439    585.012    453.439    466.445    453.624
121.170    572.000    593.370    -21.370    454.064    580.813    454.064    466.759    454.256
121.270    614.000    590.008     23.992    454.700    577.762    454.700    467.103    454.899
121.370    628.414    587.696     40.717    455.346    575.747    455.346    467.474    455.553
121.470    592.000    586.338      5.662    456.003    574.675    456.003    467.871    456.218
121.570    566.000    585.848    -19.848    456.671    574.462    456.671    468.294    456.894
121.670    593.000    586.149      6.851    457.350    575.035    457.350    468.742    457.581
121.770    587.000    587.168     -0.168    458.040    576.320    458.040    469.215    458.280
121.870    552.003    588.832    -36.829    458.740    578.251    458.740    469.710    458.989
121.970    539.000    591.070    -52.070    459.452    580.756    459.452    470.228    459.710
122.070    603.000    593.806      9.194    460.175    583.764    460.175    470.768    460.442
122.170    583.000    596.961    -13.961    460.909    587.199    460.909    471.329    461.185
122.270    593.637    600.450     -6.813    461.655    590.980    461.655    471.910    461.940
122.370    593.000    604.182    -11.182    462.412    595.021    462.412    472.511    462.706
122.470    621.000    608.063     12.937    463.181    599.229    463.181    473.132    463.484
122.570    616.000    611.990      4.010    463.961    603.507    463.961    473.770    464.273
122.670    586.000    615.856    -29.856    464.753    607.752    464.753    474.426    465.074
122.770    603.000    619.551    -16.551    465.557    611.858    465.557    475.099    465.886
122.870    685.000    622.961     62.039    466.373    615.715    466.373    475.789    466.710
122.970    644.000    625.967     18.033    467.201    619.208    467.201    476.494    467.546
123.070    616.000    628.450    -12.450    468.041    622.222    468.041    477.214    468.393
123.170    643.000    630.371     12.629    468.893    624.720    468.893    477.949    469.252
123.270    612.570    631.625    -19.055    469.757    626.599    469.757    478.697    470.122
123.370    595.047    632.154    -37.107    470.634    627.802    470.634    479.458    471.004
123.470    614.000    631.927    -17.927    471.523    628.298    471.523    480.232    471.897
123.570    585.000    630.939    -45.939    472.424    628.082    472.424    481.018    472.803
123.670    675.353    629.213     46.140    473.339    627.172    473.339    481.815    473.720
123.770    668.594    626.792     41.802    474.265    625.609    474.265    482.624    474.648
123.870    665.000    623.736     41.264    475.205    623.448    475.205    483.444    475.589
123.970    570.698    620.122    -49.423    476.158    620.757    476.158    484.275    476.541
124.070    590.000    616.029    -26.029    477.123    617.609    477.123    485.117    477.505
124.170    631.000    611.547     19.453    478.102    614.080    478.102    485.969    478.482
124.270    591.000    606.762    -15.762    479.093    610.249    479.093    486.833    479.471
124.370    626.000    601.763     24.237    480.098    606.188    480.098    487.708    480.472
124.470    613.000    596.633     16.367    481.117    601.970    481.117    488.594    481.485
124.570    563.000    591.454    -28.454    482.149    597.660    482.149    489.492    482.511
124.670    632.000    586.301     45.699    483.194    593.317    483.194    490.403    483.550
124.770    594.000    581.241     12.759    484.253    588.995    484.253    491.326    484.602
124.870    575.000    576.335     -1.335    485.325    584.739    485.325    492.262    485.668
124.970    626.000    571.636     54.364    486.412    580.589    486.412    493.212    486.746
