neutron_powder_diffraction_0227
R_wp: 3.947
Temperature (K): 1074.100
Counts: 84471.00
Wavelength (Ã…): 2.52098
COMMENTS
Test file for demonstrating the .xyy file format in Reel1.0
END OF HEADER
   tth       Y_obs     Y_calc      Y_res    Background    Phase_1_Nuc    Phase_1_Mag    Phase_2_Nuc    Phase_2_Mag
  9.970    615.000    575.974     39.026    575.387    575.952    575.387    575.409    575.387
 10.070    598.000    576.058     21.942    575.419    576.035    575.419    575.441    575.419
 10.170    649.000    576.139     72.861    575.445    576.117    575.445    575.467    575.445
 10.270    607.000    576.224     30.776    575.465    576.201    575.465    575.488    575.465
 10.370    580.000    576.314      3.686    575.481    576.291    575.481    575.503    575.481
 10.470    587.000    576.411     10.589    575.491    576.388    575.491    575.513    575.491
 10.570    575.729    576.519     -0.789    575.496    576.495    575.496    575.518    575.496
 10.670    595.000    576.641     18.359    575.495    576.618    575.495    575.518    575.495
 10.770    585.921    576.784      9.137    575.489    576.760    575.489    575.512    575.489
 10.870    597.000    576.954     20.046    575.479    576.930    575.479    575.501    575.479
 10.970    576.000    577.163     -1.163    575.463    577.139    575.463    575.486    575.463
 11.070    552.962    577.427    -24.465    575.442    577.402    575.442    575.466    575.442
 11.170    583.000    577.769      5.231    575.416    577.740    575.416    575.443    575.416
 11.270    603.000    578.217     24.783    575.385    578.188    575.385    575.413    575.385
 11.370    573.000    578.832     -5.832    575.350    578.802    575.350    575.377    575.350
 11.470    573.000    579.736     -6.736    575.309    579.706    575.309    575.337    575.309
 11.570    601.000    581.280     19.720    575.264    581.249    575.264    575.292    575.264
 11.670    596.000    584.539     11.461    575.214    584.506    575.214    575.242    575.214
 11.770    656.000    592.254     63.746    575.159    592.216    575.159    575.188    575.159
 11.870    618.000    609.255      8.745    575.100    609.207    575.100    575.129    575.100
 11.970    656.000    639.790     16.210    575.036    639.725    575.036    575.065    575.036
 12.070    689.000    680.292      8.708    574.968    680.204    574.968    574.997    574.968
 12.170    695.000    712.622    -17.622    574.895    712.514    574.895    574.926    574.895
 12.270    697.000    713.605    -16.605    574.818    713.496    574.818    574.849    574.818
 12.370    619.000    682.263    -63.263    574.736    682.172    574.736    574.768    574.736
 12.470    610.706    641.376    -30.670    574.650    641.307    574.650    574.682    574.650
 12.570    633.494    609.930     23.564    574.560    609.878    574.560    574.592    574.560
 12.670    585.000    592.146     -7.146    574.466    592.104    574.466    574.498    574.466
 12.770    585.000    583.948      1.052    574.367    583.910    574.367    574.399    574.367
 12.870    554.000    580.406    -26.406    574.264    580.370    574.264    574.296    574.264
 12.970    563.000    578.665    -15.665    574.157    578.630    574.157    574.190    574.157
 13.070    559.000    577.592    -18.592    574.046    577.557    574.046    574.079    574.046
 13.170    604.000    576.818     27.182    573.931    576.783    573.931    573.964    573.931
 13.270    534.439    576.216    -41.778    573.812    576.181    573.812    573.847    573.812
 13.370    543.000    575.738    -32.738    573.690    575.691    573.690    573.735    573.690
 13.470    563.440    575.328    -11.887    573.563    575.280    573.563    573.610    573.563
 13.570    591.866    574.972     16.894    573.432    574.924    573.432    573.480    573.432
 13.670    562.000    574.657    -12.657    573.298    574.608    573.298    573.346    573.298
 13.770    528.000    574.371    -46.371    573.160    574.323    573.160    573.208    573.160
 13.870    553.529    574.108    -20.579    573.018    574.059    573.018    573.066    573.018
 13.970    607.802    573.862     33.940    572.873    573.812    572.873    572.922    572.873
 14.070    616.373    573.628     42.745    572.724    573.577    572.724    572.773    572.724
 14.170    594.000    573.403     20.597    572.571    573.352    572.571    572.622    572.571
 14.270    590.000    573.191     16.809    572.415    573.134    572.415    572.471    572.415
 14.370    559.000    572.978    -13.978    572.255    572.921    572.255    572.313    572.255
 14.470    597.000    572.769     24.231    572.092    572.711    572.092    572.150    572.092
 14.570    546.000    572.563    -26.563    571.926    572.504    571.926    571.984    571.926
 14.670    588.000    572.358     15.642    571.756    572.299    571.756    571.814    571.756
 14.770    573.000    572.154      0.846    571.583    572.095    571.583    571.642    571.583
 14.870    539.136    571.951    -32.815    571.407    571.891    571.407    571.466    571.407
 14.970    539.000    571.750    -32.750    571.227    571.690    571.227    571.286    571.227
 15.070    561.000    571.547    -10.547    571.044    571.487    571.044    571.104    571.044
 15.170    613.269    571.343     41.926    570.858    571.282    570.858    570.919    570.858
 15.270    547.146    571.137    -23.991    570.669    571.076    570.669    570.730    570.669
 15.370    563.000    570.930     -7.930    570.477    570.869    570.477    570.538    570.477
 15.470    564.000    570.721     -6.721    570.282    570.660    570.282    570.344    570.282
 15.570    558.000    570.511    -12.511    570.084    570.450    570.084    570.146    570.084
 15.670    531.823    570.300    -38.477    569.883    570.238    569.883    569.945    569.883
 15.770    590.000    570.086     19.914    569.680    570.024    569.680    569.742    569.680
 15.870    568.000    569.871     -1.871    569.473    569.808    569.473    569.536    569.473
 15.970    588.000    569.654     18.346    569.263    569.591    569.263    569.326    569.263
 16.070    590.000    569.435     20.565    569.051    569.371    569.051    569.114    569.051
 16.170    606.954    569.214     37.740    568.836    569.150    568.836    568.900    568.836
 16.270    586.075    568.990     17.085    568.618    568.926    568.618    568.683    568.618
 16.370    552.892    568.765    -15.873    568.398    568.701    568.398    568.463    568.398
 16.470    569.661    568.538      1.123    568.175    568.473    568.175    568.240    568.175
 16.570    553.196    568.309    -15.113    567.949    568.243    567.949    568.015    567.949
 16.670    577.000    568.078      8.922    567.721    568.012    567.721    567.787    567.721
 16.770    579.000    567.845     11.155    567.491    567.778    567.491    567.558    567.491
 16.870    541.000    567.614    -26.614    567.257    567.543    567.257    567.328    567.257
 16.970    494.000    567.378    -73.378    567.022    567.307    567.022    567.093    567.022
 17.070    523.000    567.139    -44.139    566.784    567.068    566.784    566.856    566.784
 17.170    588.000    566.899     21.101    566.544    566.826    566.544    566.617    566.544
 17.270    581.000    566.656     14.344    566.301    566.582    566.301    566.375    566.301
 17.370    603.311    566.411     36.901    566.056    566.336    566.056    566.130    566.056
 17.470    541.000    566.164    -25.164    565.809    566.089    565.809    565.884    565.809
 17.570    554.000    565.915    -11.915    565.560    565.839    565.560    565.635    565.560
 17.670    536.679    565.664    -28.986    565.308    565.588    565.308    565.385    565.308
 17.770    556.594    565.414     -8.820    565.055    565.337    565.055    565.131    565.055
 17.870    555.744    565.160     -9.415    564.799    565.082    564.799    564.876    564.799
 17.970    581.375    564.904     16.472    564.541    564.826    564.541    564.619    564.541
 18.070    558.630    564.646     -6.016    564.281    564.567    564.281    564.360    564.281
 18.170    540.000    564.386    -24.386    564.019    564.307    564.019    564.099    564.019
 18.270    522.000    564.124    -42.124    563.756    564.045    563.756    563.835    563.756
 18.370    560.000    563.861     -3.861    563.490    563.781    563.490    563.570    563.490
 18.470    521.879    563.596    -41.718    563.222    563.515    563.222    563.303    563.222
 18.570    557.000    563.330     -6.330    562.953    563.248    562.953    563.034    562.953
 18.670    574.139    563.062     11.077    562.682    562.980    562.682    562.764    562.682
 18.770    553.480    562.793     -9.313    562.409    562.710    562.409    562.491    562.409
 18.870    571.000    562.522      8.478    562.134    562.438    562.134    562.217    562.134
 18.970    541.438    562.250    -20.811    561.857    562.165    561.857    561.942    561.857
 19.070    544.440    561.977    -17.537    561.579    561.890    561.579    561.666    561.579
 19.170    560.000    561.702     -1.702    561.299    561.615    561.299    561.387    561.299
 19.270    531.000    561.426    -30.426    561.018    561.338    561.018    561.106    561.018
 19.370    585.958    561.148     24.810    560.735    561.060    560.735    560.824    560.735
 19.470    527.000    560.869    -33.869    560.450    560.780    560.450    560.540    560.450
 19.570    557.474    560.589     -3.115    560.164    560.499    560.164    560.254    560.164
 19.670    582.474    560.308     22.166    559.876    560.217    559.876    559.967    559.876
 19.770    526.000    560.026    -34.026    559.587    559.934    559.587    559.679    559.587
 19.870    541.869    559.742    -17.873    559.297    559.649    559.297    559.390    559.297
 19.970    543.000    559.457    -16.457    559.005    559.364    559.005    559.099    559.005
 20.070    559.000    559.172     -0.172    558.712    559.077    558.712    558.806    558.712
 20.170    520.431    558.886    -38.455    558.417    558.790    558.417    558.512    558.417
 20.270    572.422    558.599     13.823    558.121    558.503    558.121    558.217    558.121
 20.370    556.274    558.313     -2.039    557.824    558.216    557.824    557.921    557.824
 20.470    562.000    558.038      3.962    557.526    557.940    557.526    557.624    557.526
 20.570    512.000    557.758    -45.758    557.226    557.659    557.226    557.326    557.226
 20.670    524.000    557.474    -33.474    556.925    557.369    556.925    557.030    556.925
 20.770    565.563    557.185      8.377    556.623    557.077    556.623    556.731    556.623
 20.870    576.145    556.895     19.250    556.320    556.786    556.320    556.430    556.320
 20.970    578.000    556.604     21.396    556.016    556.493    556.016    556.127    556.016
 21.070    566.000    556.312      9.688    555.711    556.201    555.711    555.823    555.711
 21.170    528.000    556.021    -28.021    555.405    555.908    555.405    555.518    555.405
 21.270    530.000    555.729    -25.729    555.098    555.615    555.098    555.212    555.098
 21.370    579.000    555.437     23.563    554.790    555.322    554.790    554.905    554.790
 21.470    582.000    555.146     26.854    554.480    555.030    554.480    554.597    554.480
 21.570    537.000    554.855    -17.855    554.170    554.737    554.170    554.288    554.170
 21.670    511.000    554.566    -43.566    553.860    554.447    553.860    553.979    553.860
 21.770    581.120    554.299     26.821    553.548    554.178    553.548    553.668    553.548
 21.870    612.000    554.048     57.952    553.235    553.926    553.235    553.357    553.235
 21.970    539.000    553.849    -14.849    552.922    553.725    552.922    553.045    552.922
 22.070    546.000    553.585     -7.585    552.608    553.460    552.608    552.733    552.608
 22.170    559.007    553.302      5.705    552.293    553.175    552.293    552.419    552.293
 22.270    586.000    553.019     32.981    551.977    552.891    551.977    552.105    551.977
 22.370    587.302    552.740     34.562    551.661    552.610    551.661    551.791    551.661
 22.470    564.000    552.463     11.537    551.344    552.331    551.344    551.476    551.344
 22.570    572.000    552.194     19.806    551.026    552.061    551.026    551.160    551.026
 22.670    584.775    551.970     32.805    550.708    551.835    550.708    550.844    550.708
 22.770    560.726    551.725      9.001    550.390    551.588    550.390    550.527    550.390
 22.870    549.443    551.470     -2.026    550.070    551.331    550.070    550.210    550.070
 22.970    536.000    551.221    -15.221    549.750    551.080    549.750    549.892    549.750
 23.070    594.902    550.984     43.918    549.430    550.840    549.430    549.574    549.430
 23.170    536.649    550.760    -14.111    549.109    550.615    549.109    549.255    549.109
 23.270    533.223    550.549    -17.325    548.788    550.401    548.788    548.936    548.788
 23.370    535.663    550.356    -14.693    548.466    550.206    548.466    548.617    548.466
 23.470    569.000    550.189     18.811    548.144    550.036    548.144    548.297    548.144
 23.570    549.000    550.055     -1.055    547.822    549.900    547.822    547.978    547.822
 23.670    566.000    549.965     16.035    547.499    549.808    547.499    547.658    547.499
 23.770    584.000    549.938     34.062    547.176    549.777    547.176    547.337    547.176
 23.870    504.000    549.997    -45.997    546.852    549.834    546.852    547.017    546.852
 23.970    536.513    550.191    -13.678    546.528    550.025    546.528    546.696    546.528
 24.070    534.000    550.628    -16.628    546.205    550.459    546.205    546.376    546.205
 24.170    554.000    551.633      2.367    545.880    551.461    545.880    546.055    545.880
 24.270    581.000    554.142     26.858    545.556    553.966    545.556    545.737    545.556
 24.370    531.908    560.270    -28.362    545.231    560.094    545.231    545.417    545.231
 24.470    566.000    573.209     -7.209    544.907    573.038    544.907    545.096    544.907
 24.570    596.000    594.836      1.164    544.582    594.677    544.582    544.776    544.582
 24.670    636.000    620.999     15.001    544.257    620.854    544.257    544.455    544.257
 24.770    661.421    638.505     22.916    543.932    638.368    543.932    544.135    543.932
 24.870    620.871    634.186    -13.315    543.606    634.042    543.606    543.815    543.606
 24.970    616.000    611.653      4.347    543.281    611.487    543.281    543.495    543.281
 25.070    551.000    585.642    -34.642    542.956    585.452    542.956    543.176    542.956
 25.170    589.628    566.321     23.307    542.631    566.111    542.631    542.857    542.631
 25.270    564.844    555.384      9.460    542.306    555.159    542.306    542.538    542.306
 25.370    530.410    550.150    -19.739    541.981    549.915    541.981    542.220    541.981
 25.470    575.000    547.716     27.284    541.655    547.472    541.655    541.902    541.655
 25.570    556.000    546.413      9.587    541.330    546.160    541.330    541.585    541.330
 25.670    560.039    545.552     14.486    541.006    545.291    541.006    541.268    541.006
 25.770    537.000    544.899     -7.899    540.681    544.629    540.681    540.953    540.681
 25.870    521.391    544.378    -22.986    540.356    544.097    540.356    540.638    540.356
 25.970    574.000    543.945     30.055    540.032    543.654    540.032    540.324    540.032
 26.070    557.000    543.581     13.419    539.708    543.278    539.708    540.011    539.708
 26.170    501.800    543.277    -41.477    539.384    542.962    539.384    539.699    539.384
 26.270    530.000    543.024    -13.024    539.060    542.695    539.060    539.389    539.060
 26.370    520.000    542.820    -22.820    538.736    542.477    538.736    539.079    538.736
 26.470    517.231    542.667    -25.435    538.413    542.308    538.413    538.772    538.413
 26.570    579.856    542.569     37.287    538.090    542.193    538.090    538.466    538.090
 26.670    517.179    542.556    -25.377    537.768    542.161    537.768    538.162    537.768
 26.770    504.000    542.609    -38.609    537.445    542.193    537.445    537.861    537.445
 26.870    547.044    542.723      4.321    537.124    542.284    537.124    537.562    537.124
 26.970    537.000    542.939     -5.939    536.802    542.474    536.802    537.266    536.802
 27.070    515.389    543.287    -27.897    536.481    542.794    536.481    536.973    536.481
 27.170    536.000    543.809     -7.809    536.160    543.284    536.160    536.684    536.160
 27.270    535.131    544.566     -9.435    535.840    544.006    535.840    536.399    535.840
 27.370    578.228    545.655     32.573    535.520    545.055    535.520    536.119    535.520
 27.470    576.700    547.254     29.446    535.201    546.608    535.201    535.845    535.201
 27.570    594.000    549.823     44.177    534.882    549.124    534.882    535.578    534.882
 27.670    598.000    554.871     43.129    534.563    554.111    534.563    535.318    534.563
 27.770    654.000    567.174     86.826    534.246    566.343    534.246    535.069    534.246
 27.870    584.000    598.166    -14.166    533.928    597.246    533.928    534.831    533.928
 27.970    666.000    664.603      1.397    533.611    663.568    533.611    534.607    533.611
 28.070    771.000    772.804     -1.804    533.295    771.629    533.295    534.400    533.295
 28.170    941.000    892.451     48.549    532.980    891.120    532.980    534.216    532.980
 28.270    922.000    951.514    -29.514    532.665    950.027    532.665    534.059    532.665
 28.370    871.000    902.109    -31.109    532.350    900.464    532.350    533.937    532.350
 28.470    837.065    795.472     41.593    532.037    793.622    532.037    533.862    532.037
 28.570    684.205    712.481    -28.276    531.724    710.342    531.724    533.850    531.724
 28.670    747.000    694.980     52.020    531.411    692.444    531.411    533.933    531.411
 28.770    709.797    739.038    -29.241    531.100    735.956    531.100    534.163    531.100
 28.870    797.000    806.153     -9.153    530.789    802.284    530.789    534.646    530.789
 28.970    885.000    837.836     47.164    530.479    832.749    530.479    535.569    530.479
 29.070    774.964    799.167    -24.204    530.169    792.118    530.169    537.231    530.169
 29.170    677.424    720.666    -43.242    529.860    710.513    529.860    540.027    529.860
 29.270    638.000    649.170    -11.170    529.553    634.391    529.553    544.342    529.553
 29.370    615.903    605.777     10.126    529.245    584.713    529.245    550.312    529.245
 29.470    665.000    587.856     77.144    528.939    559.364    528.939    557.431    528.939
 29.570    627.000    583.465     43.535    528.634    548.148    528.634    563.949    528.634
 29.670    613.000    581.601     31.399    528.329    543.069    528.329    566.859    528.329
 29.770    610.000    576.498     33.502    528.025    540.300    528.025    564.220    528.025
 29.870    582.000    568.288     13.712    527.722    538.486    527.722    557.522    527.722
 29.970    597.000    559.550     37.450    527.420    537.201    527.420    549.767    527.420
 30.070    595.000    552.127     42.873    527.119    536.307    527.119    542.937    527.119
 30.170    506.476    546.677    -40.201    526.819    535.772    526.819    537.722    526.819
 30.270    567.430    543.256     24.174    526.519    535.703    526.519    534.070    526.519
 30.370    537.000    541.938     -4.938    526.221    536.532    526.221    531.624    526.221
 30.470    568.296    543.475     24.822    525.924    539.408    525.924    529.983    525.924
 30.570    536.000    549.685    -13.685    525.627    546.471    525.627    528.829    525.627
 30.670    549.935    562.710    -12.775    525.332    560.064    525.332    527.955    525.332
 30.770    622.393    582.380     40.013    525.037    580.135    525.037    527.245    525.037
 30.870    642.000    602.842     39.158    524.744    600.899    524.744    526.636    524.744
 30.970    628.000    612.179     15.821    524.451    610.478    524.451    526.097    524.451
 31.070    571.000    602.462    -31.462    524.160    600.971    524.160    525.607    524.160
 31.170    575.000    581.051     -6.051    523.869    579.738    523.869    525.154    523.869
 31.270    559.451    559.865     -0.415    523.580    558.699    523.580    524.731    523.580
 31.370    566.000    545.000     21.000    523.292    543.954    523.292    524.331    523.292
 31.470    558.000    536.713     21.287    523.005    535.765    523.005    523.950    523.005
 31.570    562.000    532.705     29.295    522.719    531.837    522.719    523.583    522.719
 31.670    534.316    530.783      3.533    522.434    529.985    522.434    523.230    522.434
 31.770    493.616    529.727    -36.111    522.150    528.989    522.150    522.887    522.150
 31.870    504.965    529.040    -24.074    521.867    528.353    521.867    522.553    521.867
 31.970    536.000    528.549      7.451    521.586    527.907    521.586    522.226    521.586
 32.070    533.000    528.201      4.799    521.305    527.598    521.305    521.907    521.305
 32.170    550.000    527.967     22.033    521.026    527.400    521.026    521.593    521.026
 32.270    516.000    527.839    -11.839    520.748    527.302    520.748    521.284    520.748
 32.370    550.000    527.819     22.181    520.471    527.309    520.471    520.980    520.471
 32.470    556.550    527.915     28.636    520.196    527.429    520.196    520.680    520.196
 32.570    559.000    528.141     30.859    519.921    527.678    519.921    520.384    519.921
 32.670    519.963    528.524     -8.561    519.648    528.080    519.648    520.091    519.648
 32.770    536.760    529.100      7.660    519.376    528.674    519.376    519.801    519.376
 32.870    492.597    529.924    -37.327    519.105    529.513    519.105    519.515    519.105
 32.970    571.000    531.072     39.928    518.836    530.676    518.836    519.231    518.836
 33.070    523.000    532.672     -9.672    518.568    532.288    518.568    518.950    518.568
 33.170    546.741    534.950     11.792    518.301    534.577    518.301    518.671    518.301
 33.270    513.000    538.414    -25.414    518.035    538.052    518.035    518.395    518.035
 33.370    565.000    544.462     20.538    517.771    544.109    517.771    518.120    517.771
 33.470    548.000    556.810     -8.810    517.508    556.464    517.508    517.848    517.508
 33.570    539.253    583.619    -44.367    517.246    583.276    517.246    517.579    517.246
 33.670    627.000    637.980    -10.980    516.985    637.634    516.985    517.311    516.985
 33.770    718.000    731.990    -13.990    516.726    731.635    516.726    517.045    516.726
 33.870    902.270    862.258     40.012    516.469    861.892    516.469    516.781    516.469
 33.970   1037.000    993.380     43.620    516.212    993.011    516.212    516.519    516.212
 34.070   1043.957   1057.744    -13.787    515.957   1057.389    515.957    516.258    515.957
 34.170   1032.138   1009.304     22.834    515.704   1008.980    515.704    516.000    515.704
 34.270    896.530    884.184     12.346    515.451    883.889    515.451    515.743    515.451
 34.370    746.000    750.469     -4.469    515.201    750.189    515.201    515.489    515.201
 34.470    602.000    649.259    -47.259    514.951    648.983    514.951    515.235    514.951
 34.570    544.000    588.314    -44.314    514.703    588.038    514.703    514.984    514.703
 34.670    575.000    557.134     17.866    514.456    556.858    514.456    514.734    514.456
 34.770    557.000    542.331     14.669    514.211    542.057    514.211    514.486    514.211
 34.870    513.412    534.911    -21.499    513.967    534.638    513.967    514.240    513.967
 34.970    521.000    530.541     -9.541    513.725    530.270    513.725    513.995    513.725
 35.070    546.210    527.528     18.682    513.484    527.259    513.484    513.752    513.484
 35.170    493.000    525.251    -32.251    513.245    524.984    513.245    513.511    513.245
 35.270    557.273    523.449     33.824    513.007    523.184    513.007    513.271    513.007
 35.370    509.000    521.985    -12.985    512.770    521.721    512.770    513.033    512.770
 35.470    541.026    520.769     20.257    512.535    520.506    512.535    512.797    512.535
 35.570    512.000    519.741     -7.741    512.301    519.480    512.301    512.562    512.301
 35.670    576.000    518.859     57.141    512.069    518.599    512.069    512.329    512.069
 35.770    539.000    518.091     20.909    511.839    517.831    511.839    512.098    511.839
 35.870    528.000    517.414     10.586    511.610    517.155    511.610    511.868    511.610
 35.970    527.000    516.812     10.188    511.382    516.554    511.382    511.640    511.382
 36.070    503.270    516.271    -13.001    511.156    516.013    511.156    511.413    511.156
 36.170    524.673    515.782      8.892    510.931    515.524    510.931    511.188    510.931
 36.270    512.000    515.338     -3.338    510.708    515.080    510.708    510.965    510.708
 36.370    506.000    514.933     -8.933    510.487    514.676    510.487    510.744    510.487
 36.470    535.000    514.565     20.435    510.267    514.308    510.267    510.524    510.267
 36.570    500.000    514.231    -14.231    510.048    513.974    510.048    510.306    510.048
 36.670    502.000    513.933    -11.933    509.831    513.676    509.831    510.089    509.831
 36.770    523.000    513.675      9.325    509.616    513.418    509.616    509.874    509.616
 36.870    571.000    513.473     57.527    509.402    513.215    509.402    509.661    509.402
 36.970    476.000    513.372    -37.372    509.190    513.114    509.190    509.449    509.190
 37.070    510.000    513.491     -3.491    508.980    513.232    508.980    509.239    508.980
 37.170    530.000    514.073     15.927    508.771    513.814    508.771    509.031    508.771
 37.270    521.000    515.492      5.508    508.563    515.232    508.563    508.824    508.563
 37.370    514.000    518.088     -4.088    508.357    517.827    508.357    508.619    508.357
 37.470    492.000    521.799    -29.799    508.153    521.538    508.153    508.416    508.153
 37.570    541.000    525.755     15.245    507.950    525.493    507.950    508.214    507.950
 37.670    563.000    528.239     34.761    507.749    527.978    507.749    508.014    507.749
 37.770    567.180    527.815     39.364    507.550    527.555    507.550    507.816    507.550
 37.870    510.682    524.860    -14.179    507.352    524.601    507.352    507.620    507.352
 37.970    534.000    520.962     13.038    507.156    520.703    507.156    507.425    507.156
 38.070    498.000    517.357    -19.357    506.961    517.097    506.961    507.232    506.961
 38.170    532.047    514.512     17.534    506.768    514.249    506.768    507.040    506.768
 38.270    458.000    512.472    -54.472    506.577    512.205    506.577    506.850    506.577
 38.370    526.000    511.097     14.903    506.387    510.826    506.387    506.662    506.387
 38.470    506.492    510.194     -3.702    506.199    509.919    506.199    506.476    506.199
 38.570    494.000    509.594    -15.594    506.012    509.316    506.012    506.291    506.012
 38.670    518.000    509.176      8.824    505.827    508.896    505.827    506.108    505.827
 38.770    500.434    508.860     -8.426    505.644    508.577    505.644    505.927    505.644
 38.870    468.000    508.597    -40.597    505.463    508.312    505.463    505.748    505.463
 38.970    557.000    508.364     48.636    505.283    508.077    505.283    505.570    505.283
 39.070    481.000    508.150    -27.150    505.104    507.861    505.104    505.394    505.104
 39.170    557.000    507.950     49.050    504.928    507.659    504.928    505.220    504.928
 39.270    492.000    507.762    -15.762    504.753    507.468    504.753    505.047    504.753
 39.370    518.706    507.584     11.122    504.580    507.287    504.580    504.877    504.580
 39.470    467.282    507.415    -40.133    504.408    507.115    504.408    504.708    504.408
 39.570    489.000    507.254    -18.254    504.238    506.952    504.238    504.541    504.238
 39.670    499.000    507.101     -8.101    504.070    506.796    504.070    504.375    504.070
 39.770    525.342    506.955     18.387    503.903    506.647    503.903    504.211    503.903
 39.870    470.000    506.817    -36.817    503.738    506.506    503.738    504.049    503.738
 39.970    535.601    506.687     28.914    503.575    506.372    503.575    503.889    503.575
 40.070    519.000    506.564     12.436    503.413    506.247    503.413    503.731    503.413
 40.170    539.000    506.450     32.550    503.253    506.129    503.253    503.574    503.253
 40.270    499.000    506.344     -7.344    503.095    506.020    503.095    503.420    503.095
 40.370    530.455    506.248     24.206    502.939    505.920    502.939    503.267    502.939
 40.470    522.145    506.163     15.983    502.784    505.831    502.784    503.115    502.784
 40.570    489.000    506.089    -17.089    502.631    505.754    502.631    502.966    502.631
 40.670    485.000    506.029    -21.029    502.479    505.690    502.479    502.818    502.479
 40.770    473.479    505.984    -32.505    502.329    505.641    502.329    502.673    502.329
 40.870    490.000    505.957    -15.957    502.181    505.610    502.181    502.529    502.181
 40.970    479.822    505.951    -26.130    502.035    505.600    502.035    502.386    502.035
 41.070    466.825    505.971    -39.146    501.890    505.616    501.890    502.246    501.890
 41.170    484.795    506.022    -21.228    501.747    505.662    501.747    502.108    501.747
 41.270    467.238    506.113    -38.875    501.605    505.748    501.605    501.971    501.605
 41.370    468.000    506.252    -38.252    501.466    505.883    501.466    501.836    501.466
 41.470    501.000    506.457     -5.457    501.328    506.082    501.328    501.703    501.328
 41.570    512.000    506.748      5.252    501.192    506.369    501.192    501.572    501.192
 41.670    526.000    507.169     18.831    501.057    506.784    501.057    501.443    501.057
 41.770    525.000    507.810     17.190    500.924    507.421    500.924    501.316    500.924
 41.870    551.000    508.899     42.101    500.793    508.504    500.793    501.190    500.793
 41.970    473.165    510.967    -37.801    500.663    510.567    500.663    501.067    500.663
 42.070    551.737    515.098     36.639    500.535    514.693    500.535    500.945    500.535
 42.170    519.000    523.064     -4.064    500.409    522.657    500.409    500.825    500.409
 42.270    496.000    536.945    -40.945    500.285    536.537    500.285    500.708    500.285
 42.370    557.568    557.882     -0.314    500.162    557.478    500.162    500.592    500.162
 42.470    543.512    584.186    -40.674    500.041    583.788    500.041    500.478    500.041
 42.570    590.000    609.687    -19.687    499.922    609.296    499.922    500.366    499.922
 42.670    570.000    624.299    -54.299    499.804    623.911    499.804    500.256    499.804
 42.770    599.000    620.313    -21.313    499.688    619.918    499.688    500.148    499.688
 42.870    552.000    600.084    -48.084    499.574    599.672    499.574    500.042    499.574
 42.970    580.485    573.225      7.260    499.461    572.792    499.461    499.938    499.461
 43.070    590.000    548.503     41.497    499.350    548.046    499.350    499.836    499.350
 43.170    513.000    530.202    -17.202    499.241    529.725    499.241    499.736    499.241
 43.270    555.000    518.689     36.311    499.134    518.195    499.134    499.638    499.134
 43.370    498.000    512.283    -14.283    499.028    511.774    499.028    499.542    499.028
 43.470    522.000    508.952     13.048    498.923    508.431    498.923    499.449    498.923
 43.570    496.000    507.197    -11.197    498.821    506.664    498.821    499.357    498.821
 43.670    508.000    506.176      1.824    498.720    505.630    498.720    499.268    498.720
 43.770    516.577    505.497     11.079    498.621    504.940    498.621    499.180    498.621
 43.870    546.296    504.999     41.297    498.524    504.429    498.524    499.096    498.524
 43.970    500.000    504.614     -4.614    498.428    504.030    498.428    499.013    498.428
 44.070    555.000    504.308     50.692    498.334    503.710    498.334    498.932    498.334
 44.170    536.506    504.063     32.444    498.241    503.450    498.241    498.854    498.241
 44.270    511.000    503.865      7.135    498.150    503.238    498.150    498.779    498.150
 44.370    535.000    503.707     31.293    498.061    503.063    498.061    498.706    498.061
 44.470    455.000    503.581    -48.581    497.974    502.921    497.974    498.635    497.974
 44.570    515.000    503.483     11.517    497.888    502.805    497.888    498.567    497.888
 44.670    498.360    503.409     -5.049    497.804    502.712    497.804    498.501    497.804
 44.770    474.000    503.356    -29.356    497.721    502.639    497.721    498.438    497.721
 44.870    536.871    503.322     33.548    497.641    502.585    497.641    498.378    497.641
 44.970    486.000    503.307    -17.307    497.561    502.548    497.561    498.321    497.561
 45.070    516.000    503.310     12.690    497.484    502.527    497.484    498.266    497.484
 45.170    483.000    503.329    -20.329    497.408    502.522    497.408    498.215    497.408
 45.270    505.000    503.365      1.635    497.334    502.531    497.334    498.167    497.334
 45.370    493.000    503.418    -10.418    497.261    502.556    497.261    498.122    497.261
 45.470    506.000    503.488      2.512    497.190    502.596    497.190    498.081    497.190
 45.570    505.000    503.576      1.424    497.121    502.653    497.121    498.044    497.121
 45.670    506.000    503.683      2.317    497.053    502.726    497.053    498.010    497.053
 45.770    523.299    503.810     19.489    496.987    502.817    496.987    497.980    496.987
 45.870    513.000    503.960      9.040    496.923    502.927    496.923    497.955    496.923
 45.970    500.994    504.134     -3.140    496.860    503.059    496.860    497.934    496.860
 46.070    530.000    504.335     25.665    496.799    503.215    496.799    497.918    496.799
 46.170    505.071    504.566      0.505    496.739    503.397    496.739    497.908    496.739
 46.270    519.000    504.831     14.169    496.681    503.608    496.681    497.903    496.681
 46.370    512.000    505.137      6.863    496.625    503.857    496.625    497.905    496.625
 46.470    494.000    505.493    -11.493    496.570    504.149    496.570    497.913    496.570
 46.570    499.262    505.907     -6.645    496.517    504.494    496.517    497.929    496.517
 46.670    485.000    506.394    -21.394    496.465    504.905    496.465    497.952    496.465
 46.770    562.000    506.978     55.022    496.415    505.406    496.415    497.986    496.415
 46.870    526.493    507.712     18.782    496.366    506.048    496.366    498.029    496.366
 46.970    510.000    508.710      1.290    496.320    506.944    496.320    498.084    496.320
 47.070    512.047    510.228      1.819    496.274    508.348    496.274    498.152    496.274
 47.170    497.000    512.772    -15.772    496.231    510.764    496.231    498.234    496.231
 47.270    531.000    517.178     13.822    496.189    515.025    496.189    498.334    496.189
 47.370    563.465    524.526     38.939    496.148    522.207    496.148    498.453    496.148
 47.470    573.000    535.714     37.286    496.109    533.206    496.109    498.596    496.109
 47.570    497.000    550.702    -53.702    496.071    547.976    496.071    498.765    496.071
 47.670    596.030    567.687     28.343    496.036    564.712    496.036    498.966    496.036
 47.770    558.000    582.652    -24.652    496.001    579.394    496.001    499.206    496.001
 47.870    627.000    590.223     36.777    495.968    586.642    495.968    499.492    495.968
 47.970    563.000    587.219    -24.219    495.937    583.268    495.937    499.836    495.937
 48.070    545.000    575.814    -30.814    495.907    571.428    495.907    500.251    495.907
 48.170    579.383    561.256     18.127    495.879    556.346    495.879    500.758    495.879
 48.270    554.057    548.078      5.979    495.852    542.518    495.852    501.392    495.852
 48.370    554.000    538.703     15.297    495.827    532.309    495.827    502.208    495.827
 48.470    516.000    533.681    -17.681    495.803    526.167    495.803    503.309    495.803
 48.570    536.000    532.533      3.467    495.781    523.435    495.781    504.874    495.781
 48.670    499.220    534.552    -35.332    495.760    523.100    495.760    507.209    495.760
 48.770    550.481    539.396     11.085    495.741    524.348    495.741    510.786    495.741
 48.870    549.167    547.260      1.908    495.723    526.725    495.723    516.255    495.723
 48.970    515.000    558.775    -43.775    495.707    530.113    495.707    524.365    495.707
 49.070    547.000    574.795    -27.795    495.692    534.705    495.692    535.777    495.692
 49.170    585.000    596.236    -11.236    495.679    541.174    495.679    550.734    495.679
 49.270    637.327    624.298     13.029    495.667    551.314    495.667    568.641    495.667
 49.370    671.000    661.491      9.509    495.657    569.577    495.657    587.556    495.657
 49.470    745.000    713.928     31.072    495.648    605.777    495.648    603.773    495.648
 49.570    827.000    795.021     31.979    495.640    678.188    495.640    612.429    495.640
 49.670    936.000    928.602      7.398    495.634    813.952    495.634    610.207    495.634
 49.770   1143.000   1144.376     -1.376    495.630   1041.820    495.630    598.068    495.630
 49.870   1444.000   1459.065    -15.065    495.626   1374.212    495.626    580.323    495.626
 49.970   1853.000   1849.591      3.409    495.625   1783.530    495.625    561.517    495.625
 50.070   2236.000   2235.573      0.427    495.624   2186.424    495.624    544.640    495.624
 50.170   2503.000   2490.930     12.070    495.625   2455.461    495.625    531.056    495.625
 50.270   2506.000   2504.689      1.311    495.628   2479.415    495.628    520.985    495.628
 50.370   2285.000   2265.545     19.455    495.632   2247.366    495.632    513.984    495.632
 50.470   1927.000   1873.263     53.737    495.637   1859.773    495.637    509.330    495.637
 50.570   1436.000   1459.165    -23.165    495.643   1448.692    495.643    506.299    495.643
 50.670   1049.000   1116.091    -67.091    495.651   1107.573    495.651    504.309    495.651
 50.770    890.267    879.923     10.344    495.661    872.724    495.661    502.955    495.661
 50.870    686.000    741.902    -55.902    495.671    735.653    495.671    501.987    495.671
 50.970    705.598    671.867     33.732    495.683    666.341    495.683    501.258    495.683
 51.070    592.463    638.146    -45.683    495.697    633.197    495.697    500.687    495.697
 51.170    624.000    618.118      5.882    495.712    613.637    495.712    500.228    495.712
 51.270    574.147    600.715    -26.568    495.728    596.620    495.728    499.853    495.728
 51.370    607.071    583.489     23.582    495.745    579.713    495.745    499.544    495.745
 51.470    536.640    567.646    -31.006    495.764    564.138    495.764    499.289    495.764
 51.570    602.000    554.679     47.321    495.784    551.399    495.784    499.076    495.784
 51.670    548.000    545.216      2.784    495.805    542.129    495.805    498.900    495.805
 51.770    551.000    539.003     11.997    495.828    536.082    495.828    498.754    495.828
 51.870    496.323    535.318    -38.995    495.852    532.539    495.852    498.635    495.852
 51.970    569.000    533.390     35.610    495.877    530.733    495.877    498.537    495.877
 52.070    547.913    532.652     15.261    495.903    530.099    495.903    498.459    495.903
 52.170    540.870    532.808      8.062    495.931    530.344    495.931    498.397    495.931
 52.270    557.000    533.807     23.193    495.960    531.418    495.960    498.350    495.960
 52.370    516.094    535.854    -19.760    495.990    533.529    495.990    498.317    495.990
 52.470    551.906    539.553     12.353    496.022    537.281    496.022    498.295    496.022
 52.570    583.000    546.266     36.734    496.055    544.037    496.055    498.284    496.055
 52.670    515.392    558.676    -43.285    496.089    556.482    496.089    498.283    496.089
 52.770    540.527    581.364    -40.838    496.124    579.197    496.124    498.290    496.124
 52.870    628.159    620.843      7.315    496.160    618.694    496.160    498.306    496.160
 52.970    726.000    684.268     41.732    496.198    682.131    496.198    498.330    496.198
 53.070    742.978    776.307    -33.329    496.236    774.176    496.236    498.362    496.236
 53.170    870.004    894.637    -24.633    496.276    892.509    496.276    498.400    496.276
 53.270   1064.592   1025.646     38.946    496.318   1023.517    496.318    498.445    496.318
 53.370   1155.000   1142.526     12.474    496.360   1140.397    496.360    498.497    496.360
 53.470   1251.378   1210.210     41.168    496.403   1208.079    496.403    498.555    496.403
 53.570   1144.000   1202.992    -58.992    496.448   1200.854    496.448    498.620    496.448
 53.670   1091.000   1124.131    -33.131    496.494   1121.975    496.494    498.690    496.494
 53.770    970.778   1002.809    -32.031    496.541   1000.622    496.541    498.768    496.541
 53.870    837.000    873.246    -36.246    496.589    871.018    496.589    498.851    496.589
 53.970    754.000    759.805     -5.805    496.638    757.528    496.638    498.941    496.638
 54.070    679.926    673.756      6.170    496.688    671.425    496.688    499.037    496.688
 54.170    624.000    615.786      8.214    496.740    613.397    496.740    499.140    496.740
 54.270    574.000    580.483     -6.483    496.792    578.032    496.792    499.251    496.792
 54.370    565.910    560.659      5.251    496.846    558.142    496.846    499.368    496.846
 54.470    565.000    550.130     14.870    496.901    547.541    496.901    499.493    496.901
 54.570    537.000    544.696     -7.696    496.956    542.029    496.956    499.626    496.956
 54.670    540.000    541.957     -1.957    497.013    539.205    497.013    499.767    497.013
 54.770    542.000    540.716      1.284    497.071    537.871    497.071    499.917    497.071
 54.870    572.554    540.432     32.121    497.130    537.487    497.130    500.077    497.130
 54.970    566.049    540.886     25.164    497.190    537.830    497.190    500.247    497.190
 55.070    535.683    541.998     -6.315    497.251    538.822    497.251    500.428    497.251
 55.170    533.000    543.764    -10.764    497.313    540.457    497.313    500.621    497.313
 55.270    541.000    546.226     -5.226    497.376    542.776    497.376    500.826    497.376
 55.370    587.862    549.475     38.388    497.440    545.869    497.440    501.046    497.440
 55.470    563.000    553.674      9.326    497.505    549.898    497.505    501.282    497.505
 55.570    530.432    559.132    -28.700    497.571    555.169    497.571    501.535    497.571
 55.670    624.000    566.483     57.517    497.638    562.315    497.638    501.806    497.638
 55.770    620.000    577.104     42.896    497.706    572.711    497.706    502.099    497.706
 55.870    573.000    593.933    -20.933    497.775    589.291    497.775    502.415    497.775
 55.970    628.000    622.797      5.203    497.844    617.879    497.844    502.757    497.844
 56.070    689.055    674.000     15.055    497.915    668.774    497.915    503.129    497.915
 56.170    756.000    763.242     -7.242    497.987    757.673    497.987    503.535    497.987
 56.270    873.000    910.135    -37.135    498.059    904.181    498.059    503.979    498.059
 56.370   1149.000   1132.556     16.444    498.133   1126.173    498.133    504.466    498.133
 56.470   1401.000   1436.667    -35.667    498.207   1429.810    498.207    505.004    498.207
 56.570   1865.583   1805.276     60.307    498.283   1797.903    498.283    505.599    498.283
 56.670   2108.000   2189.202    -81.202    498.359   2181.269    498.359    506.262    498.359
 56.770   2535.000   2507.193     27.807    498.436   2498.653    498.436    507.004    498.436
 56.870   2601.967   2665.626    -63.660    498.514   2656.413    498.514    507.839    498.514
 56.970   2539.000   2608.089    -69.089    498.592   2598.095    498.592    508.784    498.592
 57.070   2400.000   2357.699     42.301    498.672   2346.761    498.672    509.862    498.672
 57.170   2046.748   1997.488     49.259    498.753   1985.400    498.753    511.101    498.753
 57.270   1685.000   1617.857     67.143    498.834   1604.383    498.834    512.540    498.834
 57.370   1347.000   1283.735     63.265    498.916   1268.598    498.916    514.236    498.916
 57.470   1014.000   1026.845    -12.845    498.999   1009.695    498.999    516.279    498.999
 57.570    859.906    851.023      8.883    499.082    831.370    499.082    518.820    499.082
 57.670    804.000    743.177     60.823    499.167    720.278    499.167    522.116    499.167
 57.770    680.000    684.715     -4.715    499.252    657.389    499.252    526.605    499.252
 57.870    698.000    659.610     38.390    499.338    625.966    499.338    532.995    499.338
 57.970    710.000    657.997     52.003    499.425    615.064    499.425    542.359    499.425
 58.070    705.324    676.330     28.995    499.512    619.655    499.512    556.178    499.512
 58.170    716.000    715.687      0.313    499.601    639.004    499.601    576.265    499.601
 58.270    768.164    779.312    -11.148    499.690    674.477    499.690    604.495    499.690
 58.370    831.000    870.001    -39.001    499.779    727.412    499.779    642.327    499.779
 58.470    947.000    987.446    -40.446    499.870    797.137    499.870    690.129    499.870
 58.570   1125.449   1126.105     -0.656    499.961    879.601    499.961    746.410    499.961
 58.670   1250.900   1274.020    -23.120    500.053    967.029    500.053    806.993    500.053
 58.770   1399.284   1413.843    -14.559    500.145   1049.754    500.145    864.194    500.145
 58.870   1563.007   1526.098     36.909    500.238   1119.455    500.238    906.858    500.238
 58.970   1653.000   1592.761     60.239    500.332   1169.677    500.332    923.413    500.332
 59.070   1702.000   1601.810    100.190    500.426   1193.758    500.426    908.499    500.426
 59.170   1534.848   1553.477    -18.629    500.521   1186.977    500.521    867.058    500.521
 59.270   1492.000   1462.595     29.405    500.617   1152.739    500.617    810.513    500.617
 59.370   1351.000   1352.815     -1.815    500.713   1103.443    500.713    750.114    500.713
 59.470   1286.000   1247.467     38.533    500.810   1054.563    500.810    693.718    500.810
 59.570   1220.423   1165.323     55.100    500.908   1020.539    500.908    645.658    500.908
 59.670   1154.000   1121.537     32.463    501.006   1014.926    501.006    607.540    501.006
 59.770   1139.330   1127.245     12.085    501.104   1049.152    501.104    579.068    501.104
 59.870   1229.114   1185.139     43.975    501.204   1127.333    501.204    558.824    501.204
 59.970   1357.000   1284.939     72.061    501.303   1241.062    501.303    544.941    501.303
 60.070   1394.019   1401.962     -7.943    501.404   1367.489    501.404    535.597    501.404
 60.170   1498.000   1499.684     -1.684    501.505   1471.602    501.505    529.295    501.505
 60.270   1602.173   1539.227     62.946    501.606   1515.622    501.606    524.943    501.606
 60.370   1555.312   1497.856     57.456    501.708   1477.532    501.708    521.817    501.708
 60.470   1346.843   1382.993    -36.150    501.810   1365.182    501.810    519.472    501.810
 60.570   1186.615   1224.751    -38.136    501.913   1208.926    501.913    517.647    501.913
 60.670   1068.000   1057.462     10.538    502.017   1043.236    502.017    516.196    502.017
 60.770    902.441    907.438     -4.997    502.120    894.503    502.120    515.036    502.120
 60.870    797.000    789.106      7.894    502.225    777.201    502.225    514.124    502.225
 60.970    670.084    706.109    -36.026    502.330    694.997    502.330    513.438    502.330
 61.070    634.332    655.068    -20.736    502.435    644.526    502.435    512.971    502.435
 61.170    657.000    630.171     26.829    502.540    619.980    502.540    512.720    502.540
 61.270    616.000    626.931    -10.931    502.646    616.879    502.646    512.679    502.646
 61.370    649.000    644.217      4.783    502.753    634.104    502.753    512.834    502.753
 61.470    678.000    684.401     -6.401    502.860    674.062    502.860    513.151    502.860
 61.570    747.502    751.787     -4.285    502.967    741.114    502.967    513.568    502.967
 61.670    863.000    849.635     13.365    503.075    838.622    503.075    513.986    503.075
 61.770    939.000    976.458    -37.458    503.183    965.234    503.183    514.272    503.183
 61.870   1074.801   1122.683    -47.882    503.291   1111.518    503.291    514.292    503.291
 61.970   1319.773   1268.892     50.880    503.400   1258.140    503.400    513.971    503.400
 62.070   1389.000   1386.958      2.042    503.509   1376.945    503.509    513.342    503.509
 62.170   1361.000   1446.703    -85.703    503.618   1437.647    503.618    512.519    503.618
 62.270   1404.000   1429.726    -25.726    503.728   1421.712    503.728    511.630    503.728
 62.370   1286.000   1341.125    -55.125    503.838   1334.121    503.838    510.776    503.838
 62.470   1167.000   1205.792    -38.792    503.948   1199.693    503.948    510.020    503.948
 62.570    973.000   1054.209    -81.209    504.059   1048.875    504.059    509.392    504.059
 62.670    865.757    911.365    -45.608    504.169    906.650    504.169    508.897    504.169
 62.770    805.400    792.543     12.857    504.281    788.313    504.281    508.525    504.281
 62.870    719.572    703.404     16.167    504.392    699.551    504.392    508.258    504.392
 62.970    618.000    642.344    -24.344    504.504    638.783    504.504    508.073    504.504
 63.070    578.000    603.776    -25.776    504.615    600.445    504.615    507.950    504.615
 63.170    537.484    581.129    -43.645    504.727    577.985    504.727    507.871    504.727
 63.270    546.000    568.785    -22.785    504.840    565.799    504.840    507.823    504.840
 63.370    582.000    562.891     19.109    504.952    560.039    504.952    507.799    504.952
 63.470    580.000    561.402     18.598    505.065    558.669    505.065    507.791    505.065
 63.570    522.003    563.826    -41.823    505.178    561.199    505.178    507.796    505.178
 63.670    547.000    570.939    -23.939    505.291    568.407    505.291    507.810    505.291
 63.770    572.000    584.533    -12.533    505.404    582.083    505.404    507.834    505.404
 63.870    614.000    607.065      6.935    505.517    604.687    505.517    507.866    505.517
 63.970    684.996    641.063     43.933    505.630    638.745    505.630    507.906    505.630
 64.070    656.000    688.205    -32.205    505.744    685.938    505.744    507.951    505.744
 64.170    785.000    748.185     36.815    505.858    745.961    505.858    508.001    505.858
 64.270    840.860    817.636     23.223    505.971    815.449    505.971    508.057    505.971
 64.370    974.000    889.433     84.567    506.085    887.282    506.085    508.117    506.085
 64.470    943.109    952.923     -9.814    506.199    950.812    506.199    508.182    506.199
 64.570    993.000    996.177     -3.177    506.313    994.113    506.313    508.250    506.313
 64.670   1031.377   1010.673     20.704    506.427   1008.665    506.427    508.322    506.427
 64.770    984.000    995.141    -11.141    506.542    993.196    506.542    508.397    506.542
 64.870    987.489    955.078     32.411    506.656    953.197    506.656    508.475    506.656
 64.970    865.312    899.772    -34.460    506.770    897.952    506.770    508.556    506.770
 65.070    887.000    839.225     47.775    506.884    837.459    506.884    508.640    506.884
 65.170    828.220    781.409     46.811    506.998    779.690    506.998    508.727    506.998
 65.270    735.361    730.761      4.600    507.113    729.079    507.113    508.816    507.113
 65.370    673.000    688.498    -15.498    507.227    686.844    507.227    508.907    507.227
 65.470    709.000    654.084     54.916    507.341    652.452    507.341    509.000    507.341
 65.570    641.000    626.562     14.438    507.455    624.945    507.455    509.096    507.455
 65.670    604.000    605.026     -1.026    507.569    603.420    507.569    509.193    507.569
 65.770    599.000    588.628     10.372    507.683    587.031    507.683    509.293    507.683
 65.870    617.885    576.581     41.304    507.797    574.992    507.797    509.394    507.797
 65.970    590.000    568.171     21.829    507.911    566.588    507.911    509.497    507.911
 66.070    598.955    562.748     36.207    508.025    561.172    508.025    509.602    508.025
 66.170    587.000    559.733     27.267    508.139    558.164    508.139    509.709    508.139
 66.270    568.000    558.636      9.364    508.253    557.071    508.253    509.817    508.253
 66.370    569.000    559.085      9.915    508.366    557.524    508.366    509.927    508.366
 66.470    553.000    560.875     -7.875    508.480    559.316    508.480    510.038    508.480
 66.570    560.000    564.023     -4.023    508.593    562.465    508.593    510.152    508.593
 66.670    589.000    568.867     20.133    508.706    567.308    508.706    510.267    508.706
 66.770    595.000    576.261     18.739    508.819    574.698    508.819    510.383    508.819
 66.870    606.000    587.905     18.095    508.932    586.336    508.932    510.502    508.932
 66.970    641.139    606.826     34.312    509.044    605.248    509.044    510.622    509.044
 67.070    682.676    637.910     44.766    509.157    636.320    509.157    510.743    509.157
 67.170    713.969    688.263     25.706    509.269    686.657    509.269    510.867    509.269
 67.270    714.000    766.998    -52.998    509.381    765.374    509.381    510.992    509.381
 67.370    898.988    884.003     14.985    509.493    882.359    509.493    511.119    509.493
 67.470   1071.000   1047.407     23.593    509.604   1045.743    509.604    511.249    509.604
 67.570   1260.000   1259.947      0.053    509.715   1258.269    509.715    511.380    509.715
 67.670   1550.913   1515.046     35.867    509.827   1513.362    509.827    511.513    509.827
 67.770   1852.620   1793.759     58.861    509.937   1792.081    509.937    511.649    509.937
 67.870   2133.539   2063.746     69.793    510.048   2062.089    510.048    511.787    510.048
 67.970   2269.000   2281.772    -12.772    510.158   2280.150    510.158    511.928    510.158
 68.070   2400.605   2402.834     -2.229    510.268   2401.251    510.268    512.071    510.268
 68.170   2338.763   2397.348    -58.585    510.378   2395.792    510.378    512.218    510.378
 68.270   2264.000   2266.846     -2.846    510.487   2265.289    510.487    512.367    510.487
 68.370   1964.922   2043.011    -78.090    510.596   2041.416    510.596    512.520    510.596
 68.470   1849.000   1771.200     77.800    510.705   1769.533    510.705    512.677    510.705
 68.570   1472.123   1493.906    -21.783    510.813   1492.144    510.813    512.837    510.813
 68.670   1249.000   1242.344      6.656    510.921   1240.473    510.921    513.002    510.921
 68.770    996.424   1034.326    -37.902    511.029   1032.342    511.029    513.171    511.029
 68.870    853.653    875.498    -21.845    511.136    873.400    511.136    513.346    511.136
 68.970    783.646    762.512     21.134    511.243    760.305    511.243    513.526    511.243
 69.070    678.157    686.968     -8.811    511.349    684.654    511.349    513.713    511.349
 69.170    607.290    638.973    -31.682    511.455    636.554    511.455    513.906    511.455
 69.270    583.000    609.553    -26.553    511.561    607.028    511.561    514.107    511.561
 69.370    643.000    591.790     51.210    511.666    589.153    511.666    514.316    511.666
 69.470    542.006    580.956    -38.950    511.771    578.202    511.771    514.535    511.771
 69.570    545.184    574.129    -28.945    511.875    571.247    511.875    514.764    511.875
 69.670    570.000    569.642      0.358    511.979    566.621    511.979    515.005    511.979
 69.770    604.632    566.606     38.027    512.082    563.432    512.082    515.259    512.082
 69.870    582.177    564.567     17.610    512.185    561.226    512.185    515.528    512.185
 69.970    529.782    563.301    -33.519    512.288    559.776    512.288    515.814    512.288
 70.070    593.134    562.705     30.429    512.390    558.976    512.390    516.120    512.390
 70.170    564.000    562.746      1.254    512.491    558.790    512.491    516.447    512.491
 70.270    589.287    563.449     25.839    512.592    559.241    512.592    516.799    512.592
 70.370    543.000    564.918    -21.918    512.693    560.428    512.693    517.181    512.693
 70.470    596.771    567.384     29.387    512.793    562.578    512.793    517.596    512.793
 70.570    546.893    571.313    -24.421    512.892    566.150    512.892    518.050    512.892
 70.670    547.000    577.557    -30.557    512.991    571.989    512.991    518.551    512.991
 70.770    526.000    587.586    -61.586    513.089    581.557    513.089    519.107    513.089
 70.870    576.000    603.768    -27.768    513.187    597.208    513.187    519.731    513.187
 70.970    613.000    629.605    -16.605    513.284    622.422    513.284    520.440    513.284
 71.070    630.019    669.790    -39.771    513.380    661.869    513.380    521.262    513.380
 71.170    765.369    729.900     35.469    513.476    721.076    513.476    522.242    513.476
 71.270    810.000    815.522     -5.522    513.571    805.556    513.571    523.454    513.571
 71.370    881.000    930.783    -49.783    513.666    919.317    513.666    525.020    513.666
 71.470   1012.000   1076.464    -64.464    513.760   1062.945    513.760    527.136    513.760
 71.570   1244.000   1248.110     -4.110    513.854   1231.690    513.854    530.100    513.854
 71.670   1425.370   1434.672     -9.302    513.946   1414.072    513.946    534.350    513.946
 71.770   1547.292   1618.150    -70.857    514.038   1591.507    514.038    540.472    514.038
 71.870   1730.855   1774.828    -43.974    514.130   1739.555    514.130    549.198    514.130
 71.970   1921.000   1879.399     41.601    514.221   1832.098    514.221    561.338    514.221
 72.070   1918.000   1912.995      5.005    514.311   1849.497    514.311    577.661    514.311
 72.170   1828.095   1872.032    -43.937    514.400   1787.614    514.400    598.711    514.400
 72.270   1818.000   1770.322     47.678    514.489   1660.163    514.489    624.577    514.489
 72.370   1701.940   1631.903     70.037    514.577   1491.774    514.577    654.665    514.577
 72.470   1449.908   1481.315    -31.407    514.664   1308.466    514.664    687.492    514.664
 72.570   1448.000   1337.450    110.550    514.751   1131.651    514.751    720.540    514.751
 72.670   1238.000   1211.271     26.729    514.836    975.870    514.836    750.235    514.836
 72.770   1048.000   1105.958    -57.958    514.921    848.617    514.921    772.260    514.921
 72.870    984.000   1018.936    -34.936    515.006    751.364    515.006    782.576    515.006
 72.970    847.000    945.251    -98.251    515.089    681.321    515.089    779.017    515.089
 73.070    817.000    880.645    -63.645    515.172    633.414    515.172    762.401    515.172
 73.170    780.000    822.809    -42.809    515.254    601.995    515.254    736.066    515.254
 73.270    744.000    770.997    -26.997    515.335    581.986    515.335    704.344    515.335
 73.370    668.000    725.237    -57.237    515.416    569.427    515.416    671.225    515.416
 73.470    666.000    685.806    -19.806    515.495    561.557    515.495    639.745    515.495
 73.570    657.126    652.932      4.193    515.574    556.632    515.574    611.877    515.574
 73.670    592.000    626.621    -34.621    515.652    553.650    515.652    588.626    515.652
 73.770    591.000    606.562    -15.562    515.729    552.086    515.729    570.211    515.729
 73.870    607.000    592.142     14.858    515.805    551.678    515.805    556.278    515.805
 73.970    577.504    582.524     -5.020    515.881    552.272    515.881    546.146    515.881
 74.070    626.000    576.751     49.249    515.955    553.719    515.955    539.006    515.955
 74.170    633.000    573.833     59.167    516.029    555.807    516.029    534.079    516.029
 74.270    617.000    572.801     44.199    516.102    558.227    516.102    530.705    516.102
 74.370    607.000    572.733     34.267    516.174    560.566    516.174    528.376    516.174
 74.470    609.000    572.782     36.218    516.245    562.339    516.245    526.729    516.245
 74.570    636.000    572.244     63.756    516.315    563.082    516.315    525.520    516.315
 74.670    614.000    570.671     43.329    516.384    562.503    516.384    524.597    516.384
 74.770    591.000    567.981     23.019    516.452    560.612    516.452    523.863    516.452
 74.870    637.000    564.430     72.570    516.520    557.726    516.520    523.261    516.520
 74.970    640.000    560.478     79.522    516.586    554.339    516.586    522.757    516.586
 75.070    556.000    556.640     -0.640    516.652    550.990    516.652    522.328    516.652
 75.170    602.000    553.416     48.584    516.716    548.192    516.716    521.959    516.716
 75.270    561.000    551.274      9.726    516.780    546.426    516.780    521.640    516.780
 75.370    513.190    550.673    -37.483    516.843    546.159    516.843    521.364    516.843
 75.470    542.000    552.092    -10.092    516.904    547.876    516.904    521.122    516.904
 75.570    517.833    556.042    -38.209    516.965    552.092    516.965    520.912    516.965
 75.670    547.000    563.045    -16.045    517.025    559.332    517.025    520.728    517.025
 75.770    599.000    573.553     25.447    517.084    570.053    517.084    520.567    517.084
 75.870    613.000    587.811     25.189    517.141    584.502    517.141    520.426    517.141
 75.970    639.000    605.686     33.314    517.198    602.550    517.198    520.302    517.198
 76.070    657.961    626.500     31.461    517.254    623.520    517.254    520.193    517.254
 76.170    681.467    648.915     32.552    517.309    646.076    517.309    520.098    517.309
 76.270    658.000    670.902    -12.902    517.362    668.193    517.362    520.014    517.362
 76.370    661.016    689.846    -28.830    517.415    687.257    517.415    519.941    517.415
 76.470    670.000    702.877    -32.877    517.466    700.403    517.466    519.877    517.466
 76.570    719.909    707.586     12.324    517.517    705.220    517.517    519.821    517.517
 76.670    750.282    702.967     47.315    517.566    700.706    517.566    519.772    517.566
 76.770    649.000    689.908    -40.908    517.615    687.746    517.615    519.730    517.615
 76.870    671.000    670.748      0.252    517.662    668.679    517.662    519.693    517.662
 76.970    654.000    648.334      5.666    517.708    646.352    517.708    519.661    517.708
 77.070    637.000    625.291     11.709    517.754    623.390    517.754    519.634    517.754
 77.170    620.913    603.661     17.253    517.798    601.833    517.798    519.610    517.798
 77.270    555.000    584.783    -29.783    517.841    583.023    517.841    519.590    517.841
 77.370    545.000    569.315    -24.315    517.882    567.618    517.882    519.574    517.882
 77.470    542.000    557.338    -15.338    517.923    555.698    517.923    519.560    517.923
 77.570    564.000    548.525     15.475    517.963    546.937    517.963    519.548    517.963
 77.670    559.000    542.325     16.675    518.001    540.786    518.001    519.539    518.001
 77.770    518.256    538.124    -19.867    518.039    536.629    518.039    519.532    518.039
 77.870    497.000    535.353    -38.353    518.075    533.901    518.075    519.526    518.075
 77.970    548.000    533.553     14.447    518.110    532.140    518.110    519.522    518.110
 78.070    559.000    532.379     26.621    518.144    531.003    518.144    519.519    518.144
 78.170    560.000    531.605     28.395    518.177    530.263    518.177    519.517    518.177
 78.270    513.000    531.083    -18.083    518.208    529.774    518.208    519.517    518.208
 78.370    497.771    530.727    -32.956    518.239    529.447    518.239    519.517    518.239
 78.470    561.746    530.491     31.256    518.268    529.239    518.268    519.519    518.268
 78.570    526.000    530.352     -4.352    518.296    529.127    518.296    519.521    518.296
 78.670    561.000    530.291     30.709    518.323    529.090    518.323    519.523    518.323
 78.770    520.176    530.330    -10.154    518.349    529.150    518.349    519.527    518.349
 78.870    534.000    530.520      3.480    518.373    529.361    518.373    519.532    518.373
 78.970    478.000    530.866    -52.866    518.396    529.723    518.396    519.538    518.396
 79.070    490.000    531.395    -41.395    518.418    530.266    518.418    519.546    518.418
 79.170    569.971    532.140     37.832    518.439    531.022    518.439    519.555    518.439
 79.270    522.000    533.132    -11.132    518.459    532.020    518.459    519.569    518.459
 79.370    549.000    534.400     14.600    518.477    533.289    518.477    519.586    518.477
 79.470    516.634    535.967    -19.334    518.495    534.850    518.495    519.609    518.495
 79.570    523.451    537.862    -14.412    518.510    536.730    518.510    519.638    518.510
 79.670    513.212    540.127    -26.915    518.525    538.971    518.525    519.676    518.525
 79.770    568.000    542.836     25.164    518.539    541.645    518.539    519.724    518.539
 79.870    522.000    546.117    -24.117    518.551    544.881    518.551    519.781    518.551
 79.970    516.000    550.184    -34.184    518.562    548.892    518.562    519.849    518.562
 80.070    503.000    555.357    -52.357    518.571    553.999    518.571    519.925    518.571
 80.170    598.666    562.067     36.599    518.580    560.636    518.580    520.008    518.580
 80.270    583.000    570.808     12.192    518.587    569.301    518.587    520.093    518.587
 80.370    559.000    582.038    -23.038    518.593    580.458    518.593    520.174    518.593
 80.470    573.000    596.058    -23.058    518.597    594.415    518.597    520.245    518.597
 80.570    592.964    612.902    -19.938    518.601    611.215    518.601    520.296    518.601
 80.670    600.000    632.248    -32.248    518.603    630.544    518.603    520.321    518.603
 80.770    630.000    653.369    -23.369    518.603    651.680    518.603    520.313    518.603
 80.870    666.315    675.158     -8.842    518.603    673.514    518.603    520.272    518.603
 80.970    693.000    696.241     -3.241    518.601    694.669    518.601    520.205    518.601
 81.070    690.000    715.190    -25.190    518.597    713.709    518.597    520.118    518.597
 81.170    707.000    730.715    -23.715    518.593    729.335    518.593    520.019    518.593
 81.270    796.000    741.781     54.219    518.587    740.503    518.587    519.917    518.587
 81.370    711.587    747.684    -36.096    518.580    746.505    518.580    519.816    518.580
 81.470    789.602    748.138     41.464    518.571    747.050    518.571    519.722    518.571
 81.570    742.000    743.293     -1.293    518.562    742.284    518.562    519.636    518.562
 81.670    705.019    733.670    -28.650    518.550    732.728    518.550    519.559    518.550
 81.770    700.000    720.130    -20.130    518.538    719.243    518.538    519.492    518.538
 81.870    720.903    703.838     17.065    518.524    702.994    518.524    519.434    518.524
 81.970    719.236    686.103     33.133    518.509    685.292    518.509    519.384    518.509
 82.070    664.000    668.106     -4.106    518.492    667.319    518.492    519.340    518.492
 82.170    641.000    650.685     -9.685    518.474    649.916    518.474    519.301    518.474
 82.270    658.000    634.288     23.712    518.455    633.532    518.455    519.265    518.455
 82.370    627.000    619.088      7.912    518.434    618.341    518.434    519.231    518.434
 82.470    616.000    605.157     10.843    518.413    604.415    518.413    519.199    518.413
 82.570    585.447    592.597     -7.150    518.389    591.858    518.389    519.167    518.389
 82.670    593.248    581.564     11.684    518.364    580.825    518.364    519.135    518.364
 82.770    586.000    572.227     13.773    518.338    571.487    518.338    519.104    518.338
 82.870    572.000    564.734      7.266    518.311    563.992    518.311    519.071    518.311
 82.970    553.000    559.194     -6.194    518.282    558.449    518.282    519.038    518.282
 83.070    550.000    555.669     -5.669    518.252    554.921    518.252    519.005    518.252
 83.170    540.874    554.153    -13.279    518.220    553.400    518.220    518.970    518.220
 83.270    565.000    554.551     10.449    518.187    553.794    518.187    518.934    518.187
 83.370    555.000    556.666     -1.666    518.153    555.904    518.153    518.898    518.153
 83.470    521.000    560.176    -39.176    518.117    559.409    518.117    518.860    518.117
 83.570    550.000    564.644    -14.644    518.080    563.872    518.080    518.821    518.080
 83.670    560.000    569.520     -9.520    518.042    568.744    518.042    518.782    518.042
 83.770    561.000    574.171    -13.171    518.002    573.390    518.002    518.741    518.002
 83.870    535.000    577.927    -42.927    517.960    577.144    517.960    518.699    517.960
 83.970    553.078    580.173    -27.095    517.918    579.389    517.918    518.656    517.918
 84.070    591.000    580.475     10.525    517.874    579.692    517.874    518.612    517.874
 84.170    573.455    578.704     -5.249    517.828    577.923    517.828    518.567    517.828
 84.270    546.673    575.068    -28.395    517.781    574.291    517.781    518.521    517.781
 84.370    571.000    570.027      0.973    517.733    569.254    517.733    518.474    517.733
 84.470    526.084    564.147    -38.062    517.683    563.377    517.683    518.425    517.683
 84.570    521.000    557.980    -36.980    517.632    557.213    517.632    518.376    517.632
 84.670    546.667    551.993     -5.325    517.580    551.229    517.580    518.325    517.580
 84.770    558.000    546.534     11.466    517.526    545.773    517.526    518.273    517.526
 84.870    566.207    541.824     24.383    517.470    541.063    517.470    518.220    517.470
 84.970    537.250    537.960     -0.711    517.413    537.200    517.413    518.166    517.413
 85.070    550.000    534.943     15.057    517.355    534.181    517.355    518.110    517.355
 85.170    532.000    532.701     -0.701    517.296    531.937    517.296    518.054    517.296
 85.270    507.000    531.125    -24.125    517.235    530.359    517.235    517.996    517.235
 85.370    519.000    530.099    -11.099    517.172    529.330    517.172    517.937    517.172
 85.470    530.721    529.515      1.206    517.108    528.742    517.108    517.878    517.108
 85.570    553.000    529.296     23.704    517.043    528.518    517.043    517.817    517.043
 85.670    557.000    529.397     27.603    516.977    528.614    516.977    517.754    516.977
 85.770    505.074    529.818    -24.744    516.908    529.029    516.908    517.691    516.908
 85.870    494.877    530.598    -35.721    516.839    529.803    516.839    517.627    516.839
 85.970    533.894    531.823      2.071    516.768    531.020    516.768    517.561    516.768
 86.070    523.000    533.620    -10.620    516.696    532.809    516.696    517.495    516.696
 86.170    519.000    536.155    -17.155    516.622    535.334    516.622    517.427    516.622
 86.270    544.340    539.618      4.722    516.547    538.787    516.547    517.359    516.547
 86.370    533.211    544.207    -10.996    516.470    543.363    516.470    517.289    516.470
 86.470    587.000    550.095     36.905    516.392    549.237    516.392    517.218    516.392
 86.570    594.000    557.387     36.613    516.313    556.512    516.313    517.146    516.313
 86.670    543.588    566.107    -22.519    516.232    565.214    516.232    517.073    516.232
 86.770    570.000    576.129     -6.129    516.150    575.216    516.150    516.999    516.150
 86.870    592.000    587.131      4.869    516.066    586.198    516.066    516.924    516.066
 86.970    624.967    598.606     26.361    515.981    597.651    515.981    516.849    515.981
 87.070    577.000    609.853    -32.853    515.894    608.879    515.894    516.771    515.894
 87.170    588.000    620.016    -32.016    515.807    619.023    515.807    516.692    515.807
 87.270    627.882    628.158     -0.276    515.717    627.149    515.717    516.614    515.717
 87.370    588.036    633.405    -45.370    515.627    632.383    515.627    516.534    515.627
 87.470    669.000    635.156     33.844    515.534    634.125    515.534    516.454    515.534
 87.570    662.086    633.255     28.831    515.441    632.218    515.441    516.373    515.441
 87.670    634.730    628.039      6.691    515.346    626.999    515.346    516.291    515.346
 87.770    631.772    620.232     11.540    515.250    619.192    515.250    516.208    515.250
 87.870    653.000    610.766     42.234    515.152    609.725    515.152    516.125    515.152
 87.970    630.632    600.621     30.010    515.053    599.578    515.053    516.041    515.053
 88.070    596.685    590.723      5.962    514.952    589.677    514.952    515.956    514.952
 88.170    600.000    581.869     18.131    514.850    580.818    514.850    515.871    514.850
 88.270    582.000    574.685      7.315    514.747    573.627    514.747    515.785    514.747
 88.370    536.101    569.603    -33.501    514.642    568.536    514.642    515.699    514.642
 88.470    601.627    566.848     34.779    514.536    565.770    514.536    515.612    514.536
 88.570    591.000    566.451     24.549    514.429    565.360    514.429    515.525    514.429
 88.670    615.000    568.258     46.742    514.320    567.153    514.320    515.438    514.320
 88.770    610.000    571.950     38.050    514.210    570.830    514.210    515.351    514.210
 88.870    620.000    577.064     42.936    514.098    575.927    514.098    515.264    514.098
 88.970    595.201    583.015     12.186    513.985    581.859    513.985    515.176    513.985
 89.070    621.000    589.127     31.873    513.871    587.951    513.871    515.089    513.871
 89.170    600.000    594.670      5.330    513.755    593.473    513.755    515.002    513.755
 89.270    591.000    598.922     -7.922    513.638    597.700    513.638    514.916    513.638
 89.370    557.000    601.264    -44.264    513.520    600.014    513.520    514.830    513.520
 89.470    628.000    601.299     26.701    513.400    600.016    513.400    514.745    513.400
 89.570    559.882    598.944    -39.062    513.279    597.624    513.279    514.661    513.279
 89.670    581.000    594.442    -13.442    513.156    593.081    513.156    514.579    513.156
 89.770    598.678    588.274     10.404    513.033    586.866    513.033    514.497    513.033
 89.870    541.126    581.031    -39.905    512.907    579.572    512.907    514.418    512.907
 89.970    535.000    573.304    -38.304    512.781    571.790    512.781    514.340    512.781
 90.070    606.865    565.617     41.248    512.653    564.043    512.653    514.265    512.653
 90.170    534.000    558.387    -24.387    512.524    556.750    512.524    514.193    512.524
 90.270    549.000    551.911     -2.911    512.394    550.206    512.394    514.124    512.394
 90.370    567.076    546.365     20.712    512.262    544.587    512.262    514.059    512.262
 90.470    515.000    541.817    -26.817    512.129    539.961    512.129    513.999    512.129
 90.570    494.000    538.247    -44.247    511.994    536.308    511.994    513.944    511.994
 90.670    518.000    535.575    -17.575    511.859    533.544    511.859    513.897    511.859
 90.770    518.000    533.688    -15.688    511.722    531.555    511.722    513.859    511.722
 90.870    512.000    532.462    -20.462    511.583    530.215    511.583    513.833    511.583
 90.970    565.000    531.787     33.213    511.444    529.410    511.444    513.822    511.444
 91.070    523.000    531.571     -8.571    511.303    529.044    511.303    513.830    511.303
 91.170    517.000    531.731    -14.731    511.161    529.024    511.161    513.866    511.161
 91.270    554.931    532.324     22.607    511.017    529.398    511.017    513.942    511.017
 91.370    522.000    533.375    -11.375    510.873    530.177    510.873    514.069    510.873
 91.470    533.000    534.952     -1.952    510.727    531.411    510.727    514.264    510.727
 91.570    526.000    537.185    -11.185    510.579    533.208    510.579    514.551    510.579
 91.670    515.000    540.250    -25.250    510.431    535.718    510.431    514.956    510.431
 91.770    581.202    544.369     36.833    510.281    539.127    510.281    515.514    510.281
 91.870    533.000    549.792    -16.792    510.130    543.646    510.130    516.263    510.130
 91.970    563.000    556.788      6.212    509.978    549.506    509.978    517.244    509.978
 92.070    541.000    565.625    -24.625    509.825    556.928    509.825    518.501    509.825
 92.170    583.000    576.528      6.472    509.670    566.099    509.670    520.073    509.670
 92.270    568.000    589.659    -21.659    509.514    577.146    509.514    521.996    509.514
 92.370    624.166    605.077     19.090    509.357    590.106    509.357    524.289    509.357
 92.470    640.849    622.712     18.137    509.199    604.906    509.199    526.959    509.199
 92.570    644.000    642.336      1.664    509.040    621.336    509.040    529.987    509.040
 92.670    692.859    663.548     29.311    508.879    639.040    508.879    533.327    508.879
 92.770    676.000    685.766     -9.766    508.718    657.517    508.718    536.901    508.718
 92.870    737.000    708.249     28.751    508.555    676.137    508.555    540.595    508.555
 92.970    748.000    730.143     17.857    508.391    694.201    508.391    544.257    508.391
 93.070    732.164    750.588    -18.424    508.225    711.040    508.225    547.696    508.225
 93.170    788.000    768.855     19.145    508.059    726.148    508.059    550.687    508.059
 93.270    794.000    784.473      9.527    507.892    739.293    507.892    552.992    507.892
 93.370    787.000    797.284    -10.284    507.723    750.541    507.723    554.389    507.723
 93.470    803.000    807.399     -4.399    507.553    760.157    507.553    554.720    507.553
 93.570    850.768    815.137     35.631    507.382    768.515    507.382    553.933    507.382
 93.670    859.000    820.972     38.028    507.211    776.018    507.211    552.095    507.211
 93.770    786.082    825.501    -39.419    507.038    783.092    507.038    549.379    507.038
 93.870    842.765    829.438     13.327    506.863    790.227    506.863    546.010    506.863
 93.970    892.000    833.582     58.418    506.688    797.979    506.688    542.228    506.688
 94.070    934.000    838.702     95.298    506.512    806.900    506.512    538.254    506.512
 94.170    823.000    845.365    -22.365    506.335    817.369    506.335    534.273    506.335
 94.270    837.403    853.751    -16.348    506.156    829.420    506.156    530.431    506.156
 94.370    880.000    863.539     16.461    505.977    842.624    505.977    526.837    505.977
 94.470    894.498    873.883     20.615    505.797    856.063    505.797    523.565    505.797
 94.570    904.706    883.473     21.233    505.615    868.384    505.615    520.657    505.615
 94.670    965.000    890.676     74.324    505.433    877.942    505.433    518.127    505.433
 94.770    900.000    893.780      6.220    505.249    883.029    505.249    515.967    505.249
 94.870    912.000    891.310     20.690    505.065    882.196    505.065    514.154    505.065
 94.970    931.354    882.385     48.969    504.880    874.596    504.880    512.653    504.880
 95.070    901.000    866.953     34.047    504.693    860.217    504.693    511.423    504.693
 95.170    838.406    845.813     -7.407    504.506    839.899    504.506    510.421    504.506
 95.270    769.889    820.423    -50.534    504.318    815.142    504.318    509.605    504.318
 95.370    864.000    792.627     71.373    504.129    787.827    504.129    508.939    504.129
 95.470    813.000    764.403     48.597    503.939    759.964    503.939    508.390    503.939
 95.570    699.723    737.696    -37.973    503.748    733.525    503.748    507.931    503.748
 95.670    744.000    714.300     29.700    503.556    710.326    503.556    507.540    503.556
 95.770    714.000    695.864     18.136    503.363    692.032    503.363    507.201    503.363
 95.870    672.160    683.788    -11.629    503.169    680.058    503.169    506.901    503.169
 95.970    644.000    679.263    -35.263    502.975    675.601    502.975    506.631    502.975
 96.070    657.000    683.286    -26.286    502.779    679.667    502.779    506.384    502.779
 96.170    672.000    696.669    -24.669    502.583    693.073    502.583    506.156    502.583
 96.270    711.000    720.015     -9.015    502.386    716.423    502.386    505.944    502.386
 96.370    780.000    753.684     26.316    502.188    750.082    502.188    505.744    502.188
 96.470    794.000    797.718     -3.718    501.990    794.094    501.990    505.557    501.990
 96.570    878.000    851.741     26.259    501.790    848.082    501.790    505.380    501.790
 96.670    902.000    914.841    -12.841    501.590    911.138    501.590    505.214    501.590
 96.770    942.000    985.478    -43.478    501.389    981.720    501.389    505.058    501.389
 96.870   1064.000   1061.412      2.588    501.187   1057.590    501.187    504.912    501.187
 96.970   1191.000   1139.683     51.317    500.985   1135.791    500.985    504.775    500.985
 97.070   1165.000   1216.653    -51.653    500.782   1212.683    500.782    504.649    500.782
 97.170   1338.176   1288.124     50.052    500.578   1284.070    500.578    504.534    500.578
 97.270   1318.000   1349.591    -31.591    500.373   1345.445    500.373    504.430    500.373
 97.370   1397.000   1396.672      0.328    500.168   1392.427    500.168    504.338    500.168
 97.470   1342.000   1425.725    -83.725    499.962   1421.372    499.962    504.259    499.962
 97.570   1443.000   1434.514      8.486    499.755   1430.041    499.755    504.193    499.755
 97.670   1459.000   1422.670     36.330    499.548   1418.062    499.548    504.142    499.548
 97.770   1440.949   1391.705     49.245    499.340   1386.944    499.340    504.109    499.340
 97.870   1388.000   1344.610     43.390    499.131   1339.673    499.131    504.094    499.131
 97.970   1336.221   1285.262     50.960    498.922   1280.122    498.922    504.102    498.922
 98.070   1227.000   1217.879      9.121    498.713   1212.505    498.713    504.137    498.713
 98.170   1088.235   1146.636    -58.401    498.502   1140.991    498.502    504.204    498.502
 98.270   1072.000   1075.411     -3.411    498.292   1069.450    498.292    504.310    498.292
 98.370    999.000   1007.635     -8.635    498.080   1001.303    498.080    504.468    498.080
 98.470    945.526    946.215     -0.689    497.868    939.444    497.868    504.691    497.868
 98.570    854.256    893.518    -39.262    497.656    886.219    497.656    504.999    497.656
 98.670    833.000    851.397    -18.397    497.443    843.457    497.443    505.419    497.443
 98.770    854.000    821.254     32.746    497.230    812.524    497.230    505.985    497.230
 98.870    775.843    804.119    -28.275    497.016    794.406    497.016    506.744    497.016
 98.970    762.974    800.734    -37.760    496.801    789.788    496.801    507.753    496.801
 99.070    761.000    811.621    -50.621    496.587    799.123    496.587    509.081    496.587
 99.170    794.157    837.106    -42.949    496.372    822.653    496.372    510.813    496.372
 99.270    874.000    877.359     -3.359    496.156    860.449    496.156    513.047    496.156
 99.370    917.000    932.289    -15.289    495.940    912.311    495.940    515.894    495.940
 99.470   1028.387   1001.481     26.906    495.724    977.707    495.724    519.471    495.724
 99.570   1070.000   1084.105    -14.105    495.507   1055.685    495.507    523.900    495.507
 99.670   1133.000   1178.803    -45.803    495.290   1144.772    495.290    529.297    495.290
 99.770   1253.261   1283.589    -30.329    495.073   1242.882    495.073    535.763    495.073
 99.870   1400.000   1395.779      4.221    494.856   1347.255    494.856    543.373    494.856
 99.970   1559.000   1511.965     47.035    494.638   1454.448    494.638    552.163    494.638
100.070   1705.000   1628.091     76.909    494.420   1560.421    494.420    562.118    494.420
100.170   1741.684   1739.650      2.034    494.201   1660.744    494.201    573.157    494.201
100.270   1818.000   1842.026    -24.026    493.983   1750.955    493.983    585.130    493.983
100.370   1951.000   1930.927     20.073    493.764   1826.993    493.764    597.801    493.764
100.470   2061.494   2002.745     58.749    493.545   1885.573    493.545    610.847    493.545
100.570   2193.000   2054.731    138.269    493.326   1924.355    493.326    623.857    493.326
100.670   2090.302   2084.967      5.335    493.107   1941.925    493.107    636.326    493.107
100.770   2105.000   2092.305     12.695    492.887   1937.713    492.887    647.673    492.887
100.870   2095.000   2076.444     18.556    492.668   1912.054    492.668    657.266    492.668
100.970   2058.000   2038.185     19.815    492.448   1866.374    492.448    664.475    492.448
101.070   2076.000   1979.683     96.317    492.229   1803.374    492.229    668.757    492.229
101.170   1959.000   1904.485     54.515    492.009   1726.961    492.009    669.749    492.009
101.270   1846.130   1817.230     28.900    491.789   1641.877    491.789    667.351    491.789
101.370   1686.000   1723.102    -37.102    491.570   1553.125    491.570    661.744    491.570
101.470   1604.000   1627.233    -23.233    491.350   1465.414    491.350    653.352    491.350
101.570   1466.000   1534.208    -68.208    491.130   1382.752    491.130    642.754    491.130
101.670   1442.387   1447.733     -5.346    490.911   1308.205    490.911    630.588    490.911
101.770   1382.000   1370.460     11.540    490.691   1243.806    490.691    617.478    490.691
101.870   1345.159   1303.932     41.227    490.471   1190.538    490.471    603.985    490.471
101.970   1244.000   1248.614     -4.614    490.252   1148.387    490.252    590.585    490.252
102.070   1232.768   1203.984     28.785    490.033   1116.446    490.033    577.666    490.033
102.170   1131.000   1168.669    -37.669    489.814   1093.046    489.814    565.524    489.814
102.270   1106.000   1140.632    -34.632    489.595   1075.941    489.595    554.368    489.595
102.370   1078.000   1117.398    -39.398    489.376   1062.526    489.376    544.329    489.376
102.470   1146.000   1096.336     49.664    489.157   1050.108    489.157    535.465    489.157
102.570   1043.376   1074.978    -31.602    488.939   1036.221    488.939    527.777    488.939
102.670   1035.000   1051.342    -16.342    488.721   1018.930    488.721    521.214    488.721
102.770   1076.000   1024.166     51.834    488.503    997.057    488.503    515.695    488.503
102.870    989.000    992.993     -3.993    488.286    970.252    488.286    511.111    488.286
102.970    977.439    958.084     19.355    488.069    938.891    488.069    507.344    488.069
103.070    914.472    920.216     -5.744    487.852    903.874    487.852    504.273    487.852
103.170    861.000    880.461    -19.461    487.636    866.391    487.636    501.782    487.636
103.270    863.000    840.002     22.998    487.420    827.729    487.420    499.764    487.420
103.370    826.101    799.995     26.106    487.204    789.140    487.204    498.124    487.204
103.470    772.571    761.479     11.092    486.989    751.745    486.989    496.782    486.989
103.570    738.000    725.324     12.676    486.775    716.478    486.775    495.672    486.775
103.670    732.000    692.190     39.810    486.560    684.055    486.560    494.740    486.560
103.770    623.964    662.510    -38.545    486.347    654.955    486.347    493.940    486.347
103.870    653.462    636.516     16.946    486.134    629.433    486.134    493.248    486.134
103.970    624.000    614.226      9.774    485.921    607.537    485.921    492.636    485.921
104.070    592.000    595.511     -3.511    485.709    589.155    485.709    492.086    485.709
104.170    593.000    580.108     12.892    485.498    574.039    485.498    491.584    485.498
104.270    593.000    567.673     25.327    485.287    561.854    485.287    491.120    485.287
104.370    519.851    557.827    -37.975    485.077    552.227    485.077    490.686    485.077
104.470    524.088    550.180    -26.092    484.868    544.776    484.868    490.279    484.868
104.570    550.020    544.366      5.654    484.659    539.137    484.659    489.892    484.659
104.670    527.000    540.046    -13.046    484.451    534.985    484.451    489.515    484.451
104.770    565.421    536.964     28.457    484.244    532.045    484.244    489.164    484.244
104.870    528.117    534.887     -6.770    484.038    530.094    484.038    488.829    484.038
104.970    530.000    533.645     -3.645    483.832    528.966    483.832    488.509    483.832
105.070    560.963    533.124     27.838    483.628    528.548    483.628    488.201    483.628
105.170    531.000    533.261     -2.261    483.424    528.776    483.424    487.904    483.424
105.270    583.000    534.036     48.964    483.221    529.633    483.221    487.618    483.221
105.370    528.581    535.471     -6.890    483.019    531.140    483.019    487.342    483.019
105.470    547.999    537.621     10.378    482.818    533.353    482.818    487.076    482.818
105.570    573.000    540.568     32.432    482.618    536.356    482.618    486.819    482.618
105.670    547.593    544.415      3.178    482.419    540.250    482.419    486.570    482.419
105.770    559.000    549.268      9.732    482.221    545.143    482.221    486.329    482.221
105.870    552.006    555.223     -3.217    482.024    551.132    482.024    486.096    482.024
105.970    520.408    562.356    -41.948    481.828    558.291    481.828    485.871    481.828
106.070    589.000    570.701     18.299    481.633    566.656    481.633    485.653    481.633
106.170    586.000    580.241      5.759    481.439    576.211    481.439    485.441    481.439
106.270    595.968    590.898      5.070    481.247    586.876    481.247    485.236    481.247
106.370    585.000    602.523    -17.523    481.055    598.505    481.055    485.038    481.055
106.470    589.000    614.897    -25.897    480.865    610.878    480.865    484.847    480.865
106.570    577.000    627.733    -50.733    480.677    623.707    480.677    484.662    480.677
106.670    610.000    640.677    -30.677    480.489    636.640    480.489    484.483    480.489
106.770    697.419    653.327     44.092    480.303    649.275    480.303    484.310    480.303
106.870    612.000    665.248    -53.248    480.118    661.177    480.118    484.144    480.118
106.970    703.514    676.000     27.514    479.935    671.906    479.935    483.983    479.935
107.070    683.000    685.175     -2.175    479.753    681.054    479.753    483.829    479.753
107.170    667.000    692.452    -25.452    479.572    688.300    479.572    483.682    479.572
107.270    714.363    697.648     16.716    479.393    693.461    479.393    483.540    479.393
107.370    708.522    700.759      7.763    479.215    696.533    479.215    483.405    479.215
107.470    677.000    701.970    -24.970    479.039    697.701    479.039    483.277    479.039
107.570    690.000    701.626    -11.626    478.864    697.308    478.864    483.155    478.864
107.670    679.000    700.174    -21.174    478.691    695.803    478.691    483.039    478.691
107.770    639.000    698.093    -59.093    478.520    693.663    478.520    482.931    478.520
107.870    650.708    695.836    -45.127    478.350    691.342    478.350    482.829    478.350
107.970    723.050    693.782     29.268    478.182    689.219    478.182    482.735    478.182
108.070    656.000    692.206    -36.206    478.016    687.567    478.016    482.649    478.016
108.170    618.000    691.259    -73.259    477.851    686.538    477.851    482.570    477.851
108.270    697.000    690.962      6.038    477.689    686.153    477.689    482.498    477.689
108.370    705.364    691.202     14.162    477.528    686.298    477.528    482.436    477.528
108.470    701.706    691.749      9.957    477.369    686.744    477.369    482.381    477.369
108.570    710.911    692.269     18.642    477.211    687.155    477.211    482.336    477.211
108.670    700.987    692.361      8.626    477.056    687.131    477.056    482.300    477.056
108.770    664.000    691.601    -27.601    476.902    686.246    476.902    482.274    476.902
108.870    675.638    689.596    -13.958    476.751    684.108    476.751    482.258    476.751
108.970    684.405    686.048     -1.643    476.602    680.418    476.602    482.252    476.602
109.070    707.000    680.795     26.205    476.454    675.014    476.454    482.258    476.454
109.170    644.000    673.833    -29.833    476.309    667.890    476.309    482.276    476.309
109.270    621.767    665.307    -43.540    476.166    659.191    476.166    482.306    476.166
109.370    635.000    655.476    -20.476    476.025    649.174    476.025    482.350    476.025
109.470    624.000    644.665    -20.665    475.886    638.166    475.886    482.407    475.886
109.570    668.000    633.213     34.787    475.749    626.504    475.749    482.479    475.749
109.670    589.206    621.509    -32.302    475.615    614.576    475.615    482.567    475.615
109.770    614.000    609.909      4.091    475.483    602.737    475.483    482.673    475.483
109.870    597.000    598.695     -1.695    475.353    591.268    475.353    482.796    475.353
109.970    654.000    588.120     65.880    475.225    580.421    475.225    482.939    475.225
110.070    596.049    578.388     17.660    475.100    570.397    475.100    483.104    475.100
110.170    581.000    569.647     11.353    474.978    561.342    474.978    483.293    474.978
110.270    595.000    561.990     33.010    474.857    553.348    474.857    483.507    474.857
110.370    576.545    555.461     21.084    474.740    546.455    474.740    483.751    474.740
110.470    565.000    550.060     14.940    474.625    540.660    474.625    484.029    474.625
110.570    587.000    545.751     41.249    474.512    535.922    474.512    484.344    474.512
110.670    576.000    542.472     33.528    474.402    532.172    474.402    484.703    474.402
110.770    538.000    540.141     -2.141    474.295    529.320    474.295    485.115    474.295
110.870    575.000    538.669     36.331    474.190    527.267    474.190    485.590    474.190
110.970    531.512    537.964     -6.452    474.088    525.909    474.088    486.140    474.088
111.070    543.146    537.940      5.206    473.989    525.143    473.989    486.782    473.989
111.170    570.933    538.522     32.411    473.893    524.872    473.893    487.538    473.893
111.270    519.970    539.646    -19.676    473.799    525.007    473.799    488.433    473.799
111.370    554.000    541.268     12.732    473.709    525.469    473.709    489.501    473.709
111.470    548.061    543.360      4.702    473.621    526.191    473.621    490.782    473.621
111.570    508.213    545.914    -37.701    473.536    527.117    473.536    492.326    473.536
111.670    523.719    548.944    -25.225    473.454    528.200    473.454    494.191    473.454
111.770    529.000    552.485    -23.485    473.376    529.405    473.376    496.447    473.376
111.870    584.000    556.595     27.405    473.300    530.709    473.300    499.177    473.300
111.970    548.000    561.353    -13.353    473.227    532.098    473.227    502.474    473.227
112.070    586.000    566.862     19.138    473.158    533.569    473.158    506.442    473.158
112.170    555.000    573.243    -18.243    473.092    535.129    473.092    511.196    473.092
112.270    609.657    580.635     29.022    473.029    536.794    473.029    516.860    473.029
112.370    580.000    589.191     -9.191    472.969    538.587    472.969    523.563    472.969
112.470    616.000    599.071     16.929    472.913    540.538    472.913    531.435    472.913
112.570    600.472    610.441     -9.970    472.860    542.687    472.860    540.603    472.860
112.670    619.000    623.465     -4.465    472.810    545.082    472.810    551.182    472.810
112.770    626.000    638.302    -12.302    472.764    547.782    472.764    563.272    472.764
112.870    660.000    655.101      4.899    472.721    550.863    472.721    576.946    472.721
112.970    675.000    674.001      0.999    472.682    554.424    472.682    592.245    472.682
113.070    649.000    695.129    -46.129    472.646    558.593    472.646    609.167    472.646
113.170    744.204    718.603     25.601    472.614    563.539    472.614    627.662    472.614
113.270    783.000    744.539     38.461    472.585    569.486    472.585    647.621    472.585
113.370    827.000    773.059     53.941    472.561    576.727    472.561    668.875    472.561
113.470    817.000    804.311     12.689    472.540    585.646    472.540    691.184    472.540
113.570    839.000    838.482      0.518    472.522    596.743    472.522    714.238    472.522
113.670    849.685    875.827    -26.142    472.509    610.655    472.509    737.653    472.509
113.770    889.371    916.696    -27.324    472.499    628.190    472.499    760.972    472.499
113.870    950.000    961.562    -11.562    472.494    650.353    472.494    783.663    472.494
113.970    990.000   1011.060    -21.060    472.492    678.375    472.492    805.129    472.492
114.070   1048.803   1066.022    -17.219    472.494    713.735    472.494    824.723    472.494
114.170   1126.000   1127.518     -1.518    472.500    758.178    472.500    841.770    472.500
114.270   1253.667   1196.902     56.764    472.511    813.720    472.511    855.605    472.511
114.370   1242.000   1275.850    -33.850    472.525    882.635    472.525    865.634    472.525
114.470   1383.000   1366.392     16.608    472.544    967.420    472.544    871.385    472.544
114.570   1524.940   1470.907     54.033    472.567   1070.742    472.567    872.574    472.567
114.670   1519.891   1592.083    -72.192    472.594   1195.344    472.594    869.141    472.594
114.770   1707.000   1732.802    -25.802    472.625   1343.937    472.625    861.261    472.625
114.870   1874.343   1895.971    -21.628    472.661   1519.044    472.661    849.316    472.661
114.970   2252.000   2084.297    167.703    472.701   1722.832    472.701    833.847    472.701
115.070   2221.182   2300.032    -78.851    472.746   1956.918    472.746    815.492    472.746
115.170   2613.000   2544.711     68.289    472.795   2222.160    472.795    794.925    472.795
115.270   2871.496   2818.899     52.597    472.849   2518.459    472.849    772.814    472.849
115.370   2943.000   3121.976   -178.976    472.907   2844.572    472.907    749.783    472.907
115.470   3222.000   3451.959   -229.959    472.970   3197.953    472.970    726.397    472.970
115.570   3723.000   3805.379    -82.379    473.037   3574.640    473.037    703.153    473.037
115.670   4088.000   4177.226    -89.226    473.110   3969.202    473.110    680.472    473.110
115.770   4673.891   4560.947    112.944    473.187   4374.743    473.187    658.701    473.187
115.870   4755.000   4948.532   -193.532    473.268   4782.981    473.268    638.114    473.268
115.970   5192.000   5330.659   -138.659    473.355   5184.392    473.355    618.915    473.355
116.070   5581.000   5696.932   -115.932    473.447   5568.442    473.447    601.244    473.447
116.170   6115.000   6036.200     78.800    473.543   5923.903    473.543    585.178    473.543
116.270   6352.000   6336.998     15.002    473.645   6239.286    473.645    570.744    473.645
116.370   6566.000   6588.125    -22.125    473.752   6503.410    473.752    557.922    473.752
116.470   6898.890   6779.364    119.526    473.864   6706.115    473.864    546.652    473.864
116.570   6821.000   6902.329    -81.329    473.981   6839.098    473.981    536.849    473.981
116.670   7043.000   6951.315     91.685    474.103   6896.760    474.103    528.403    474.103
116.770   6969.508   6923.853     45.655    474.230   6876.748    474.230    521.193    474.230
116.870   6837.000   6821.060     15.940    474.363   6780.305    474.363    515.089    474.363
116.970   6737.177   6647.466     89.710    474.501   6612.083    474.501    509.962    474.501
117.070   6515.524   6410.461    105.062    474.645   6379.596    474.645    505.684    474.645
117.170   6241.196   6119.513    121.683    474.794   6092.427    474.794    502.137    474.794
117.270   5902.841   5785.332    117.509    474.948   5761.395    474.948    499.210    474.948
117.370   5279.000   5419.124   -140.124    475.109   5397.804    475.109    496.804    475.109
117.470   4821.000   5031.976   -210.976    475.274   5012.830    475.274    494.831    475.274
117.570   4567.679   4634.395    -66.716    475.446   4617.054    475.446    493.217    475.446
117.670   4237.053   4235.961      1.092    475.623   4220.123    475.623    491.896    475.623
117.770   3938.000   3845.080     92.920    475.806   3830.499    475.806    490.815    475.806
117.870   3741.000   3468.828    272.172    475.995   3455.304    475.995    489.929    475.995
117.970   3059.216   3112.858    -53.642    476.189   3100.230    476.189    489.201    476.189
118.070   3030.000   2781.397    248.603    476.390   2769.537    476.390    488.602    476.390
118.170   2564.000   2477.298     86.702    476.596   2466.102    476.596    488.108    476.596
118.270   2190.079   2202.148    -12.068    476.809   2191.534    476.809    487.702    476.809
118.370   1890.015   1956.419    -66.404    477.028   1946.320    477.028    487.367    477.028
118.470   1792.377   1739.640     52.736    477.253   1730.003    477.253    487.093    477.253
118.570   1564.000   1550.587     13.413    477.484   1541.368    477.484    486.871    477.484
118.670   1374.000   1387.464    -13.464    477.721   1378.628    477.721    486.694    477.721
118.770   1235.000   1248.089    -13.089    477.965   1239.606    477.965    486.557    477.965
118.870   1080.000   1130.054    -50.054    478.215   1121.899    478.215    486.455    478.215
118.970    989.272   1030.869    -41.597    478.471   1023.019    478.471    486.385    478.471
119.070    929.772    948.078    -18.306    478.734    940.514    478.734    486.345    478.734
119.170    869.000    879.348    -10.348    479.004    872.053    479.004    486.333    479.004
119.270    782.159    822.532    -40.373    479.280    815.489    479.280    486.346    479.280
119.370    788.000    775.705     12.295    479.563    768.899    479.563    486.385    479.563
119.470    745.000    737.180      7.820    479.852    730.596    479.852    486.447    479.852
119.570    740.786    705.509     35.277    480.148    699.132    480.148    486.533    480.148
119.670    644.920    679.470    -34.550    480.452    673.285    480.452    486.641    480.452
119.770    670.000    658.048     11.952    480.761    652.041    480.761    486.772    480.761
119.870    640.000    640.412     -0.412    481.078    634.567    481.078    486.926    481.078
119.970    629.000    625.886      3.114    481.402    620.189    481.402    487.102    481.402
120.070    645.000    613.932     31.068    481.733    608.366    481.733    487.301    481.733
120.170    586.419    604.118    -17.699    482.071    598.667    482.071    487.524    482.071
120.270    575.000    596.105    -21.105    482.416    590.753    482.416    487.771    482.416
120.370    564.765    589.628    -24.862    482.769    584.357    482.769    488.043    482.769
120.470    583.000    584.477     -1.477    483.129    579.268    483.129    488.341    483.129
120.570    529.000    580.492    -51.492    483.496    575.325    483.496    488.666    483.496
120.670    543.791    577.545    -33.755    483.870    572.401    483.870    489.019    483.870
120.770    597.000    575.541     21.459    484.252    570.397    484.252    489.401    484.252
120.870    564.000    574.403    -10.403    484.642    569.236    484.642    489.814    484.642
120.970    598.000    574.069     23.931    485.039    568.856    485.039    490.259    485.039
121.070    584.749    574.490     10.259    485.443    569.205    485.443    490.736    485.443
121.170    564.000    575.620    -11.620    485.856    570.238    485.856    491.246    485.856
121.270    593.000    577.417     15.583    486.276    571.912    486.276    491.791    486.276
121.370    595.000    579.837     15.163    486.704    574.184    486.704    492.369    486.704
121.470    545.608    582.834    -37.226    487.140    577.006    487.140    492.982    487.140
121.570    558.227    586.352    -28.126    487.584    580.326    487.584    493.626    487.584
121.670    594.397    590.333      4.065    488.036    584.082    488.036    494.304    488.036
121.770    585.504    594.705     -9.201    488.495    588.208    488.495    495.013    488.495
121.870    627.571    599.389     28.183    488.964    592.624    488.964    495.751    488.964
121.970    598.000    604.293     -6.293    489.440    597.244    489.440    496.514    489.440
122.070    629.025    609.319     19.706    489.924    601.972    489.924    497.299    489.924
122.170    588.000    614.359    -26.359    490.417    606.704    490.417    498.103    490.417
122.270    598.000    619.298    -21.298    490.919    611.331    490.919    498.918    490.919
122.370    639.000    624.017     14.983    491.428    615.740    491.428    499.741    491.428
122.470    664.000    628.396     35.604    491.947    619.816    491.947    500.565    491.947
122.570    610.000    632.319    -22.319    492.473    623.450    492.473    501.383    492.473
122.670    643.000    635.678      7.322    493.009    626.543    493.009    502.188    493.009
122.770    616.531    638.383    -21.851    493.553    629.009    493.553    502.971    493.553
122.870    632.000    640.361     -8.361    494.106    630.788    494.106    503.726    494.106
122.970    683.705    641.570     42.134    494.668    631.841    494.668    504.444    494.668
123.070    616.896    641.994    -25.098    495.239    632.159    495.239    505.121    495.239
123.170    639.000    641.644     -2.644    495.818    631.761    495.818    505.749    495.818
123.270    637.400    640.561     -3.161    496.407    630.688    496.407    506.326    496.407
123.370    633.000    638.802     -5.802    497.005    629.002    497.005    506.851    497.005
123.470    650.000    636.445     13.555    497.612    626.776    497.612    507.324    497.612
123.570    645.536    633.574     11.962    498.228    624.094    498.228    507.749    498.228
123.670    621.000    630.280     -9.280    498.854    621.042    498.854    508.131    498.854
123.770    613.000    626.656    -13.656    499.489    617.706    499.489    508.475    499.489
123.870    593.000    622.792    -29.792    500.133    614.169    500.133    508.790    500.133
123.970    582.473    618.772    -36.298    500.787    610.507    500.787    509.082    500.787
124.070    592.489    614.671    -22.182    501.451    606.789    501.451    509.361    501.451
124.170    595.000    610.557    -15.557    502.124    603.074    502.124    509.632    502.124
124.270    631.000    606.485     24.515    502.807    599.411    502.807    509.902    502.807
124.370    619.000    602.497     16.503    503.500    595.836    503.500    510.179    503.500
124.470    625.000    598.625     26.375    504.202    592.375    504.202    510.468    504.202
124.570    610.294    594.890     15.404    504.915    589.043    504.915    510.774    504.915
124.670    562.708    591.298    -28.590    505.637    585.845    505.637    511.101    505.637
124.770    618.154    587.861     30.292    506.370    582.787    506.370    511.453    506.370
124.870    589.000    584.574      4.426    507.112    579.861    507.112    511.833    507.112
124.970    597.000    581.429     15.571    507.865    577.058    507.865    512.242    507.865
