neutron_powder_diffraction_0123
R_wp: 3.894
Temperature (K): 1001.772
Counts: 83915.00
Wavelength (Ã…): 2.52098
COMMENTS
Test file for demonstrating the .xyy file format in Reel1.0
END OF HEADER
   tth       Y_obs     Y_calc      Y_res    Background    Phase_1_Nuc    Phase_1_Mag    Phase_2_Nuc    Phase_2_Mag
  9.970    561.000    563.853     -2.853    562.845    563.744    562.845    562.954    562.845
 10.070    595.000    564.130     30.870    563.044    564.020    563.044    563.153    563.044
 10.170    572.000    564.411      7.589    563.235    564.300    563.235    563.345    563.235
 10.270    584.413    564.698     19.715    563.419    564.587    563.419    563.529    563.419
 10.370    596.820    564.994     31.826    563.596    564.882    563.596    563.706    563.596
 10.470    570.000    565.303      4.697    563.765    565.191    563.765    563.877    563.765
 10.570    594.834    565.630     29.204    563.928    565.518    563.928    564.040    563.928
 10.670    545.000    565.982    -20.982    564.083    565.869    564.083    564.195    564.083
 10.770    580.000    566.367     13.633    564.232    566.253    564.232    564.344    564.232
 10.870    582.000    566.797     15.203    564.374    566.682    564.374    564.487    564.374
 10.970    540.355    567.287    -26.932    564.508    567.172    564.508    564.622    564.508
 11.070    592.000    567.861     24.139    564.636    567.745    564.636    564.750    564.636
 11.170    590.000    568.552     21.448    564.758    568.436    564.758    564.872    564.758
 11.270    554.349    569.414    -15.064    564.873    569.296    564.873    564.988    564.873
 11.370    568.526    570.541     -2.015    564.981    570.423    564.981    565.096    564.981
 11.470    610.000    572.139     37.861    565.082    572.020    565.082    565.198    565.082
 11.570    618.000    574.721     43.279    565.177    574.600    565.177    565.294    565.177
 11.670    593.000    579.484     13.516    565.266    579.359    565.266    565.383    565.266
 11.770    620.000    588.704     31.296    565.349    588.573    565.349    565.466    565.349
 11.870    634.954    605.459     29.496    565.425    605.318    565.425    565.543    565.425
 11.970    610.000    631.677    -21.677    565.495    631.522    565.495    565.613    565.495
 12.070    645.000    664.221    -19.221    565.559    664.046    565.559    565.678    565.559
 12.170    694.000    690.950      3.050    565.616    690.759    565.616    565.736    565.616
 12.270    734.000    695.230     38.770    565.668    695.037    565.668    565.788    565.668
 12.370    636.000    673.511    -37.511    565.714    673.329    565.714    565.834    565.714
 12.470    637.000    640.802     -3.802    565.753    640.639    565.753    565.875    565.753
 12.570    593.000    612.110    -19.110    565.787    611.962    565.787    565.909    565.787
 12.670    586.000    592.837     -6.837    565.816    592.699    565.816    565.938    565.816
 12.770    562.000    581.958    -19.958    565.838    581.826    565.838    565.961    565.838
 12.870    562.000    576.379    -14.379    565.855    576.250    565.855    565.978    565.855
 12.970    550.000    573.487    -23.487    565.866    573.359    565.866    565.990    565.866
 13.070    602.459    571.810     30.648    565.871    571.682    565.871    565.996    565.871
 13.170    600.000    570.698     29.302    565.871    570.570    565.871    565.996    565.871
 13.270    572.000    569.889      2.111    565.866    569.761    565.866    565.992    565.866
 13.370    603.475    569.270     34.205    565.855    569.141    565.855    565.981    565.855
 13.470    597.000    568.781     28.219    565.839    568.652    565.839    565.966    565.839
 13.570    561.000    568.385     -7.385    565.817    568.256    565.817    565.945    565.817
 13.670    595.213    568.057     27.155    565.791    567.928    565.791    565.919    565.791
 13.770    568.814    567.780      1.034    565.759    567.650    565.759    565.888    565.759
 13.870    556.000    567.540    -11.540    565.722    567.410    565.722    565.851    565.722
 13.970    565.390    567.329     -1.939    565.680    567.198    565.680    565.810    565.680
 14.070    538.000    567.140    -29.140    565.633    567.008    565.633    565.763    565.633
 14.170    542.000    566.967    -24.967    565.581    566.835    565.581    565.712    565.581
 14.270    597.163    566.807     30.356    565.524    566.674    565.524    565.656    565.524
 14.370    518.000    566.656    -48.656    565.462    566.523    565.462    565.595    565.462
 14.470    566.000    566.512     -0.512    565.395    566.378    565.395    565.529    565.395
 14.570    554.000    566.373    -12.373    565.324    566.239    565.324    565.458    565.324
 14.670    571.000    566.238      4.762    565.248    566.103    565.248    565.383    565.248
 14.770    593.000    566.106     26.894    565.167    565.970    565.167    565.303    565.167
 14.870    559.000    565.976     -6.976    565.082    565.840    565.082    565.218    565.082
 14.970    508.000    565.848    -57.848    564.992    565.710    564.992    565.129    564.992
 15.070    565.168    565.717     -0.550    564.898    565.579    564.898    565.036    564.898
 15.170    575.000    565.587      9.413    564.799    565.448    564.799    564.938    564.799
 15.270    577.958    565.455     12.503    564.696    565.315    564.696    564.836    564.696
 15.370    588.802    565.322     23.480    564.589    565.182    564.589    564.729    564.589
 15.470    566.000    565.187      0.813    564.477    565.046    564.477    564.618    564.477
 15.570    535.000    565.050    -30.050    564.362    564.909    564.362    564.503    564.362
 15.670    570.000    564.912      5.088    564.241    564.769    564.241    564.384    564.241
 15.770    553.000    564.771    -11.771    564.117    564.628    564.117    564.260    564.117
 15.870    598.860    564.628     34.233    563.989    564.484    563.989    564.133    563.989
 15.970    563.162    564.482     -1.320    563.857    564.337    563.857    564.002    563.857
 16.070    590.712    564.333     26.379    563.721    564.188    563.721    563.866    563.721
 16.170    561.000    564.182     -3.182    563.580    564.036    563.580    563.727    563.580
 16.270    530.173    564.028    -33.855    563.436    563.881    563.436    563.584    563.436
 16.370    523.764    563.872    -40.108    563.289    563.724    563.289    563.437    563.289
 16.470    550.000    563.713    -13.713    563.137    563.564    563.137    563.286    563.137
 16.570    572.954    563.552      9.402    562.982    563.402    562.982    563.131    562.982
 16.670    579.000    563.387     15.613    562.822    563.236    562.822    562.973    562.822
 16.770    524.905    563.219    -38.315    562.660    563.068    562.660    562.811    562.660
 16.870    587.000    563.048     23.952    562.493    562.896    562.493    562.646    562.493
 16.970    503.000    562.875    -59.875    562.324    562.721    562.324    562.477    562.324
 17.070    517.608    562.698    -45.089    562.150    562.543    562.150    562.305    562.150
 17.170    552.000    562.518    -10.518    561.974    562.363    561.974    562.129    561.974
 17.270    579.900    562.336     17.564    561.793    562.179    561.793    561.950    561.793
 17.370    584.000    562.151     21.849    561.610    561.993    561.610    561.767    561.610
 17.470    554.348    561.968     -7.620    561.423    561.810    561.423    561.582    561.423
 17.570    546.000    561.798    -15.798    561.233    561.639    561.233    561.392    561.233
 17.670    579.955    561.607     18.349    561.040    561.446    561.040    561.200    561.040
 17.770    595.000    561.411     33.589    560.843    561.249    560.843    561.005    560.843
 17.870    566.165    561.212      4.953    560.643    561.049    560.643    560.806    560.643
 17.970    557.000    561.019     -4.019    560.441    560.855    560.441    560.605    560.441
 18.070    564.000    560.902      3.098    560.235    560.737    560.235    560.400    560.235
 18.170    587.970    560.720     27.250    560.026    560.554    560.026    560.192    560.026
 18.270    546.626    560.512    -13.886    559.814    560.345    559.814    559.982    559.814
 18.370    599.856    560.301     39.556    559.600    560.132    559.600    559.768    559.600
 18.470    511.000    560.086    -49.086    559.382    559.917    559.382    559.552    559.382
 18.570    550.000    559.870     -9.870    559.162    559.699    559.162    559.333    559.162
 18.670    538.769    559.651    -20.882    558.939    559.479    558.939    559.111    558.939
 18.770    540.869    559.429    -18.561    558.713    559.256    558.713    558.887    558.713
 18.870    578.718    559.206     19.512    558.485    559.031    558.485    558.659    558.485
 18.970    529.241    558.980    -29.739    558.253    558.803    558.253    558.430    558.253
 19.070    580.000    558.751     21.249    558.020    558.574    558.020    558.197    558.020
 19.170    514.479    558.521    -44.042    557.783    558.342    557.783    557.962    557.783
 19.270    551.000    558.289     -7.289    557.544    558.109    557.544    557.725    557.544
 19.370    557.000    558.058     -1.058    557.303    557.876    557.303    557.485    557.303
 19.470    541.214    557.822    -16.608    557.059    557.639    557.059    557.242    557.059
 19.570    527.903    557.584    -29.681    556.813    557.399    556.813    556.998    556.813
 19.670    550.000    557.343     -7.343    556.564    557.157    556.564    556.751    556.564
 19.770    553.852    557.101     -3.249    556.313    556.913    556.313    556.501    556.313
 19.870    589.161    556.857     32.304    556.060    556.668    556.060    556.250    556.060
 19.970    526.000    556.612    -30.612    555.805    556.421    555.805    555.996    555.805
 20.070    537.000    556.369    -19.369    555.547    556.177    555.547    555.740    555.547
 20.170    537.934    556.122    -18.188    555.287    555.928    555.287    555.482    555.287
 20.270    544.000    555.872    -11.872    555.025    555.676    555.025    555.221    555.025
 20.370    527.741    555.623    -27.882    554.761    555.425    554.761    554.959    554.761
 20.470    557.000    555.397      1.603    554.495    555.197    554.495    554.695    554.495
 20.570    522.000    555.183    -33.183    554.227    554.982    554.227    554.429    554.227
 20.670    528.000    554.932    -26.932    553.957    554.729    553.957    554.161    553.957
 20.770    519.714    554.676    -34.962    553.685    554.470    553.685    553.891    553.685
 20.870    527.981    554.419    -26.439    553.411    554.212    553.411    553.619    553.411
 20.970    542.548    554.165    -11.617    553.135    553.956    553.135    553.345    553.135
 21.070    508.000    553.907    -45.907    552.858    553.695    552.858    553.070    552.858
 21.170    507.551    553.647    -46.096    552.578    553.434    552.578    552.792    552.578
 21.270    583.000    553.388     29.612    552.297    553.172    552.297    552.513    552.297
 21.370    539.000    553.128    -14.128    552.014    552.910    552.014    552.233    552.014
 21.470    548.000    552.878     -4.878    551.730    552.657    551.730    551.951    551.730
 21.570    531.000    552.656    -21.656    551.444    552.432    551.444    551.667    551.444
 21.670    542.000    552.400    -10.400    551.156    552.174    551.156    551.382    551.156
 21.770    555.064    552.142      2.922    550.867    551.913    550.867    551.095    550.867
 21.870    532.000    551.884    -19.884    550.576    551.653    550.576    550.807    550.576
 21.970    567.165    551.628     15.537    550.283    551.394    550.283    550.517    550.283
 22.070    507.000    551.373    -44.373    549.990    551.137    549.990    550.226    549.990
 22.170    530.961    551.121    -20.159    549.694    550.881    549.694    549.934    549.694
 22.270    545.000    550.871     -5.871    549.398    550.629    549.398    549.640    549.398
 22.370    548.000    550.630     -2.630    549.100    550.385    549.100    549.345    549.100
 22.470    571.000    550.395     20.605    548.800    550.147    548.800    549.049    548.800
 22.570    574.958    550.159     24.799    548.500    549.907    548.500    548.752    548.500
 22.670    560.000    549.932     10.068    548.198    549.676    548.198    548.454    548.198
 22.770    567.000    549.715     17.285    547.895    549.456    547.895    548.154    547.895
 22.870    506.000    549.501    -43.501    547.590    549.238    547.590    547.853    547.590
 22.970    517.455    549.297    -31.842    547.285    549.031    547.285    547.552    547.285
 23.070    553.000    549.108      3.892    546.978    548.837    546.978    547.249    546.978
 23.170    553.182    548.943      4.239    546.670    548.668    546.670    546.946    546.670
 23.270    543.000    548.820     -5.820    546.362    548.542    546.362    546.641    546.362
 23.370    527.504    548.730    -21.226    546.052    548.447    546.052    546.336    546.052
 23.470    505.352    548.665    -43.313    545.741    548.377    545.741    546.030    545.741
 23.570    574.066    548.630     25.436    545.429    548.338    545.429    545.723    545.429
 23.670    505.986    548.658    -42.673    545.117    548.361    545.117    545.415    545.117
 23.770    535.000    548.775    -13.775    544.803    548.473    544.803    545.107    544.803
 23.870    530.000    549.027    -19.027    544.489    548.720    544.489    544.798    544.489
 23.970    550.000    549.521      0.479    544.173    549.209    544.173    544.489    544.173
 24.070    546.000    550.343     -4.343    543.857    550.025    543.857    544.179    543.857
 24.170    547.000    551.912     -4.912    543.540    551.589    543.540    543.868    543.540
 24.270    573.000    555.125     17.875    543.223    554.797    543.223    543.557    543.223
 24.370    559.956    561.550     -1.594    542.904    561.221    542.904    543.246    542.904
 24.470    550.000    573.123    -23.123    542.585    572.795    542.585    542.934    542.585
 24.570    610.030    590.779     19.251    542.265    590.456    542.265    542.622    542.265
 24.670    605.000    611.884     -6.884    541.945    611.567    541.945    542.310    541.945
 24.770    655.000    628.122     26.878    541.624    627.809    541.624    541.997    541.624
 24.870    646.000    629.259     16.741    541.303    628.938    541.303    541.685    541.303
 24.970    601.236    614.159    -12.923    540.980    613.818    540.980    541.372    540.980
 25.070    602.503    592.526      9.977    540.658    592.160    540.658    541.060    540.658
 25.170    563.000    573.546    -10.546    540.335    573.155    540.335    540.748    540.335
 25.270    579.000    560.560     18.440    540.011    560.149    540.011    540.435    540.011
 25.370    531.313    552.988    -21.675    539.687    552.559    539.687    540.123    539.687
 25.470    564.219    548.915     15.304    539.363    548.471    539.363    539.812    539.363
 25.570    555.000    546.674      8.326    539.038    546.214    539.038    539.501    539.038
 25.670    573.000    545.290     27.710    538.713    544.815    538.713    539.190    538.713
 25.770    538.000    544.311     -6.311    538.387    543.819    538.387    538.881    538.387
 25.870    574.000    543.555     30.445    538.062    543.047    538.062    538.572    538.062
 25.970    575.000    542.946     32.054    537.736    542.419    537.736    538.264    537.736
 26.070    576.000    542.442     33.558    537.409    541.895    537.409    537.957    537.409
 26.170    585.000    542.021     42.979    537.083    541.454    537.083    537.651    537.083
 26.270    533.000    541.671     -8.671    536.756    541.080    536.756    537.347    536.756
 26.370    557.000    541.382     15.618    536.429    540.767    536.429    537.045    536.429
 26.470    542.074    541.152      0.923    536.102    540.510    536.102    536.744    536.102
 26.570    568.000    540.979     27.021    535.775    540.308    535.775    536.446    535.775
 26.670    542.000    540.867      1.133    535.448    540.165    535.448    536.150    535.448
 26.770    529.000    540.821    -11.821    535.121    540.084    535.121    535.857    535.121
 26.870    521.000    540.851    -19.851    534.793    540.077    534.793    535.568    534.793
 26.970    546.021    540.974      5.047    534.466    540.159    534.466    535.282    534.466
 27.070    567.000    541.213     25.787    534.139    540.352    534.139    535.000    534.139
 27.170    508.257    541.601    -33.343    533.811    540.689    533.811    534.723    533.811
 27.270    501.770    542.186    -40.416    533.484    541.218    533.484    534.452    533.484
 27.370    591.000    543.047     47.953    533.157    542.016    533.157    534.187    533.157
 27.470    510.000    544.325    -34.325    532.830    543.224    532.830    533.930    532.830
 27.570    545.000    546.396     -1.396    532.503    545.216    532.503    533.682    532.503
 27.670    525.836    550.585    -24.749    532.176    549.314    532.176    533.444    532.176
 27.770    587.000    561.272     25.728    531.850    559.896    531.850    533.218    531.850
 27.870    629.522    589.298     40.224    531.523    587.796    531.523    533.008    531.523
 27.970    640.000    651.417    -11.417    531.197    649.761    531.197    532.815    531.197
 28.070    753.000    755.881     -2.881    530.871    754.039    530.871    532.642    530.871
 28.170    837.101    876.604    -39.504    530.546    874.556    530.546    532.495    530.546
 28.270    875.000    946.595    -71.595    530.220    944.339    530.220    532.377    530.220
 28.370    834.000    914.394    -80.394    529.895    911.928    529.895    532.294    529.895
 28.470    805.000    815.134    -10.134    529.570    812.422    529.570    532.252    529.570
 28.570    759.847    726.410     33.437    529.246    723.385    529.246    532.258    529.246
 28.670    729.000    697.841     31.159    528.922    694.432    528.922    532.319    528.922
 28.770    741.993    731.983     10.011    528.598    728.120    528.598    532.440    528.598
 28.870    760.000    794.613    -34.613    528.275    790.234    528.275    532.630    528.275
 28.970    866.839    831.143     35.696    527.952    826.190    527.952    532.889    527.952
 29.070    791.886    803.985    -12.099    527.630    798.400    527.630    533.214    527.630
 29.170    749.926    731.374     18.552    527.308    725.100    527.308    533.594    527.308
 29.270    612.000    655.309    -43.309    526.987    648.309    526.987    534.000    526.987
 29.370    598.072    600.896     -2.824    526.666    593.186    526.666    534.385    526.666
 29.470    588.107    570.817     17.290    526.346    562.485    526.346    534.683    526.346
 29.570    592.373    556.848     35.525    526.026    548.060    526.026    534.817    526.026
 29.670    544.000    550.603     -6.603    525.707    541.594    525.707    534.717    525.707
 29.770    630.000    547.309     82.691    525.388    538.350    525.388    534.348    525.388
 29.870    618.000    545.029     72.971    525.070    536.381    525.070    533.719    525.070
 29.970    582.000    543.167     38.833    524.753    535.040    524.753    532.880    524.753
 30.070    534.404    541.594     -7.190    524.436    534.123    524.436    531.907    524.436
 30.170    567.556    540.345     27.212    524.120    533.591    524.120    530.873    524.120
 30.270    601.000    539.591     61.409    523.805    533.556    523.805    529.839    523.805
 30.370    560.000    539.798     20.202    523.490    534.443    523.490    528.843    523.490
 30.470    537.000    542.016     -5.016    523.176    537.279    523.176    527.908    523.176
 30.570    556.071    548.018      8.053    522.863    543.829    522.863    527.042    522.863
 30.670    567.000    559.627      7.373    522.551    555.913    522.551    526.245    522.551
 30.770    584.000    576.784      7.216    522.239    573.477    522.239    525.514    522.239
 30.870    558.456    595.084    -36.628    521.928    592.125    521.928    524.843    521.928
 30.970    595.069    605.221    -10.152    521.618    602.567    521.618    524.224    521.618
 31.070    555.600    599.805    -44.205    521.309    597.421    521.309    523.651    521.309
 31.170    621.870    582.500     39.370    521.001    580.355    521.001    523.116    521.001
 31.270    612.000    562.827     49.173    520.693    560.887    520.693    522.616    520.693
 31.370    560.000    547.321     12.679    520.387    545.555    520.387    522.143    520.387
 31.470    526.000    537.615    -11.615    520.081    535.996    520.081    521.695    520.081
 31.570    541.000    532.422      8.578    519.776    530.928    519.776    521.266    519.776
 31.670    539.407    529.822      9.584    519.472    528.437    519.472    520.855    519.472
 31.770    491.587    528.452    -36.865    519.169    527.161    519.169    520.459    519.169
 31.870    525.000    527.626     -2.626    518.868    526.417    518.868    520.075    518.868
 31.970    544.000    527.071     16.929    518.567    525.935    518.567    519.701    518.567
 32.070    531.596    526.691      4.904    518.267    525.620    518.267    519.337    518.267
 32.170    565.000    526.451     38.549    517.968    525.437    517.968    518.981    517.968
 32.270    557.252    526.339     30.914    517.670    525.375    517.670    518.632    517.670
 32.370    548.000    526.354     21.646    517.373    525.436    517.373    518.289    517.373
 32.470    538.000    526.506     11.494    517.077    525.629    517.077    517.953    517.077
 32.570    541.000    526.813     14.187    516.782    525.973    516.782    517.621    516.782
 32.670    565.500    527.303     38.197    516.488    526.496    516.488    517.293    516.488
 32.770    561.422    528.019     33.404    516.196    527.243    516.196    516.971    516.196
 32.870    549.000    529.023     19.977    515.904    528.274    515.904    516.651    515.904
 32.970    537.000    530.407      6.593    515.614    529.683    515.614    516.336    515.614
 33.070    561.000    532.316     28.684    515.324    531.615    515.324    516.024    515.324
 33.170    550.395    535.023     15.372    515.036    534.343    515.036    515.715    515.036
 33.270    482.000    539.149    -57.149    514.749    538.486    514.749    515.409    514.749
 33.370    597.000    546.255     50.745    514.463    545.609    514.463    515.106    514.463
 33.470    570.000    560.033      9.967    514.179    559.400    514.179    514.805    514.179
 33.570    589.000    587.712      1.288    513.895    587.088    513.895    514.507    513.895
 33.670    617.000    639.855    -22.855    513.613    639.236    513.613    514.212    513.613
 33.770    711.000    725.635    -14.635    513.332    725.016    513.332    513.919    513.332
 33.870    819.777    842.577    -22.800    513.052    841.956    513.052    513.628    513.052
 33.970    998.000    964.307     33.693    512.773    963.689    512.773    513.339    512.773
 34.070   1051.492   1037.867     13.625    512.496   1037.267    512.496    513.052    512.496
 34.170   1056.000   1018.433     37.567    512.220   1017.864    512.220    512.767    512.220
 34.270    907.611    919.592    -11.981    511.945    919.050    511.945    512.485    511.945
 34.370    786.000    794.934     -8.934    511.672    794.409    511.672    512.204    511.672
 34.470    651.000    687.920    -36.920    511.400    687.402    511.400    511.925    511.400
 34.570    606.000    614.761     -8.761    511.129    614.247    511.129    511.648    511.129
 34.670    552.000    572.287    -20.287    510.860    571.776    510.860    511.373    510.860
 34.770    553.000    550.065      2.935    510.591    549.558    510.591    511.100    510.591
 34.870    564.199    538.638     25.561    510.325    538.135    510.325    510.828    510.325
 34.970    522.507    532.233     -9.726    510.059    531.734    510.059    510.559    510.059
 35.070    544.316    528.097     16.219    509.795    527.601    509.795    510.291    509.795
 35.170    517.000    525.095     -8.095    509.532    524.602    509.532    510.025    509.532
 35.270    517.284    522.765     -5.482    509.271    522.276    509.271    509.760    509.271
 35.370    545.823    520.892     24.931    509.011    520.405    509.011    509.498    509.011
 35.470    502.566    519.349    -16.783    508.753    518.865    508.753    509.237    508.753
 35.570    551.000    518.055     32.945    508.496    517.573    508.496    508.978    508.496
 35.670    534.941    516.953     17.988    508.240    516.473    508.240    508.720    508.240
 35.770    480.873    516.001    -35.128    507.986    515.522    507.986    508.465    507.986
 35.870    534.776    515.169     19.608    507.733    514.691    507.733    508.210    507.733
 35.970    535.949    514.434     21.515    507.482    513.957    507.482    507.958    507.482
 36.070    526.000    513.779     12.221    507.232    513.303    507.232    507.707    507.232
 36.170    516.000    513.191      2.809    506.983    512.716    506.983    507.458    506.983
 36.270    555.000    512.662     42.338    506.736    512.188    506.736    507.211    506.736
 36.370    528.409    512.185     16.224    506.491    511.710    506.491    506.966    506.491
 36.470    502.684    511.754     -9.071    506.247    511.280    506.247    506.722    506.247
 36.570    479.000    511.369    -32.369    506.005    510.894    506.005    506.480    506.005
 36.670    529.702    511.030     18.672    505.764    510.555    505.764    506.239    505.764
 36.770    525.000    510.744     14.256    505.524    510.268    505.524    506.000    505.524
 36.870    511.000    510.530      0.470    505.286    510.053    505.286    505.763    505.286
 36.970    515.000    510.434      4.566    505.050    509.957    505.050    505.528    505.050
 37.070    497.000    510.559    -13.559    504.815    510.080    504.815    505.294    504.815
 37.170    510.000    511.080     -1.080    504.582    510.601    504.582    505.062    504.582
 37.270    520.751    512.247      8.505    504.351    511.766    504.351    504.832    504.351
 37.370    519.000    514.284      4.716    504.120    513.802    504.120    504.604    504.120
 37.470    512.000    517.190     -5.190    503.892    516.707    503.892    504.377    503.892
 37.570    499.000    520.498    -21.498    503.665    520.014    503.665    504.152    503.665
 37.670    512.000    523.117    -11.117    503.440    522.632    503.440    503.929    503.440
 37.770    503.192    523.754    -20.562    503.216    523.270    503.216    503.707    503.216
 37.870    507.000    522.064    -15.064    502.994    521.579    502.994    503.487    502.994
 37.970    544.300    519.003     25.297    502.773    518.517    502.773    503.269    502.773
 38.070    544.115    515.674     28.442    502.554    515.186    502.554    503.053    502.554
 38.170    510.000    512.658     -2.658    502.337    512.167    502.337    502.838    502.337
 38.270    493.000    510.219    -17.219    502.121    509.722    502.121    502.626    502.121
 38.370    529.385    508.421     20.964    501.907    507.919    501.907    502.415    501.907
 38.470    497.000    507.173    -10.173    501.695    506.665    501.695    502.206    501.695
 38.570    475.000    506.322    -31.322    501.484    505.810    501.484    501.998    501.484
 38.670    502.000    505.732     -3.732    501.275    505.215    501.275    501.792    501.275
 38.770    473.498    505.296    -31.798    501.067    504.776    501.067    501.589    501.067
 38.870    529.839    504.950     24.889    500.861    504.425    500.861    501.387    500.861
 38.970    464.000    504.655    -40.655    500.657    504.126    500.657    501.186    500.657
 39.070    474.398    504.390    -29.993    500.454    503.858    500.454    500.988    500.454
 39.170    495.000    504.148     -9.148    500.254    503.611    500.254    500.791    500.254
 39.270    500.000    503.923     -3.923    500.054    503.381    500.054    500.597    500.054
 39.370    495.000    503.712     -8.712    499.857    503.166    499.857    500.404    499.857
 39.470    579.000    503.513     75.487    499.661    502.962    499.661    500.213    499.661
 39.570    516.000    503.326     12.674    499.467    502.770    499.467    500.023    499.467
 39.670    490.000    503.149    -13.149    499.274    502.587    499.274    499.836    499.274
 39.770    458.471    502.981    -44.510    499.084    502.415    499.084    499.650    499.084
 39.870    478.115    502.824    -24.709    498.894    502.252    498.894    499.467    498.894
 39.970    500.000    502.676     -2.676    498.707    502.099    498.707    499.285    498.707
 40.070    498.345    502.539     -4.194    498.521    501.956    498.521    499.105    498.521
 40.170    526.000    502.412     23.588    498.337    501.823    498.337    498.927    498.337
 40.270    487.000    502.296    -15.296    498.155    501.701    498.155    498.751    498.155
 40.370    500.449    502.192     -1.743    497.974    501.591    497.974    498.577    497.974
 40.470    484.000    502.102    -18.102    497.796    501.494    497.796    498.405    497.796
 40.570    479.706    502.027    -22.320    497.618    501.411    497.618    498.234    497.618
 40.670    503.000    501.968      1.032    497.443    501.346    497.443    498.066    497.443
 40.770    437.000    501.929    -64.929    497.269    501.299    497.269    497.900    497.269
 40.870    490.000    501.912    -11.912    497.097    501.275    497.097    497.735    497.097
 40.970    515.465    501.922     13.543    496.927    501.277    496.927    497.573    496.927
 41.070    491.000    501.964    -10.964    496.759    501.312    496.759    497.412    496.759
 41.170    482.000    502.046    -20.046    496.592    501.385    496.592    497.254    496.592
 41.270    509.789    502.176      7.614    496.427    501.507    496.427    497.097    496.427
 41.370    520.000    502.367     17.633    496.263    501.690    496.263    496.943    496.263
 41.470    516.000    502.639     13.361    496.102    501.952    496.102    496.790    496.102
 41.570    505.534    503.018      2.516    495.942    502.323    495.942    496.640    495.942
 41.670    528.958    503.558     25.399    495.784    502.853    495.784    496.491    495.784
 41.770    499.000    504.367     -5.367    495.627    503.653    495.627    496.345    495.627
 41.870    494.191    505.686    -11.495    495.473    504.962    495.473    496.201    495.473
 41.970    481.000    508.024    -27.024    495.320    507.290    495.320    496.058    495.320
 42.070    540.681    512.323     28.358    495.169    511.580    495.169    495.918    495.169
 42.170    513.000    520.025     -7.025    495.019    519.273    495.019    495.780    495.019
 42.270    521.000    532.774    -11.774    494.871    532.017    494.871    495.645    494.871
 42.370    543.000    551.582     -8.582    494.726    550.822    494.726    495.511    494.726
 42.470    575.967    575.506      0.462    494.581    574.745    494.581    495.380    494.581
 42.570    606.249    600.283      5.965    494.439    599.524    494.439    495.250    494.439
 42.670    611.799    618.022     -6.223    494.298    617.261    494.298    495.123    494.298
 42.770    563.000    620.574    -57.574    494.159    619.802    494.159    494.999    494.159
 42.870    603.000    606.432     -3.432    494.022    605.641    494.022    494.876    494.022
 42.970    547.000    582.493    -35.493    493.887    581.674    493.887    494.756    493.887
 43.070    566.000    557.461      8.539    493.753    556.612    493.753    494.638    493.753
 43.170    507.000    536.751    -29.751    493.621    535.873    493.621    494.523    493.621
 43.270    509.000    522.126    -13.126    493.491    521.222    493.491    494.410    493.491
 43.370    494.000    512.982    -18.982    493.362    512.054    493.362    494.300    493.362
 43.470    523.000    507.728     15.272    493.235    506.778    493.235    494.192    493.235
 43.570    484.131    504.802    -20.671    493.110    503.830    493.110    494.086    493.110
 43.670    516.000    503.109     12.891    492.987    502.116    492.987    493.983    492.987
 43.770    478.000    502.033    -24.033    492.865    501.019    492.865    493.883    492.865
 43.870    513.686    501.276     12.409    492.746    500.239    492.746    493.785    492.746
 43.970    517.000    500.704     16.296    492.628    499.643    492.628    493.690    492.628
 44.070    531.000    500.253     30.747    492.511    499.167    492.511    493.598    492.511
 44.170    482.000    499.891    -17.891    492.397    498.780    492.397    493.509    492.397
 44.270    470.106    499.599    -29.493    492.284    498.461    492.284    493.423    492.284
 44.370    511.000    499.362     11.638    492.173    498.196    492.173    493.340    492.173
 44.470    454.000    499.171    -45.171    492.063    497.975    492.063    493.260    492.063
 44.570    537.000    499.018     37.982    491.956    497.791    491.956    493.183    491.956
 44.670    524.000    498.897     25.103    491.850    497.638    491.850    493.110    491.850
 44.770    511.000    498.806     12.194    491.745    497.513    491.745    493.040    491.745
 44.870    523.079    498.741     24.338    491.643    497.411    491.643    492.973    491.643
 44.970    528.000    498.700     29.300    491.542    497.332    491.542    492.911    491.542
 45.070    507.598    498.681      8.918    491.443    497.273    491.443    492.852    491.443
 45.170    531.000    498.683     32.317    491.346    497.233    491.346    492.797    491.346
 45.270    542.000    498.707     43.293    491.250    497.211    491.250    492.747    491.250
 45.370    496.245    498.752     -2.507    491.156    497.208    491.156    492.701    491.156
 45.470    504.000    498.818      5.182    491.064    497.223    491.064    492.659    491.064
 45.570    498.000    498.906     -0.906    490.973    497.256    490.973    492.623    490.973
 45.670    509.000    499.017      9.983    490.885    497.309    490.885    492.592    490.885
 45.770    504.000    499.153      4.847    490.797    497.383    490.797    492.567    490.797
 45.870    492.000    499.315     -7.315    490.712    497.480    490.712    492.547    490.712
 45.970    510.000    499.507     10.493    490.628    497.601    490.628    492.534    490.628
 46.070    525.877    499.731     26.146    490.546    497.749    490.546    492.528    490.546
 46.170    506.000    499.992      6.008    490.466    497.927    490.466    492.530    490.466
 46.270    515.000    500.294     14.706    490.387    498.142    490.387    492.539    490.387
 46.370    529.882    500.646     29.236    490.310    498.398    490.310    492.558    490.310
 46.470    468.643    501.054    -32.411    490.235    498.703    490.235    492.586    490.235
 46.570    468.000    501.532    -33.532    490.161    499.069    490.161    492.624    490.161
 46.670    538.000    502.098     35.902    490.089    499.512    490.089    492.674    490.089
 46.770    498.000    502.782     -4.782    490.019    500.063    490.019    492.737    490.019
 46.870    478.000    503.644    -25.644    489.950    500.779    489.950    492.814    489.950
 46.970    531.691    504.809     26.883    489.883    501.782    489.883    492.907    489.883
 47.070    507.433    506.521      0.911    489.818    503.317    489.818    493.019    489.818
 47.170    495.299    509.224    -13.926    489.754    505.822    489.754    493.151    489.754
 47.270    482.000    513.599    -31.599    489.692    509.975    489.692    493.308    489.692
 47.370    499.000    520.487    -21.487    489.631    516.615    489.631    493.491    489.631
 47.470    515.000    530.609    -15.609    489.572    526.454    489.572    493.708    489.572
 47.570    517.081    544.059    -26.978    489.515    539.583    489.515    493.962    489.515
 47.670    593.000    559.710     33.290    489.460    554.870    489.460    494.261    489.460
 47.770    552.000    574.729    -22.729    489.406    569.474    489.406    494.612    489.406
 47.870    568.000    584.796    -16.796    489.353    579.069    489.353    495.027    489.353
 47.970    601.707    586.213     15.495    489.302    579.946    489.302    495.518    489.302
 48.070    559.000    578.905    -19.905    489.253    572.017    489.253    496.097    489.253
 48.170    528.000    566.542    -38.542    489.206    558.932    489.206    496.781    489.206
 48.270    522.000    553.539    -31.539    489.160    545.085    489.160    497.589    489.160
 48.370    585.159    542.865     42.293    489.115    533.424    489.115    498.541    489.115
 48.470    541.000    535.775      5.225    489.072    525.180    489.072    499.658    489.072
 48.570    489.000    532.286    -43.286    489.031    520.350    489.031    500.962    489.031
 48.670    522.000    531.776     -9.776    488.991    518.294    488.991    502.472    488.991
 48.770    556.000    533.497     22.503    488.953    518.247    488.953    504.202    488.953
 48.870    525.000    536.870    -11.870    488.917    519.628    488.917    506.159    488.917
 48.970    554.000    541.595     12.405    488.882    522.147    488.882    508.330    488.882
 49.070    538.000    547.668     -9.668    488.848    525.840    488.848    510.678    488.848
 49.170    561.459    555.522      5.937    488.816    531.218    488.816    513.121    488.816
 49.270    612.603    566.541     46.062    488.786    539.798    488.786    515.527    488.786
 49.370    605.000    584.340     20.660    488.757    555.385    488.757    517.705    488.757
 49.470    609.000    617.074     -8.074    488.730    586.366    488.730    519.421    488.730
 49.570    709.000    680.236     28.764    488.704    648.459    488.704    520.444    488.704
 49.670    762.789    797.541    -34.752    488.680    765.535    488.680    520.616    488.680
 49.770   1045.698    995.723     49.975    488.657    964.364    488.657    519.907    488.657
 49.870   1241.320   1290.144    -48.824    488.635   1260.207    488.635    518.429    488.635
 49.970   1712.000   1664.286     47.714    488.616   1636.356    488.616    516.393    488.616
 50.070   2124.000   2054.166     69.834    488.597   2028.606    488.597    514.039    488.597
 50.170   2261.000   2352.212    -91.212    488.580   2329.180    488.580    511.580    488.580
 50.270   2431.000   2446.133    -15.133    488.565   2425.602    488.565    509.173    488.565
 50.370   2195.000   2293.142    -98.142    488.551   2274.936    488.551    506.917    488.551
 50.470   1967.000   1959.362      7.638    488.538   1943.226    488.538    504.865    488.538
 50.570   1600.000   1564.029     35.971    488.527   1549.696    488.527    503.037    488.527
 50.670   1184.658   1207.635    -22.977    488.518   1194.857    488.518    501.435    488.518
 50.770    934.944    942.601     -7.657    488.509    931.164    488.509    500.046    488.509
 50.870    787.000    775.501     11.499    488.503    765.221    488.503    498.852    488.503
 50.970    680.588    684.833     -4.245    488.497    675.551    488.497    497.832    488.497
 51.070    629.000    640.821    -11.821    488.493    632.393    488.493    496.964    488.493
 51.170    618.000    618.288     -0.288    488.491    610.589    488.491    496.229    488.491
 51.270    585.435    602.008    -16.573    488.490    594.927    488.490    495.606    488.490
 51.370    559.000    586.446    -27.446    488.490    579.886    488.490    495.079    488.490
 51.470    617.159    571.500     45.660    488.491    565.380    488.491    494.634    488.491
 51.570    550.000    558.420     -8.420    488.494    552.676    488.494    494.256    488.494
 51.670    593.674    548.105     45.569    488.499    542.680    488.499    493.937    488.499
 51.770    559.429    540.770     18.659    488.504    535.618    488.504    493.666    488.504
 51.870    574.946    536.106     38.840    488.511    531.188    488.511    493.436    488.511
 51.970    489.116    533.561    -44.445    488.520    528.844    488.520    493.242    488.520
 52.070    544.000    532.602     11.398    488.529    528.057    488.529    493.079    488.529
 52.170    551.002    532.865     18.137    488.540    528.467    488.540    492.942    488.540
 52.270    524.000    534.215    -10.215    488.553    529.943    488.553    492.829    488.553
 52.370    585.000    536.794     48.206    488.566    532.628    488.566    492.736    488.566
 52.470    550.000    541.135      8.865    488.581    537.058    488.581    492.662    488.581
 52.570    575.293    548.428     26.865    488.598    544.424    488.598    492.605    488.598
 52.670    515.267    560.914    -45.647    488.615    556.969    488.615    492.563    488.615
 52.770    602.000    582.283     19.717    488.634    578.383    488.634    492.535    488.634
 52.870    628.000    617.715     10.285    488.654    613.849    488.654    492.520    488.654
 52.970    685.000    673.064     11.936    488.675    669.222    488.675    492.518    488.675
 53.070    721.706    752.822    -31.115    488.698    748.994    488.698    492.527    488.698
 53.170    829.468    857.012    -27.543    488.721    853.192    488.721    492.548    488.721
 53.270    991.000    977.792     13.208    488.746    973.974    488.746    492.579    488.746
 53.370   1124.000   1096.775     27.225    488.773   1092.954    488.773    492.621    488.773
 53.470   1217.108   1185.220     31.888    488.800   1181.389    488.800    492.673    488.800
 53.570   1223.299   1213.027     10.271    488.829   1209.177    488.829    492.735    488.829
 53.670   1129.675   1168.693    -39.017    488.859   1164.806    488.859    492.806    488.859
 53.770   1049.000   1069.953    -20.953    488.890   1066.013    488.890    492.888    488.890
 53.870    901.642    948.559    -46.916    488.922    944.551    488.922    492.980    488.922
 53.970    841.602    831.256     10.347    488.955    827.169    488.955    493.081    488.955
 54.070    718.000    733.607    -15.607    488.990    729.432    488.990    493.194    488.990
 54.170    638.740    661.125    -22.385    489.025    656.855    489.025    493.316    489.025
 54.270    622.000    612.294      9.706    489.062    607.920    489.062    493.450    489.062
 54.370    593.000    581.979     11.021    489.100    577.494    489.100    493.595    489.100
 54.470    561.000    564.323     -3.323    489.139    559.717    489.139    493.752    489.139
 54.570    540.000    554.474    -14.474    489.179    549.738    489.179    493.921    489.179
 54.670    569.425    549.134     20.291    489.220    544.256    489.220    494.103    489.220
 54.770    616.000    546.372     69.628    489.263    541.340    489.263    494.299    489.263
 54.870    514.029    545.182    -31.153    489.306    539.982    489.306    494.510    489.306
 54.970    576.000    545.089     30.911    489.351    539.706    489.351    494.737    489.351
 55.070    547.000    545.894      1.106    489.396    540.313    489.396    494.981    489.396
 55.170    562.000    547.533     14.467    489.443    541.737    489.443    495.243    489.443
 55.270    556.000    550.024      5.976    489.490    543.992    489.490    495.525    489.490
 55.370    569.000    553.450     15.550    489.539    547.164    489.539    495.829    489.539
 55.470    543.546    557.989    -14.443    489.589    551.426    489.589    496.156    489.589
 55.570    565.000    563.994      1.006    489.639    557.129    489.639    496.509    489.639
 55.670    550.001    572.181    -22.180    489.691    564.985    489.691    496.890    489.691
 55.770    554.249    584.019    -29.770    489.744    576.464    489.744    497.302    489.744
 55.870    595.000    602.431     -7.431    489.797    594.481    489.797    497.749    489.797
 55.970    623.099    632.796     -9.697    489.852    624.411    489.852    498.235    489.852
 56.070    702.000    684.026     17.974    489.908    675.161    489.908    498.765    489.908
 56.170    751.000    769.007    -18.007    489.964    759.612    489.964    499.343    489.964
 56.270    886.000    903.295    -17.295    490.022    893.314    490.022    499.978    490.022
 56.370   1044.000   1101.028    -57.028    490.080   1090.399    490.080    500.676    490.080
 56.470   1311.000   1367.991    -56.991    490.139   1356.650    490.139    501.449    490.139
 56.570   1620.871   1693.381    -72.510    490.199   1681.258    490.199    502.308    490.199
 56.670   1964.000   2042.921    -78.921    490.261   2029.938    490.261    503.268    490.261
 56.770   2289.000   2356.625    -67.625    490.323   2342.691    490.323    504.348    490.323
 56.870   2480.160   2558.039    -77.879    490.385   2543.032    490.385    505.568    490.385
 56.970   2633.098   2584.571     48.527    490.449   2568.322    490.449    506.955    490.449
 57.070   2348.508   2427.325    -78.817    490.514   2409.603    490.514    508.541    490.514
 57.170   2124.000   2138.405    -14.405    490.579   2118.930    490.579    510.362    490.579
 57.270   1845.000   1795.224     49.776    490.646   1773.684    490.646    512.461    490.646
 57.370   1524.000   1463.910     60.090    490.713   1439.961    490.713    514.885    490.713
 57.470   1148.739   1185.469    -36.730    490.781   1158.728    490.781    517.689    490.781
 57.570    976.668    976.269      0.398    490.849    946.305    490.849    520.931    490.849
 57.670    887.571    834.220     53.351    490.919    800.545    490.919    524.671    490.919
 57.770    729.460    747.064    -17.604    490.989    709.131    490.989    528.972    490.989
 57.870    739.037    700.057     38.980    491.060    657.256    491.060    533.892    491.060
 57.970    643.868    681.064    -37.197    491.132    632.731    491.132    539.484    491.132
 58.070    635.279    682.619    -47.340    491.205    628.051    491.205    545.781    491.205
 58.170    721.943    701.663     20.280    491.278    640.148    491.278    552.792    491.278
 58.270    754.164    737.992     16.172    491.352    668.857    491.352    560.478    491.352
 58.370    767.000    792.224    -25.224    491.427    714.905    491.427    568.729    491.427
 58.470    884.000    863.831     20.169    491.502    777.975    491.502    577.334    491.502
 58.570    950.662    949.559      1.103    491.578    855.164    491.578    585.949    491.578
 58.670   1005.000   1042.566    -37.566    491.655    940.125    491.655    594.077    491.655
 58.770   1196.905   1133.172     63.733    491.733   1023.806    491.733    601.089    491.733
 58.870   1220.000   1211.846      8.154    491.811   1097.357    491.811    606.306    491.811
 58.970   1302.000   1271.363     30.637    491.890   1154.146    491.890    609.130    491.890
 59.070   1352.000   1305.416     46.584    491.969   1188.216    491.969    609.209    491.969
 59.170   1377.264   1308.752     68.512    492.049   1194.308    492.049    606.546    492.049
 59.270   1294.821   1282.317     12.505    492.130   1173.008    492.130    601.493    492.130
 59.370   1346.000   1236.461    109.539    492.211   1134.066    492.211    594.648    492.211
 59.470   1250.000   1186.283     63.717    492.293   1091.899    492.293    586.693    492.293
 59.570   1159.000   1145.846     13.154    492.375   1059.947    492.375    578.255    492.375
 59.670   1173.000   1127.215     45.785    492.458   1049.782    492.458    569.830    492.458
 59.770   1219.000   1140.684     78.316    492.542   1071.356    492.542    561.762    492.542
 59.870   1207.894   1191.642     16.251    492.626   1129.848    492.626    554.263    492.626
 59.970   1418.000   1275.941    142.059    492.711   1221.008    492.711    547.441    492.711
 60.070   1399.000   1377.596     21.404    492.796   1328.819    492.796    541.335    492.796
 60.170   1515.000   1469.964     45.036    492.881   1426.657    492.881    535.939    492.881
 60.270   1548.000   1521.580     26.420    492.968   1483.095    492.968    531.217    492.968
 60.370   1435.835   1508.260    -72.426    493.054   1473.999    493.054    527.119    493.054
 60.470   1392.853   1426.340    -33.488    493.141   1395.749    493.141    523.586    493.141
 60.570   1282.000   1294.152    -12.152    493.229   1266.725    493.229    520.558    493.229
 60.670   1183.000   1140.099     42.901    493.317   1115.385    493.317    517.973    493.317
 60.770   1025.780    990.117     35.662    493.406    967.718    493.406    515.774    493.406
 60.870    892.000    861.832     30.168    493.494    841.403    493.494    513.908    493.494
 60.970    769.000    763.722      5.278    493.584    744.971    493.584    512.327    493.584
 61.070    698.000    696.949      1.051    493.674    679.627    493.674    510.988    493.674
 61.170    631.000    658.543    -27.543    493.764    642.441    493.764    509.854    493.764
 61.270    660.000    644.738     15.262    493.854    629.682    493.854    508.892    493.854
 61.370    675.000    653.370     21.630    493.945    639.213    493.945    508.073    493.945
 61.470    685.000    684.753      0.247    494.036    671.374    494.036    507.371    494.036
 61.570    735.976    740.966     -4.990    494.128    728.267    494.128    506.762    494.128
 61.670    859.170    823.844     35.326    494.220    811.751    494.220    506.225    494.220
 61.770    894.000    932.269    -38.269    494.312    920.729    494.312    505.740    494.312
 61.870   1026.000   1059.554    -33.554    494.405   1048.536    494.405    505.290    494.405
 61.970   1233.339   1191.768     41.571    494.498   1181.256    494.498    504.864    494.498
 62.070   1241.000   1307.784    -66.784    494.591   1297.779    494.591    504.454    494.591
 62.170   1347.000   1382.627    -35.627    494.684   1373.132    494.684    504.056    494.684
 62.270   1428.263   1396.071     32.192    494.778   1387.085    494.778    503.673    494.778
 62.370   1309.000   1343.632    -34.632    494.872   1335.142    494.872    503.307    494.872
 62.470   1181.000   1239.671    -58.671    494.966   1231.650    494.966    502.962    494.966
 62.570   1085.000   1108.602    -23.602    495.061   1101.018    495.061    502.640    495.061
 62.670    971.000    973.947     -2.947    495.155    966.765    495.155    502.345    495.155
 62.770    804.000    852.740    -48.740    495.250    845.926    495.250    502.076    495.250
 62.870    702.000    754.305    -52.305    495.345    747.827    495.345    501.834    495.345
 62.970    708.000    681.148     26.852    495.441    674.979    495.441    501.619    495.441
 63.070    639.000    630.967      8.033    495.536    625.080    495.536    501.428    495.536
 63.170    621.696    599.029     22.668    495.632    593.402    495.632    501.260    495.632
 63.270    622.000    580.218     41.782    495.727    574.831    495.727    501.114    495.727
 63.370    608.046    570.336     37.711    495.823    565.168    495.823    500.988    495.823
 63.470    577.000    566.652     10.348    495.919    561.687    495.919    500.880    495.919
 63.570    584.000    567.960     16.040    496.015    563.179    496.015    500.789    496.015
 63.670    581.000    574.382      6.618    496.112    569.768    496.112    500.713    496.112
 63.770    568.000    587.092    -19.092    496.208    582.631    496.208    500.651    496.208
 63.870    593.000    607.948    -14.948    496.304    603.624    496.304    500.602    496.304
 63.970    670.259    638.976     31.284    496.401    634.774    496.401    500.564    496.401
 64.070    667.165    681.660    -14.495    496.497    677.568    496.497    500.537    496.497
 64.170    735.000    736.089     -1.089    496.594    732.095    496.594    500.519    496.594
 64.270    783.186    800.079    -16.893    496.690    796.174    496.690    500.510    496.690
 64.370    845.000    868.490    -23.490    496.787    864.669    496.787    500.509    496.787
 64.470    946.996    933.036     13.960    496.883    929.299    496.883    500.516    496.883
 64.570    946.475    983.361    -36.885    496.980    979.708    496.980    500.529    496.980
 64.670   1023.000   1010.098     12.902    497.077   1006.535    497.077    500.548    497.077
 64.770    966.835   1008.762    -41.926    497.173   1005.289    497.173    500.573    497.173
 64.870    982.000    981.351      0.649    497.270    977.967    497.270    500.603    497.270
 64.970    980.000    934.828     45.172    497.366    931.528    497.366    500.639    497.366
 65.070    853.287    878.335    -25.049    497.462    875.113    497.462    500.679    497.462
 65.170    853.000    820.373     32.627    497.559    817.219    497.559    500.724    497.559
 65.270    769.000    766.790      2.210    497.655    763.695    497.655    500.773    497.655
 65.370    699.000    720.322    -21.322    497.751    717.278    497.751    500.826    497.751
 65.470    717.695    681.447     36.248    497.847    678.445    497.847    500.882    497.847
 65.570    697.654    649.654     48.000    497.943    646.685    497.943    500.943    497.943
 65.670    623.000    624.236     -1.236    498.039    621.294    498.039    501.007    498.039
 65.770    591.000    604.449    -13.449    498.134    601.530    498.134    501.074    498.134
 65.870    555.000    589.500    -34.500    498.230    586.601    498.230    501.145    498.230
 65.970    580.721    578.609      2.112    498.325    575.726    498.325    501.218    498.325
 66.070    545.000    571.078    -26.078    498.420    568.209    498.420    501.295    498.420
 66.170    554.000    566.324    -12.324    498.515    563.469    498.515    501.375    498.515
 66.270    541.000    563.879    -22.879    498.610    561.034    498.610    501.458    498.610
 66.370    531.000    563.384    -32.384    498.704    560.548    498.704    501.544    498.704
 66.470    535.000    564.626    -29.626    498.798    561.795    498.798    501.633    498.798
 66.570    564.776    567.593     -2.816    498.892    564.765    498.892    501.724    498.892
 66.670    604.000    572.587     31.413    498.986    569.759    498.986    501.819    498.986
 66.770    599.000    580.407     18.593    499.079    577.575    499.079    501.916    499.079
 66.870    603.000    592.617     10.383    499.173    589.777    499.173    502.017    499.173
 66.970    568.000    611.913    -43.913    499.265    609.062    499.265    502.120    499.265
 67.070    655.000    642.508     12.492    499.358    639.640    499.358    502.226    499.358
 67.170    725.000    690.356     34.644    499.450    687.469    499.450    502.336    499.450
 67.270    723.000    762.962    -39.962    499.542    760.053    499.542    502.448    499.542
 67.370    866.378    868.468     -2.089    499.634    865.535    499.634    502.564    499.634
 67.470   1017.000   1013.826      3.174    499.725   1010.872    499.725    502.684    499.725
 67.570   1154.000   1202.201    -48.201    499.816   1199.231    499.816    502.806    499.816
 67.670   1428.000   1430.054     -2.054    499.907   1427.077    499.907    502.933    499.907
 67.770   1619.000   1684.656    -65.656    499.997   1681.683    499.997    503.063    499.997
 67.870   1937.000   1942.668     -5.668    500.087   1939.712    500.087    503.198    500.087
 67.970   2182.496   2170.498     11.998    500.176   2167.568    500.176    503.337    500.176
 68.070   2363.000   2328.382     34.618    500.265   2325.477    500.265    503.480    500.265
 68.170   2444.000   2381.551     62.449    500.354   2378.654    500.354    503.629    500.354
 68.270   2301.000   2316.640    -15.640    500.442   2313.715    500.442    503.782    500.442
 68.370   2222.000   2149.799     72.201    500.529   2146.804    500.529    503.941    500.529
 68.470   1867.593   1917.161    -49.568    500.617   1914.059    500.617    504.106    500.617
 68.570   1750.000   1658.348     91.652    500.703   1655.110    500.703    504.278    500.703
 68.670   1480.000   1406.008     73.992    500.790   1402.618    500.790    504.457    500.790
 68.770   1198.000   1182.331     15.669    500.875   1178.779    500.875    504.643    500.875
 68.870    991.000    998.967     -7.967    500.961    995.251    500.961    504.837    500.961
 68.970    864.625    858.599      6.027    501.045    854.718    501.045    505.040    501.045
 69.070    719.569    757.503    -37.934    501.130    753.458    501.130    505.253    501.130
 69.170    671.631    688.467    -16.836    501.213    684.257    501.213    505.477    501.213
 69.270    660.000    643.327     16.673    501.296    638.947    501.296    505.713    501.296
 69.370    614.000    614.692     -0.692    501.379    610.136    501.379    505.961    501.379
 69.470    607.706    596.770     10.936    501.461    592.026    501.461    506.224    501.461
 69.570    553.945    585.494    -31.549    501.542    580.548    501.542    506.503    501.542
 69.670    585.000    578.252      6.748    501.623    573.087    501.623    506.800    501.623
 69.770    522.000    573.493    -51.493    501.703    568.090    501.703    507.117    501.703
 69.870    577.000    570.350      6.650    501.783    564.685    501.783    507.456    501.783
 69.970    561.000    568.364     -7.364    501.862    562.411    501.862    507.821    501.862
 70.070    580.791    567.307     13.484    501.940    561.038    501.940    508.216    501.940
 70.170    595.000    567.088     27.912    502.018    560.467    502.018    508.644    502.018
 70.270    614.000    567.712     46.288    502.095    560.700    502.095    509.112    502.095
 70.370    614.176    569.282     44.893    502.172    561.830    502.172    509.627    502.172
 70.470    575.000    572.043      2.957    502.247    564.095    502.247    510.196    502.247
 70.570    593.669    576.463     17.206    502.322    567.953    502.322    510.833    502.322
 70.670    629.087    583.373     45.714    502.397    574.219    502.397    511.549    502.397
 70.770    585.000    594.140     -9.140    502.470    584.243    502.470    512.363    502.470
 70.870    601.000    610.869     -9.869    502.543    600.109    502.543    513.295    502.543
 70.970    625.570    636.567    -10.998    502.615    624.797    502.615    514.371    502.615
 71.070    719.084    675.155     43.928    502.687    662.197    502.687    515.621    502.687
 71.170    697.000    731.214    -34.214    502.757    716.853    502.757    517.082    502.757
 71.270    761.932    809.340    -47.408    502.827    793.320    502.827    518.795    502.827
 71.370    907.000    913.083     -6.083    502.896    895.102    502.896    520.806    502.896
 71.470   1037.000   1043.572     -6.572    502.964   1023.279    502.964    523.165    502.964
 71.570   1140.865   1198.085    -57.221    503.032   1175.080    503.032    525.924    503.032
 71.670   1327.006   1368.870    -41.864    503.099   1342.704    503.099    529.134    503.099
 71.770   1603.584   1542.478     61.107    503.165   1512.659    503.165    532.842    503.165
 71.870   1760.996   1699.932     61.064    503.230   1665.934    503.230    537.087    503.230
 71.970   1813.000   1818.632     -5.632    503.294   1779.908    503.294    541.892    503.294
 72.070   1821.000   1877.555    -56.555    503.357   1833.556    503.357    547.259    503.357
 72.170   1823.000   1865.340    -42.340    503.420   1815.545    503.420    553.155    503.420
 72.270   1713.793   1785.902    -72.109    503.482   1729.862    503.482    559.500    503.482
 72.370   1692.000   1656.208     35.792    503.542   1593.612    503.542    566.149    503.542
 72.470   1502.893   1498.586      4.307    503.602   1429.351    503.602    572.870    503.602
 72.570   1333.480   1333.862     -0.382    503.661   1258.243    503.661    579.327    503.661
 72.670   1223.692   1177.965     45.727    503.720   1096.654    503.720    585.082    503.720
 72.770   1040.000   1041.041     -1.041    503.777    955.236    503.777    589.633    503.777
 72.870    951.848    927.816     24.032    503.833    839.200    503.833    592.497    503.833
 72.970    830.000    838.670     -8.670    503.888    749.273    503.888    593.327    503.888
 73.070    736.848    771.077    -34.229    503.943    683.034    503.943    592.021    503.943
 73.170    683.000    721.082    -38.082    503.996    636.354    503.996    588.754    503.996
 73.270    696.211    684.473     11.738    504.049    604.626    504.049    583.921    504.049
 73.370    710.000    657.529     52.471    504.100    583.627    504.100    578.023    504.100
 73.470    630.000    637.338     -7.338    504.151    569.955    504.151    571.552    504.151
 73.570    619.000    621.843     -2.843    504.200    561.141    504.200    564.921    504.200
 73.670    617.000    609.715      7.285    504.249    555.546    504.249    558.435    504.249
 73.770    646.337    600.157     46.180    504.297    552.169    504.297    552.302    504.297
 73.870    586.000    592.715     -6.715    504.343    550.430    504.343    546.647    504.343
 73.970    591.000    587.117      3.883    504.389    549.993    504.389    541.535    504.389
 74.070    584.000    583.153      0.847    504.433    550.626    504.433    536.986    504.433
 74.170    602.000    580.591     21.409    504.476    552.104    504.476    532.993    504.476
 74.270    610.000    579.125     30.875    504.519    554.152    504.519    529.527    504.519
 74.370    625.000    578.353     46.647    504.560    556.408    504.560    526.546    504.560
 74.470    620.000    577.779     42.221    504.600    558.422    504.600    524.003    504.600
 74.570    642.000    576.856     65.144    504.640    559.700    504.640    521.844    504.640
 74.670    613.824    575.107     38.717    504.678    559.817    504.678    520.019    504.678
 74.770    561.064    572.295    -11.231    504.715    558.581    504.715    518.478    504.715
 74.870    570.000    568.519      1.481    504.750    556.138    504.750    517.177    504.750
 74.970    569.726    564.159      5.567    504.785    552.910    504.785    516.076    504.785
 75.070    635.000    559.728     75.272    504.819    549.443    504.819    515.139    504.819
 75.170    587.000    555.761     31.239    504.851    546.301    504.851    514.339    504.851
 75.270    572.000    552.767     19.233    504.883    544.021    504.883    513.650    504.883
 75.370    586.000    551.241     34.759    504.913    543.117    504.913    513.052    504.913
 75.470    559.000    551.669      7.331    504.942    544.090    504.942    512.529    504.942
 75.570    590.000    554.537     35.463    504.970    547.439    504.970    512.069    504.970
 75.670    515.849    560.309    -44.459    504.997    553.639    504.997    511.661    504.997
 75.770    551.000    569.374    -18.374    505.022    563.087    505.022    511.297    505.022
 75.870    574.000    581.958     -7.958    505.046    576.015    505.046    510.970    505.046
 75.970    606.000    598.002      7.998    505.070    592.371    505.070    510.675    505.070
 76.070    597.000    617.042    -20.042    505.091    611.692    505.091    510.407    505.091
 76.170    655.000    638.101     16.899    505.112    633.008    505.112    510.163    505.112
 76.270    683.301    659.635     23.666    505.132    654.778    505.132    509.940    505.132
 76.370    680.000    679.544      0.456    505.150    674.906    505.150    509.736    505.150
 76.470    681.503    695.331    -13.828    505.167    690.896    505.167    509.548    505.167
 76.570    722.000    704.525     17.475    505.183    700.280    505.183    509.374    505.183
 76.670    712.258    705.413      6.844    505.197    701.347    505.197    509.214    505.197
 76.770    671.000    697.736    -26.736    505.211    693.837    505.211    509.065    505.211
 76.870    677.000    682.809     -5.809    505.223    679.068    505.223    508.926    505.223
 76.970    699.507    662.954     36.553    505.233    659.360    505.233    508.797    505.233
 77.070    605.000    640.707    -35.707    505.243    637.251    505.243    508.676    505.243
 77.170    591.228    618.288    -27.059    505.251    614.958    505.251    508.563    505.251
 77.270    580.000    597.367    -17.367    505.258    594.156    505.258    508.457    505.258
 77.370    576.000    579.027     -3.027    505.264    575.926    505.264    508.357    505.264
 77.470    543.000    563.797    -20.797    505.268    560.797    505.268    508.262    505.268
 77.570    554.625    551.746      2.879    505.271    548.841    505.271    508.173    505.271
 77.670    524.579    542.616    -18.037    505.272    539.799    505.272    508.088    505.272
 77.770    504.000    535.957    -31.957    505.273    533.221    505.273    508.007    505.273
 77.870    547.420    531.248     16.173    505.272    528.589    505.272    507.930    505.272
 77.970    504.000    527.991    -23.991    505.269    525.404    505.269    507.856    505.269
 78.070    531.000    525.765      5.235    505.266    523.245    505.266    507.786    505.266
 78.170    489.464    524.241    -34.777    505.261    521.784    505.261    507.718    505.261
 78.270    515.000    523.187     -8.187    505.254    520.788    505.254    507.653    505.254
 78.370    545.000    522.443     22.557    505.246    520.100    505.246    507.590    505.246
 78.470    518.000    521.914     -3.914    505.237    519.622    505.237    507.529    505.237
 78.570    497.000    521.544    -24.544    505.227    519.300    505.227    507.471    505.227
 78.670    526.000    521.305      4.695    505.215    519.106    505.215    507.414    505.215
 78.770    500.000    521.191    -21.191    505.202    519.033    505.202    507.359    505.202
 78.870    498.000    521.207    -23.207    505.187    519.088    505.187    507.306    505.187
 78.970    565.000    521.362     43.638    505.171    519.278    505.171    507.254    505.171
 79.070    557.799    521.659     36.140    505.153    519.608    505.153    507.204    505.153
 79.170    501.000    522.192    -21.192    505.134    520.170    505.134    507.156    505.134
 79.270    535.092    522.963     12.129    505.114    520.967    505.114    507.108    505.114
 79.370    532.262    524.004      8.259    505.092    522.032    505.092    507.062    505.092
 79.470    555.952    525.356     30.596    505.069    523.406    505.069    507.018    505.069
 79.570    528.000    527.072      0.928    505.044    525.139    505.044    506.974    505.044
 79.670    495.000    529.219    -34.219    505.018    527.302    505.018    506.932    505.018
 79.770    538.566    531.895      6.671    504.991    529.992    504.991    506.890    504.991
 79.870    500.000    535.241    -35.241    504.962    533.349    504.962    506.849    504.962
 79.970    528.931    539.453    -10.521    504.931    537.571    504.931    506.809    504.931
 80.070    517.000    544.798    -27.798    504.899    542.925    504.899    506.769    504.899
 80.170    540.000    551.628    -11.628    504.866    549.763    504.866    506.729    504.866
 80.270    530.466    560.357    -29.890    504.831    558.500    504.831    506.687    504.831
 80.370    559.000    571.400    -12.400    504.795    569.552    504.795    506.645    504.795
 80.470    538.000    585.071    -47.071    504.757    583.233    504.757    506.600    504.757
 80.570    607.237    601.474      5.763    504.718    599.648    504.718    506.552    504.718
 80.670    636.670    620.416     16.254    504.677    618.606    504.677    506.500    504.677
 80.770    598.934    641.351    -42.418    504.635    639.561    504.635    506.444    504.635
 80.870    705.334    663.373     41.961    504.591    661.605    504.591    506.384    504.591
 80.970    691.237    685.280      5.957    504.546    683.539    504.546    506.318    504.546
 81.070    693.000    705.733    -12.733    504.499    704.021    504.499    506.249    504.499
 81.170    709.000    723.437    -14.437    504.451    721.756    504.451    506.176    504.451
 81.270    764.000    737.289     26.711    504.401    735.640    504.401    506.101    504.401
 81.370    714.211    746.464    -32.253    504.350    744.849    504.350    506.023    504.350
 81.470    742.000    750.483     -8.483    504.297    748.900    504.297    505.943    504.297
 81.570    736.000    749.235    -13.235    504.243    747.682    504.243    505.863    504.243
 81.670    702.836    742.937    -40.101    504.187    741.414    504.187    505.782    504.187
 81.770    697.129    732.101    -34.972    504.130    730.604    504.130    505.700    504.130
 81.870    696.028    717.563    -21.535    504.071    716.089    504.071    505.619    504.071
 81.970    714.000    700.464     13.536    504.010    699.011    504.010    505.537    504.010
 82.070    703.000    682.061     20.939    503.948    680.625    503.948    505.455    503.948
 82.170    675.000    663.447     11.553    503.885    662.026    503.885    505.373    503.885
 82.270    672.000    645.383     26.617    503.820    643.973    503.820    505.291    503.820
 82.370    629.000    628.301      0.699    503.753    626.902    503.753    505.210    503.753
 82.470    601.144    612.434    -11.290    503.685    611.043    503.685    505.128    503.685
 82.570    637.000    597.954     39.046    503.615    596.570    503.615    505.046    503.615
 82.670    592.136    585.044      7.092    503.544    583.664    503.544    504.963    503.544
 82.770    581.000    573.894      7.106    503.471    572.517    503.471    504.880    503.471
 82.870    539.000    564.671    -25.671    503.397    563.296    503.397    504.797    503.397
 82.970    560.000    557.500      2.500    503.321    556.125    503.321    504.713    503.321
 83.070    520.000    552.445    -32.445    503.243    551.069    503.243    504.629    503.243
 83.170    523.419    549.509    -26.090    503.164    548.131    503.164    504.544    503.164
 83.270    527.000    548.612    -21.612    503.084    547.232    503.084    504.458    503.084
 83.370    587.941    549.582     38.358    503.002    548.198    503.002    504.372    503.002
 83.470    545.356    552.139     -6.783    502.918    550.751    502.918    504.284    502.918
 83.570    521.000    555.893    -34.893    502.832    554.501    502.832    504.196    502.832
 83.670    556.865    560.350     -3.486    502.746    558.953    502.746    504.107    502.746
 83.770    556.000    564.928     -8.928    502.657    563.528    502.657    504.017    502.657
 83.870    567.000    568.993     -1.993    502.567    567.589    502.567    503.926    502.567
 83.970    533.732    571.915    -38.183    502.475    570.509    502.475    503.833    502.475
 84.070    540.000    573.173    -33.173    502.382    571.767    502.382    503.740    502.382
 84.170    544.000    572.469    -28.469    502.287    571.063    502.287    503.646    502.287
 84.270    600.802    569.806     30.996    502.191    568.402    502.191    503.551    502.191
 84.370    568.000    565.471      2.529    502.093    564.071    502.093    503.454    502.093
 84.470    589.991    559.933     30.057    501.994    558.536    501.994    503.357    501.994
 84.570    542.000    553.720    -11.720    501.893    552.325    501.893    503.258    501.893
 84.670    562.716    547.326     15.390    501.790    545.933    501.790    503.159    501.790
 84.770    540.000    541.164     -1.164    501.686    539.773    501.686    503.058    501.686
 84.870    514.615    535.542    -20.927    501.580    534.151    501.580    502.956    501.580
 84.970    511.000    530.657    -19.657    501.472    529.264    501.472    502.853    501.472
 85.070    566.287    526.601     39.686    501.363    525.206    501.363    502.749    501.363
 85.170    547.895    523.382     24.513    501.253    521.984    501.253    502.644    501.253
 85.270    489.078    520.948    -31.870    501.141    519.545    501.141    502.538    501.141
 85.370    501.000    519.210    -18.210    501.027    517.801    501.027    502.431    501.027
 85.470    497.505    518.067    -20.563    500.912    516.652    500.912    502.322    500.912
 85.570    489.000    517.430    -28.430    500.795    516.008    500.795    502.213    500.795
 85.670    530.000    517.232     12.768    500.676    515.801    500.676    502.102    500.676
 85.770    496.000    517.439    -21.439    500.556    515.999    500.556    501.991    500.556
 85.870    491.028    518.054    -27.026    500.435    516.604    500.435    501.878    500.435
 85.970    547.688    519.125     28.563    500.312    517.664    500.312    501.764    500.312
 86.070    521.000    520.736      0.264    500.187    519.262    500.187    501.650    500.187
 86.170    554.000    523.006     30.994    500.061    521.519    500.061    501.534    500.061
 86.270    485.417    526.081    -40.664    499.933    524.579    499.933    501.417    499.933
 86.370    515.000    530.118    -15.118    499.803    528.598    499.803    501.300    499.803
 86.470    573.000    535.265     37.735    499.672    533.727    499.672    501.181    499.672
 86.570    543.000    541.639      1.361    499.540    540.080    499.540    501.062    499.540
 86.670    521.000    549.287    -28.287    499.405    547.706    499.405    500.941    499.405
 86.770    586.000    558.161     27.839    499.270    556.556    499.270    500.820    499.270
 86.870    579.000    568.082     10.918    499.133    566.451    499.133    500.698    499.133
 86.970    578.000    578.719     -0.719    498.994    577.062    498.994    500.575    498.994
 87.070    633.000    589.578     43.422    498.853    587.893    498.853    500.452    498.853
 87.170    613.000    600.003     12.997    498.712    598.292    498.712    500.327    498.712
 87.270    623.682    609.213     14.470    498.568    607.476    498.568    500.202    498.568
 87.370    655.000    616.373     38.627    498.423    614.614    498.423    500.076    498.423
 87.470    608.000    620.748    -12.748    498.277    618.969    498.277    499.950    498.277
 87.570    681.000    621.880     59.120    498.128    620.083    498.128    499.823    498.128
 87.670    650.000    619.727     30.273    497.979    617.915    497.979    499.696    497.979
 87.770    660.000    614.673     45.327    497.828    612.848    497.828    499.568    497.828
 87.870    567.088    607.416    -40.328    497.675    605.578    497.675    499.440    497.675
 87.970    600.000    598.808      1.192    497.521    596.957    497.521    499.311    497.521
 88.070    644.000    589.731     54.269    497.365    587.866    497.365    499.182    497.365
 88.170    586.000    581.009      4.991    497.208    579.127    497.208    499.053    497.208
 88.270    572.442    573.349     -0.907    497.049    571.449    497.049    498.924    497.049
 88.370    623.000    567.304     55.696    496.889    565.383    496.889    498.795    496.889
 88.470    541.243    563.245    -22.002    496.727    561.301    496.727    498.665    496.727
 88.570    557.721    561.354     -3.633    496.564    559.384    496.564    498.536    496.564
 88.670    598.000    561.627     36.373    496.399    559.629    496.399    498.408    496.399
 88.770    590.000    563.883     26.117    496.233    561.856    496.233    498.280    496.233
 88.870    557.390    567.785    -10.395    496.065    565.725    496.065    498.152    496.065
 88.970    558.000    572.857    -14.857    495.896    570.762    495.896    498.025    495.896
 89.070    541.000    578.515    -37.515    495.726    576.383    495.726    497.899    495.726
 89.170    591.367    584.097      7.270    495.554    581.925    495.554    497.775    495.554
 89.270    545.277    588.904    -43.627    495.380    586.688    495.380    497.651    495.380
 89.370    643.000    592.271     50.729    495.205    590.006    495.205    497.530    495.205
 89.470    608.000    593.666     14.334    495.028    591.348    495.028    497.410    495.028
 89.570    552.950    592.795    -39.844    494.851    590.418    494.851    497.293    494.851
 89.670    604.158    589.658     14.500    494.671    587.215    494.671    497.178    494.671
 89.770    600.000    584.583     15.417    494.490    582.069    494.490    497.067    494.490
 89.870    515.000    578.033    -63.033    494.308    575.440    494.308    496.960    494.308
 89.970    614.388    570.557     43.831    494.124    567.878    494.124    496.857    494.124
 90.070    577.428    562.690     14.738    493.939    559.917    493.939    496.759    493.939
 90.170    599.063    554.902     44.161    493.753    552.027    493.753    496.668    493.753
 90.270    545.988    547.566     -1.578    493.565    544.581    493.565    496.584    493.565
 90.370    507.865    540.953    -33.087    493.376    537.848    493.376    496.508    493.376
 90.470    572.395    535.231     37.163    493.185    531.997    493.185    496.441    493.185
 90.570    569.000    530.478     38.522    492.993    527.103    492.993    496.386    492.993
 90.670    548.000    526.692     21.308    492.800    523.162    492.800    496.343    492.800
 90.770    511.000    523.820    -12.820    492.605    520.120    492.605    496.315    492.605
 90.870    558.288    521.773     36.515    492.409    517.886    492.409    496.302    492.409
 90.970    506.165    520.453    -14.287    492.211    516.360    492.211    496.309    492.211
 91.070    523.271    519.768      3.503    492.013    515.449    492.013    496.336    492.013
 91.170    510.592    519.649     -9.057    491.812    515.078    491.812    496.385    491.812
 91.270    491.032    520.055    -29.023    491.611    515.206    491.611    496.460    491.611
 91.370    519.000    520.985     -1.985    491.408    515.829    491.408    496.563    491.408
 91.470    546.789    522.476     24.312    491.204    516.982    491.204    496.696    491.204
 91.570    546.000    524.610     21.390    490.999    518.744    490.999    496.862    490.999
 91.670    517.000    527.507    -10.507    490.792    521.231    490.792    497.062    490.792
 91.770    573.000    531.319     41.681    490.584    524.597    490.584    497.299    490.584
 91.870    532.896    536.229     -3.334    490.375    529.020    490.375    497.575    490.375
 91.970    531.000    542.431    -11.431    490.164    534.693    490.164    497.890    490.164
 92.070    533.000    550.118    -17.118    489.952    541.809    489.952    498.245    489.952
 92.170    544.000    559.461    -15.461    489.739    550.540    489.739    498.640    489.739
 92.270    575.000    570.589      4.411    489.525    561.015    489.525    499.074    489.525
 92.370    539.000    583.565    -44.565    489.310    573.300    489.310    499.543    489.310
 92.470    609.569    598.364     11.205    489.093    587.375    489.093    500.045    489.093
 92.570    610.000    614.851     -4.851    488.875    603.111    488.875    500.572    488.875
 92.670    546.000    632.787    -86.787    488.656    620.279    488.656    501.115    488.656
 92.770    592.000    651.788    -59.788    488.436    638.506    488.436    501.663    488.436
 92.870    662.000    671.350     -9.350    488.214    657.304    488.214    502.200    488.214
 92.970    661.000    690.866    -29.866    487.992    676.087    487.992    502.706    487.992
 93.070    686.000    709.693    -23.693    487.768    694.233    487.768    503.161    487.768
 93.170    746.151    727.249     18.901    487.543    711.185    487.543    503.539    487.543
 93.270    763.526    743.131     20.395    487.317    726.563    487.317    503.817    487.317
 93.370    770.484    757.160     13.324    487.090    740.212    487.090    503.971    487.090
 93.470    783.000    769.426     13.574    486.862    752.240    486.862    503.982    486.862
 93.570    763.000    780.199    -17.199    486.633    762.928    486.633    503.840    486.633
 93.670    840.649    789.708     50.941    486.402    772.508    486.402    503.542    486.402
 93.770    816.800    798.195     18.605    486.171    781.215    486.171    503.094    486.171
 93.870    748.433    805.907    -57.474    485.938    789.282    485.938    502.509    485.938
 93.970    776.082    813.149    -37.067    485.705    796.993    485.705    501.810    485.705
 94.070    807.000    820.302    -13.302    485.470    804.704    485.470    501.019    485.470
 94.170    882.000    827.764     54.236    485.234    812.790    485.234    500.162    485.234
 94.270    880.000    835.806     44.194    484.998    821.498    484.998    499.262    484.998
 94.370    835.000    844.424     -9.424    484.760    830.802    484.760    498.341    484.760
 94.470    908.287    853.265     55.021    484.521    840.333    484.521    497.416    484.521
 94.570    928.000    861.573     66.427    484.282    849.318    484.282    496.502    484.282
 94.670    826.000    868.276    -42.276    484.041    856.678    484.041    495.609    484.041
 94.770    895.000    872.122     22.878    483.800    861.151    483.800    494.747    483.800
 94.870    917.847    871.879     45.967    483.558    861.499    483.558    493.920    483.558
 94.970    905.000    866.605     38.395    483.314    856.777    483.314    493.132    483.314
 95.070    857.000    855.894      1.106    483.070    846.575    483.070    492.386    483.070
 95.170    835.602    840.013     -4.412    482.825    831.159    482.825    491.683    482.825
 95.270    898.000    819.862     78.138    482.579    811.428    482.579    491.023    482.579
 95.370    795.000    796.805     -1.805    482.332    788.747    482.332    490.405    482.332
 95.470    809.000    772.462     36.538    482.084    764.735    482.084    489.828    482.084
 95.570    801.000    748.537     52.463    481.836    741.100    481.836    489.291    481.836
 95.670    720.000    726.711     -6.711    481.587    719.523    481.587    488.792    481.587
 95.770    735.000    708.562     26.438    481.337    701.585    481.337    488.328    481.337
 95.870    702.478    695.527      6.952    481.086    688.725    481.086    487.899    481.086
 95.970    636.000    688.869    -52.869    480.834    682.208    480.834    487.501    480.834
 96.070    633.000    689.665    -56.665    480.582    683.113    480.582    487.133    480.582
 96.170    660.271    698.786    -38.515    480.329    692.315    480.329    486.793    480.329
 96.270    683.000    716.890    -33.890    480.075    710.471    480.075    486.479    480.075
 96.370    786.687    744.388     42.298    479.820    737.997    479.820    486.189    479.820
 96.470    770.097    781.410    -11.313    479.565    775.022    479.565    485.923    479.565
 96.570    825.889    827.741     -1.852    479.309    821.334    479.309    485.678    479.309
 96.670    920.691    882.751     37.941    479.053    876.305    479.053    485.454    479.053
 96.770    945.000    945.330     -0.330    478.796    938.825    478.796    485.250    478.796
 96.870    947.000   1013.829    -66.829    478.538   1007.246    478.538    485.066    478.538
 96.970   1089.743   1086.025      3.717    478.280   1079.347    478.280    484.902    478.280
 97.070   1225.498   1159.124     66.374    478.021   1152.332    478.021    484.758    478.021
 97.170   1176.911   1229.792    -52.881    477.761   1222.870    477.761    484.635    477.761
 97.270   1338.000   1294.273     43.727    477.501   1287.201    477.501    484.533    477.501
 97.370   1399.225   1348.637     50.588    477.241   1341.396    477.241    484.455    477.241
 97.470   1428.000   1389.180     38.820    476.980   1381.747    476.980    484.400    476.980
 97.570   1409.726   1412.932     -3.206    476.718   1405.283    476.718    484.373    476.718
 97.670   1423.444   1418.245      5.198    476.456   1410.351    476.456    484.376    476.456
 97.770   1456.000   1405.119     50.881    476.194   1396.946    476.194    484.411    476.194
 97.870   1325.000   1375.142    -50.142    475.931   1366.651    475.931    484.482    475.931
 97.970   1336.000   1331.106      4.894    475.667   1322.253    475.667    484.595    475.667
 98.070   1295.000   1276.497     18.503    475.404   1267.232    475.404    484.753    475.404
 98.170   1249.910   1215.044     34.866    475.140   1205.311    475.140    484.962    475.140
 98.270   1136.000   1150.404    -14.404    474.875   1140.142    474.875    485.229    474.875
 98.370   1039.000   1085.976    -46.976    474.611   1075.117    474.611    485.559    474.611
 98.470    962.686   1024.802    -62.116    474.346   1013.271    474.346    485.961    474.346
 98.570    997.000    969.516     27.484    474.080    957.231    474.080    486.441    474.080
 98.670    899.000    922.332    -23.332    473.815    909.206    473.815    487.009    473.815
 98.770    932.105    885.055     47.051    473.549    870.990    473.549    487.672    473.549
 98.870    838.738    859.097    -20.359    473.283    843.988    473.283    488.440    473.283
 98.970    848.465    845.513      2.953    473.016    829.248    473.016    489.321    473.016
 99.070    849.000    845.034      3.966    472.750    827.492    472.750    490.323    472.750
 99.170    909.736    858.105     51.631    472.483    839.156    472.483    491.455    472.483
 99.270    906.595    884.916     21.679    472.216    864.426    472.216    492.724    472.216
 99.370    928.000    925.386      2.614    471.949    903.214    471.949    494.137    471.949
 99.470    988.324    979.148      9.176    471.682    955.147    471.682    495.698    471.682
 99.570   1084.847   1045.504     39.343    471.415   1019.525    471.415    497.412    471.415
 99.670   1165.000   1123.373     41.627    471.148   1095.267    471.148    499.278    471.148
 99.770   1260.000   1211.223     48.777    470.881   1180.841    470.881    501.296    470.881
 99.870   1337.000   1307.017     29.983    470.614   1274.217    470.614    503.460    470.614
 99.970   1370.367   1408.176    -37.809    470.347   1372.825    470.347    505.762    470.347
100.070   1428.000   1511.584    -83.584    470.080   1473.564    470.080    508.186    470.080
100.170   1664.000   1613.681     50.319    469.812   1572.894    469.812    510.711    469.812
100.270   1653.000   1710.646    -57.646    469.545   1667.022    469.545    513.309    469.545
100.370   1766.906   1798.688    -31.782    469.279   1752.194    469.279    515.943    469.279
100.470   1846.000   1874.362    -28.362    469.012   1825.011    469.012    518.564    469.012
100.570   2012.480   1934.801     77.680    468.745   1882.662    468.745    521.114    468.745
100.670   2048.000   1977.794     70.206    468.479   1923.006    468.479    523.525    468.479
100.770   1958.088   2001.751    -43.663    468.213   1944.527    468.213    525.718    468.213
100.870   2002.000   2005.686     -3.686    467.947   1946.324    467.947    527.609    467.947
100.970   2055.000   1989.353     65.647    467.681   1928.232    467.681    529.116    467.681
101.070   1964.000   1953.517     10.483    467.415   1891.093    467.415    530.161    467.415
101.170   1935.000   1900.190     34.810    467.150   1836.979    467.150    530.684    467.150
101.270   1854.000   1832.636     21.364    466.885   1769.193    466.885    530.646    466.885
101.370   1747.000   1755.075     -8.075    466.621   1691.965    466.621    530.036    466.621
101.470   1711.000   1672.077     38.923    466.357   1609.851    466.357    528.873    466.357
101.570   1548.446   1588.070    -39.624    466.093   1527.233    466.093    527.202    466.093
101.670   1523.000   1506.911     16.089    465.830   1447.903    465.830    525.088    465.830
101.770   1406.000   1431.641    -25.641    465.567   1374.827    465.567    522.611    465.567
101.870   1398.000   1364.380     33.620    465.305   1310.039    465.305    519.855    465.305
101.970   1296.000   1306.311    -10.311    465.043   1254.642    465.043    516.902    465.043
102.070   1208.000   1257.717    -49.717    464.782   1208.843    464.782    513.829    464.782
102.170   1190.574   1218.059    -27.485    464.521   1172.037    464.521    510.702    464.521
102.270   1142.000   1186.088    -44.088    464.261   1142.920    464.261    507.577    464.261
102.370   1223.400   1159.990     63.410    464.002   1119.633    464.002    504.498    464.002
102.470   1084.000   1137.580    -53.580    463.743   1099.957    463.743    501.501    463.743
102.570   1129.422   1116.552     12.869    463.485   1081.556    463.485    498.613    463.485
102.670   1066.000   1094.759    -28.759    463.228   1062.264    463.228    495.852    463.228
102.770   1018.000   1070.496    -52.496    462.971   1040.363    462.971    493.232    462.971
102.870   1101.064   1042.705     58.359    462.715   1014.785    462.715    490.760    462.715
102.970   1032.000   1011.038     20.962    462.460    985.179    462.460    488.442    462.460
103.070    916.086    975.776    -59.691    462.206    951.824    462.206    486.277    462.206
103.170    938.000    937.655      0.345    461.952    915.456    461.952    484.264    461.952
103.270    932.000    897.663     34.337    461.700    877.069    461.700    482.400    461.700
103.370    813.210    856.881    -43.670    461.448    837.749    461.448    480.679    461.448
103.470    814.000    816.365     -2.365    461.198    798.560    461.198    479.094    461.198
103.570    818.000    777.074     40.926    460.948    760.467    460.948    477.638    460.948
103.670    726.000    739.823    -13.823    460.699    724.294    460.699    476.302    460.699
103.770    669.918    705.254    -35.336    460.452    690.693    460.452    475.077    460.452
103.870    687.000    673.826     13.174    460.205    660.131    460.205    473.956    460.205
103.970    697.000    645.813     51.187    459.960    632.892    459.960    472.929    459.960
104.070    658.019    621.318     36.700    459.715    609.086    459.715    471.988    459.715
104.170    649.046    600.293     48.753    459.472    588.674    459.472    471.125    459.472
104.270    603.000    582.568     20.432    459.230    571.494    459.230    470.332    459.230
104.370    573.000    567.890      5.110    458.989    557.300    458.989    469.602    458.989
104.470    547.000    555.949     -8.949    458.750    545.789    458.750    468.929    458.750
104.570    559.000    546.414     12.586    458.512    536.635    458.512    468.306    458.512
104.670    493.943    538.955    -45.012    458.275    529.514    458.275    467.727    458.275
104.770    528.688    533.264     -4.576    458.039    524.124    458.039    467.189    458.039
104.870    554.000    529.072     24.928    457.805    520.197    457.805    466.686    457.805
104.970    565.000    526.151     38.849    457.572    517.513    457.572    466.216    457.572
105.070    503.000    524.326    -21.326    457.341    515.897    457.341    465.773    457.341
105.170    597.000    523.468     73.532    457.111    515.223    457.111    465.357    457.111
105.270    564.335    523.495     40.840    456.883    515.413    456.883    464.964    456.883
105.370    568.000    524.367     43.633    456.657    516.429    456.657    464.592    456.657
105.470    554.000    526.081     27.919    456.431    518.269    456.431    464.239    456.431
105.570    521.000    528.665     -7.665    456.208    520.963    456.208    463.903    456.208
105.670    580.000    532.170     47.830    455.986    524.564    455.986    463.584    455.986
105.770    573.222    536.662     36.560    455.766    529.137    455.766    463.280    455.766
105.870    522.900    542.207    -19.307    455.548    534.751    455.548    462.991    455.548
105.970    561.000    548.862     12.138    455.331    541.463    455.331    462.714    455.331
106.070    568.766    556.660     12.106    455.116    549.307    455.116    462.451    455.116
106.170    658.000    565.598     92.402    454.903    558.279    454.903    462.200    454.903
106.270    565.000    575.625    -10.625    454.692    568.332    454.692    461.961    454.692
106.370    595.000    586.636      8.364    454.483    579.359    454.483    461.733    454.483
106.470    598.000    598.479     -0.479    454.276    591.209    454.276    461.516    454.276
106.570    616.778    610.933      5.845    454.071    603.661    454.071    461.310    454.071
106.670    581.903    623.723    -41.820    453.868    616.441    453.868    461.114    453.868
106.770    620.433    636.526    -16.093    453.666    629.226    453.666    460.930    453.666
106.870    643.000    648.973     -5.973    453.467    641.648    453.467    460.755    453.467
106.970    640.000    660.678    -20.678    453.271    653.320    453.271    460.591    453.271
107.070    645.000    671.260    -26.260    453.076    663.862    453.076    460.437    453.076
107.170    623.000    680.360    -57.360    452.883    672.914    452.883    460.293    452.883
107.270    701.477    687.700     13.776    452.693    680.200    452.693    460.160    452.693
107.370    686.000    693.133     -7.133    452.505    685.571    452.505    460.037    452.505
107.470    694.000    696.666     -2.666    452.319    689.034    452.319    459.925    452.319
107.570    670.518    698.470    -27.952    452.136    690.761    452.136    459.823    452.136
107.670    718.626    698.854     19.771    451.955    691.059    451.955    459.732    451.955
107.770    666.710    698.214    -31.505    451.777    690.325    451.777    459.653    451.777
107.870    701.969    696.973      4.996    451.601    688.981    451.601    459.584    451.601
107.970    689.000    695.530     -6.530    451.428    687.425    451.428    459.527    451.428
108.070    681.000    694.217    -13.217    451.257    685.991    451.257    459.482    451.257
108.170    645.364    693.275    -47.910    451.089    684.917    451.089    459.450    451.089
108.270    667.000    692.836    -25.836    450.923    684.338    450.923    459.430    450.923
108.370    686.000    692.917     -6.917    450.760    684.267    450.760    459.423    450.760
108.470    700.000    693.417      6.583    450.600    684.604    450.600    459.430    450.600
108.570    663.000    694.125    -31.125    450.443    685.137    450.443    459.451    450.443
108.670    738.000    694.737     43.263    450.288    685.562    450.288    459.487    450.288
108.770    734.000    694.875     39.125    450.137    685.500    450.137    459.539    450.137
108.870    692.000    694.135     -2.135    449.988    684.546    449.988    459.607    449.988
108.970    720.000    692.135     27.865    449.842    682.317    449.842    459.693    449.842
109.070    693.000    688.573      4.427    449.699    678.511    449.699    459.797    449.699
109.170    693.893    683.278     10.615    449.559    672.953    449.559    459.921    449.559
109.270    658.000    676.230    -18.230    449.423    665.624    449.423    460.066    449.423
109.370    640.000    667.563    -27.563    449.289    656.656    449.289    460.234    449.289
109.470    665.759    657.526      8.233    449.158    646.296    449.158    460.426    449.158
109.570    598.171    646.446    -48.275    449.031    634.868    449.031    460.645    449.031
109.670    615.000    634.682    -19.682    448.907    622.731    448.907    460.892    448.907
109.770    644.000    622.594     21.406    448.786    610.243    448.786    461.171    448.786
109.870    618.000    610.524      7.476    448.669    597.741    448.669    461.483    448.669
109.970    599.000    598.776      0.224    448.555    585.527    448.555    461.832    448.555
110.070    640.000    587.611     52.389    448.444    573.859    448.444    462.221    448.444
110.170    591.584    577.244     14.340    448.337    562.949    448.337    462.655    448.337
110.270    533.787    567.840    -34.053    448.234    552.956    448.234    463.138    448.234
110.370    575.000    559.514     15.486    448.134    543.991    448.134    463.674    448.134
110.470    581.000    552.334     28.666    448.037    536.118    448.037    464.268    448.037
110.570    565.476    546.325     19.152    447.945    529.354    447.945    464.927    447.945
110.670    598.000    541.473     56.527    447.856    523.681    447.856    465.658    447.856
110.770    559.000    537.738     21.262    447.770    519.051    447.770    466.465    447.770
110.870    532.348    535.054     -2.706    447.689    515.391    447.689    467.358    447.689
110.970    522.891    533.342    -10.451    447.611    512.613    447.611    468.345    447.611
111.070    528.656    532.512     -3.857    447.538    510.620    447.538    469.432    447.538
111.170    574.333    532.476     41.857    447.468    509.314    447.468    470.631    447.468
111.270    501.000    533.144    -32.144    447.402    508.597    447.402    471.950    447.402
111.370    498.284    534.436    -36.152    447.340    508.377    447.340    473.398    447.340
111.470    545.000    536.276      8.724    447.283    508.571    447.283    474.987    447.283
111.570    502.000    538.603    -36.603    447.229    509.104    447.229    476.727    447.229
111.670    534.000    541.363     -7.363    447.180    509.913    447.180    478.628    447.180
111.770    564.000    544.514     19.486    447.135    510.947    447.135    480.700    447.135
111.870    560.000    548.026     11.974    447.094    512.164    447.094    482.954    447.094
111.970    553.000    551.880      1.120    447.057    513.535    447.057    485.399    447.057
112.070    549.000    556.067     -7.067    447.025    515.043    447.025    488.046    447.025
112.170    550.000    560.590    -10.590    446.997    516.683    446.997    490.902    446.997
112.270    578.602    565.463     13.139    446.974    518.460    446.974    493.975    446.974
112.370    560.000    570.701    -10.701    446.956    520.383    446.956    497.271    446.956
112.470    540.000    576.301    -36.301    446.942    522.446    446.942    500.795    446.942
112.570    608.636    582.390     26.246    446.932    524.771    446.932    504.548    446.932
112.670    556.993    588.977    -31.984    446.927    527.371    446.927    508.532    446.927
112.770    628.447    596.122     32.325    446.928    530.304    446.928    512.744    446.928
112.870    585.000    603.901    -18.901    446.932    533.654    446.932    517.177    446.932
112.970    610.736    612.414     -1.678    446.942    537.531    446.942    521.823    446.942
113.070    551.000    621.786    -70.786    446.957    542.073    446.957    526.667    446.957
113.170    622.000    632.180    -10.180    446.976    547.464    446.976    531.690    446.976
113.270    608.000    643.806    -35.806    447.001    553.938    447.001    536.866    447.001
113.370    620.000    656.936    -36.936    447.030    561.799    447.030    542.163    447.030
113.470    664.000    671.918     -7.918    447.065    571.435    447.065    547.542    447.065
113.570    637.340    689.195    -51.855    447.105    583.338    447.105    552.954    447.105
113.670    702.000    709.325     -7.325    447.150    598.124    447.150    558.340    447.150
113.770    722.000    733.003    -11.003    447.201    616.556    447.201    563.632    447.201
113.870    738.000    761.080    -23.080    447.256    639.562    447.256    568.754    447.256
113.970    751.000    794.589    -43.589    447.318    668.261    447.318    573.617    447.318
114.070    776.000    834.755    -58.755    447.384    703.973    447.384    578.130    447.384
114.170    810.000    883.014    -73.014    447.456    748.229    447.456    582.193    447.456
114.270    868.000    941.011    -73.011    447.534    802.773    447.534    585.711    447.534
114.370    956.000   1010.595    -54.595    447.617    869.545    447.617    588.591    447.617
114.470   1040.304   1093.796    -53.492    447.706    950.654    447.706    590.754    447.706
114.570   1201.000   1192.779      8.221    447.801   1048.329    447.801    592.135    447.801
114.670   1411.000   1309.785    101.215    447.901   1164.851    447.901    592.695    447.901
114.770   1438.000   1447.042     -9.042    448.008   1302.465    448.008    592.418    448.008
114.870   1638.000   1606.657     31.343    448.120   1463.263    448.120    591.316    448.120
114.970   1899.000   1790.482    108.518    448.238   1649.061    448.238    589.429    448.238
115.070   2070.000   1999.969     70.031    448.362   1861.251    448.362    586.817    448.362
115.170   2192.689   2236.011    -43.322    448.493   2100.647    448.493    583.558    448.493
115.270   2528.084   2498.785     29.299    448.629   2367.336    448.629    579.745    448.629
115.370   2766.000   2787.601    -21.601    448.772   2660.533    448.772    575.474    448.772
115.470   3075.867   3100.775    -24.908    448.921   2978.458    448.921    570.842    448.921
115.570   3537.000   3435.530    101.470    449.076   3318.241    449.076    565.944    449.076
115.670   3887.000   3787.933     99.067    449.237   3675.864    449.237    560.868    449.237
115.770   4031.000   4152.881   -121.881    449.405   4046.145    449.405    555.691    449.405
115.870   4337.000   4524.128   -187.128    449.580   4422.772    449.580    550.484    449.580
115.970   4823.000   4894.369    -71.369    449.761   4798.382    449.761    545.306    449.761
116.070   5128.904   5255.372   -126.468    449.949   5164.695    449.949    540.205    449.949
116.170   5598.857   5598.170      0.687    450.143   5512.702    450.143    535.224    450.143
116.270   6021.565   5913.326    108.240    450.344   5832.936    450.344    530.394    450.344
116.370   6286.026   6191.286     94.740    450.552   6115.815    450.552    525.744    450.552
116.470   6335.298   6422.840    -87.542    450.767   6352.111    450.767    521.291    450.767
116.570   6674.000   6599.693     74.307    450.988   6533.509    450.988    517.051    450.988
116.670   6737.502   6715.101     22.401    451.217   6653.254    451.217    513.035    451.217
116.770   6824.000   6764.494     59.506    451.453   6706.767    451.453    509.248    451.453
116.870   6738.000   6745.952     -7.952    451.696   6692.120    451.696    505.694    451.696
116.970   6704.000   6660.413     43.587    451.946   6610.246    451.946    502.373    451.946
117.070   6470.000   6511.557    -41.557    452.203   6464.825    452.203    499.282    452.203
117.170   6249.000   6305.398    -56.398    452.468   6261.870    452.468    496.417    452.468
117.270   6022.000   6049.691    -27.691    452.740   6009.142    452.740    493.773    452.740
117.370   5725.000   5753.289    -28.289    453.019   5715.497    453.019    491.342    453.019
117.470   5531.596   5425.546    106.050    453.306   5390.299    453.306    489.116    453.306
117.570   4891.000   5075.823   -184.823    453.600   5042.918    453.600    487.086    453.600
117.670   4763.000   4713.110     49.890    453.902   4682.355    453.902    485.243    453.902
117.770   4385.910   4345.737     40.174    454.212   4316.950    454.212    483.575    454.212
117.870   4013.000   3981.165     31.835    454.530   3954.179    454.530    482.073    454.530
117.970   3583.000   3625.851    -42.851    454.855   3600.508    454.855    480.727    454.855
118.070   3236.877   3285.155    -48.277    455.189   3261.310    455.189    479.526    455.189
118.170   3091.000   2963.314    127.686    455.530   2940.837    455.530    478.460    455.530
118.270   2749.000   2663.464     85.536    455.879   2642.232    455.879    477.520    455.879
118.370   2349.200   2387.691    -38.492    456.236   2367.596    456.236    476.695    456.236
118.470   2201.000   2137.133     63.867    456.602   2118.076    456.602    475.978    456.602
118.570   1833.000   1912.085    -79.085    456.976   1893.977    456.976    475.360    456.976
118.670   1752.001   1712.133     39.868    457.358   1694.893    457.358    474.832    457.358
118.770   1512.000   1536.283    -24.283    457.748   1519.840    457.748    474.388    457.748
118.870   1368.831   1383.099    -14.268    458.147   1367.388    458.147    474.021    458.147
118.970   1287.000   1250.830     36.170    458.555   1235.792    458.555    473.725    458.555
119.070   1114.000   1137.534    -23.534    458.971   1123.118    458.971    473.493    458.971
119.170   1095.948   1041.185     54.763    459.396   1027.344    459.396    473.322    459.396
119.270    929.583    959.763    -30.180    459.829    946.453    459.829    473.205    459.829
119.370    887.000    891.323     -4.323    460.271    878.507    460.271    473.140    460.271
119.470    793.223    834.052    -40.828    460.722    821.692    460.722    473.121    460.722
119.570    770.000    786.292    -16.292    461.182    774.358    461.182    473.147    461.182
119.670    755.000    746.549      8.451    461.651    735.010    461.651    473.214    461.651
119.770    692.538    713.576    -21.037    462.129    702.405    462.129    473.319    462.129
119.870    650.000    686.260    -36.260    462.616    675.432    462.616    473.460    462.616
119.970    714.000    663.654     50.346    463.113    653.145    463.113    473.635    463.113
120.070    604.000    644.972    -40.972    463.619    634.760    463.619    473.842    463.619
120.170    611.000    629.566    -18.566    464.134    619.630    464.134    474.080    464.134
120.270    608.000    616.904     -8.904    464.658    607.224    464.658    474.347    464.658
120.370    609.000    606.555      2.445    465.192    597.114    465.192    474.643    465.192
120.470    604.000    598.170      5.830    465.736    588.950    465.736    474.965    465.736
120.570    541.000    591.470    -50.470    466.289    582.455    466.289    475.313    466.289
120.670    586.000    586.230     -0.230    466.853    577.405    466.853    475.687    466.853
120.770    573.276    582.270     -8.994    467.425    573.621    467.425    476.084    467.425
120.870    551.000    579.445    -28.445    468.008    570.958    468.008    476.506    468.008
120.970    584.000    577.639      6.361    468.601    569.300    468.601    476.951    468.601
121.070    578.000    576.754      1.246    469.204    568.551    469.204    477.418    469.204
121.170    531.174    576.708    -45.534    469.817    568.631    469.817    477.907    469.817
121.270    589.000    577.430     11.570    470.440    569.466    470.440    478.418    470.440
121.370    597.000    578.854     18.146    471.073    570.993    471.073    478.949    471.073
121.470    602.191    580.916     21.274    471.717    573.150    471.717    479.501    471.717
121.570    539.587    583.555    -43.968    472.371    575.872    472.371    480.073    472.371
121.670    600.000    586.703     13.297    473.036    579.096    473.036    480.664    473.036
121.770    570.000    590.291    -20.291    473.711    582.752    473.711    481.274    473.711
121.870    581.922    594.244    -12.322    474.397    586.766    474.397    481.901    474.397
121.970    559.244    598.480    -39.237    475.093    591.056    475.093    482.546    475.093
122.070    623.000    602.912     20.088    475.801    595.536    475.801    483.208    475.801
122.170    626.578    607.443     19.135    476.519    600.111    476.519    483.885    476.519
122.270    600.000    611.974    -11.974    477.248    604.682    477.248    484.578    477.248
122.370    619.000    616.398      2.602    477.988    609.143    477.988    485.284    477.988
122.470    625.000    620.608      4.392    478.740    613.389    478.740    486.002    478.740
122.570    593.535    624.494    -30.959    479.503    617.310    479.503    486.733    479.503
122.670    640.000    627.952     12.048    480.277    620.803    480.277    487.474    480.277
122.770    606.000    630.885    -24.885    481.062    623.774    481.062    488.224    481.062
122.870    636.000    633.209      2.791    481.859    626.138    481.859    488.982    481.859
122.970    639.000    634.859      4.141    482.667    627.833    482.667    489.747    482.667
123.070    611.831    635.792    -23.961    483.487    628.817    483.487    490.517    483.487
123.170    657.000    635.991     21.009    484.319    629.072    484.319    491.293    484.319
123.270    638.000    635.461      2.539    485.162    628.606    485.162    492.072    485.162
123.370    655.000    634.231     20.769    486.017    627.449    486.017    492.854    486.017
123.470    648.000    632.351     15.649    486.885    625.650    486.885    493.639    486.885
123.570    636.739    629.881      6.858    487.764    623.270    487.764    494.427    487.764
123.670    642.352    626.895     15.458    488.655    620.382    488.655    495.218    488.655
123.770    589.810    623.470    -33.660    489.559    617.064    489.559    496.013    489.559
123.870    612.000    619.688     -7.688    490.475    613.395    490.475    496.812    490.475
123.970    592.000    615.628    -23.628    491.403    609.457    491.403    497.616    491.403
124.070    592.769    611.369    -18.599    492.344    605.325    492.344    498.427    492.344
124.170    630.777    606.984     23.793    493.297    601.073    493.297    499.244    493.297
124.270    643.000    602.542     40.458    494.263    596.768    494.263    500.070    494.263
124.370    569.132    598.105    -28.973    495.242    592.470    495.242    500.906    495.242
124.470    612.000    593.724     18.276    496.233    588.231    496.233    501.752    496.233
124.570    626.723    589.445     37.278    497.237    584.096    497.237    502.610    497.237
124.670    615.118    585.306     29.812    498.255    580.101    498.255    503.481    498.255
124.770    547.647    581.336    -33.688    499.285    576.274    499.285    504.365    499.285
124.870    553.000    577.557    -24.557    500.329    572.637    500.329    505.264    500.329
124.970    598.000    573.988     24.012    501.385    569.209    501.385    506.178    501.385
