neutron_powder_diffraction_0003
R_wp: 3.751
Temperature (K): 436.099
Counts: 83276.00
Wavelength (Ã…): 2.52098
COMMENTS
Test file for demonstrating the .xyy file format in Reel1.0
END OF HEADER
   tth       Y_obs     Y_calc      Y_res    Background    Phase_1_Nuc    Phase_1_Mag    Phase_2_Nuc    Phase_2_Mag
  9.970    782.000    761.395     20.605    759.528    760.652    760.270    759.528    759.528
 10.070    777.426    760.293     17.133    758.328    759.542    759.078    758.328    758.328
 10.170    759.489    759.210      0.278    757.135    758.452    757.893    757.135    757.135
 10.270    769.000    758.149     10.851    755.949    757.383    756.715    755.949    755.949
 10.370    759.000    757.112      1.888    754.769    756.337    755.543    754.769    754.769
 10.470    798.474    756.103     42.370    753.596    755.320    754.378    753.596    753.596
 10.570    761.000    755.127      5.873    752.429    754.335    753.220    752.429    752.429
 10.670    780.702    754.191     26.511    751.269    753.390    752.069    751.269    751.269
 10.770    736.041    753.304    -17.263    750.115    752.494    750.924    750.115    750.115
 10.870    739.000    752.471    -13.471    748.968    751.652    749.786    748.968    748.968
 10.970    754.381    751.711      2.670    747.827    750.882    748.654    747.827    747.827
 11.070    779.000    751.042     27.958    746.693    750.204    747.529    746.693    746.693
 11.170    816.000    750.492     65.508    745.565    749.645    746.411    745.565    745.565
 11.270    787.000    750.106     36.894    744.444    749.248    745.299    744.444    744.444
 11.370    766.923    749.959     16.963    743.329    749.091    744.194    743.329    743.329
 11.470    763.000    750.248     12.752    742.221    749.369    743.095    742.221    742.221
 11.570    766.000    751.100     14.900    741.118    750.210    742.003    741.118    741.118
 11.670    783.000    753.062     29.938    740.023    752.160    740.918    740.023    740.023
 11.770    803.000    757.237     45.763    738.933    756.322    739.839    738.933    738.933
 11.870    804.000    765.325     38.675    737.850    764.394    738.766    737.850    737.850
 11.970    842.000    779.291     62.709    736.773    778.340    737.700    736.773    736.773
 12.070    885.000    800.149     84.851    735.703    799.175    736.640    735.703    735.703
 12.170    848.000    825.686     22.314    734.638    824.686    735.587    734.638    734.638
 12.270    909.418    847.721     61.697    733.580    846.696    734.541    733.580    733.580
 12.370    924.000    853.550     70.450    732.529    852.509    733.501    732.529    732.529
 12.470    831.271    837.919     -6.648    731.483    836.875    732.467    731.483    731.483
 12.570    778.000    810.718    -32.718    730.444    809.678    731.440    730.444    730.444
 12.670    789.721    784.211      5.511    729.411    783.172    730.419    729.411    729.411
 12.770    758.684    763.985     -5.301    728.384    762.945    729.405    728.384    728.384
 12.870    751.000    750.546      0.454    727.364    749.501    728.397    727.364    727.364
 12.970    712.000    742.242    -30.242    726.349    741.188    727.395    726.349    726.349
 13.070    671.000    737.097    -66.097    725.341    736.032    726.400    725.341    725.341
 13.170    770.616    733.660     36.956    724.339    732.583    725.411    724.339    724.339
 13.270    680.042    731.115    -51.073    723.342    730.025    724.429    723.342    723.342
 13.370    746.190    729.022     17.168    722.352    727.918    723.453    722.352    722.352
 13.470    730.000    727.214      2.786    721.368    726.097    722.483    721.368    721.368
 13.570    766.469    725.602     40.867    720.391    724.470    721.520    720.391    720.391
 13.670    666.000    724.130    -58.130    719.419    722.984    720.563    719.419    719.419
 13.770    676.260    722.765    -46.505    718.453    721.605    719.612    718.453    718.453
 13.870    672.000    721.486    -49.486    717.493    720.310    718.668    717.493    717.493
 13.970    708.453    720.271    -11.818    716.539    719.080    717.730    716.539    716.539
 14.070    698.000    719.107    -21.107    715.591    717.899    716.798    715.591    715.591
 14.170    771.000    717.985     53.015    714.650    716.761    715.872    714.650    714.650
 14.270    714.744    716.899     -2.155    713.714    715.659    714.953    713.714    713.714
 14.370    751.000    715.843     35.157    712.784    714.586    714.040    712.784    712.784
 14.470    738.073    714.813     23.260    711.860    713.539    713.133    711.860    711.860
 14.570    676.000    713.806    -37.806    710.941    712.514    712.233    710.941    710.941
 14.670    711.000    712.819     -1.819    710.029    711.509    711.339    710.029    710.029
 14.770    742.615    711.849     30.765    709.123    710.521    710.451    709.123    709.123
 14.870    664.048    710.896    -46.848    708.222    709.548    709.569    708.222    708.222
 14.970    749.000    709.957     39.043    707.327    708.590    708.693    707.327    707.327
 15.070    680.000    709.031    -29.031    706.439    707.645    707.824    706.439    706.439
 15.170    671.219    708.118    -36.900    705.555    706.712    706.961    705.555    705.555
 15.270    762.581    707.217     55.364    704.678    705.790    706.104    704.678    704.678
 15.370    726.091    706.326     19.765    703.806    704.879    705.254    703.806    703.806
 15.470    750.000    705.447     44.553    702.941    703.978    704.410    702.941    702.941
 15.570    650.027    704.584    -54.557    702.081    703.092    703.572    702.081    702.081
 15.670    693.000    703.724    -10.724    701.226    702.210    702.740    701.226    701.226
 15.770    708.000    702.872      5.128    700.377    701.335    701.914    700.377    700.377
 15.870    629.000    702.034    -73.034    699.534    700.474    701.095    699.534    699.534
 15.970    672.000    701.211    -29.211    698.697    699.626    700.282    698.697    698.697
 16.070    744.218    700.386     43.833    697.865    698.776    699.475    697.865    697.865
 16.170    689.318    699.568    -10.249    697.039    697.933    698.674    697.039    697.039
 16.270    708.000    698.759      9.241    696.219    697.098    697.880    696.219    696.219
 16.370    694.000    697.973     -3.973    695.404    696.286    697.091    695.404    695.404
 16.470    700.000    697.195      2.805    694.595    695.480    696.309    694.595    694.595
 16.570    713.000    696.414     16.586    693.791    694.672    695.533    693.791    693.791
 16.670    659.000    695.689    -36.689    692.993    693.916    694.766    692.993    692.993
 16.770    651.000    694.941    -43.941    692.200    693.139    694.003    692.200    692.200
 16.870    642.261    694.179    -51.918    691.413    692.346    693.246    691.413    691.413
 16.970    684.000    693.422     -9.422    690.632    691.558    692.496    690.632    690.632
 17.070    660.000    692.672    -32.672    689.856    690.776    691.752    689.856    689.856
 17.170    671.000    691.929    -20.929    689.085    690.000    691.014    689.085    689.085
 17.270    646.558    691.193    -44.634    688.320    689.231    690.281    688.320    688.320
 17.370    650.000    690.463    -40.463    687.560    688.468    689.556    687.560    687.560
 17.470    666.000    689.741    -23.741    686.806    687.711    688.836    686.806    686.806
 17.570    728.543    689.026     39.518    686.057    686.960    688.123    686.057    686.057
 17.670    698.769    688.317     10.451    685.313    686.214    687.416    685.313    685.313
 17.770    729.169    687.616     41.553    684.575    685.475    686.716    684.575    684.575
 17.870    691.129    686.922      4.207    683.842    684.742    686.022    683.842    683.842
 17.970    668.000    686.235    -18.235    683.115    684.016    685.334    683.115    683.115
 18.070    692.000    685.563      6.437    682.393    683.303    684.653    682.393    682.393
 18.170    715.000    684.895     30.105    681.676    682.592    683.979    681.676    681.676
 18.270    648.291    684.229    -35.938    680.964    681.883    683.310    680.964    680.964
 18.370    659.000    683.569    -24.569    680.258    681.179    682.649    680.258    680.258
 18.470    722.619    682.920     39.699    679.557    680.484    681.993    679.557    679.557
 18.570    708.927    682.295     26.632    678.861    679.810    681.345    678.861    678.861
 18.670    657.000    681.665    -24.665    678.170    679.132    680.703    678.170    678.170
 18.770    673.000    681.035     -8.035    677.485    678.452    680.068    677.485    677.485
 18.870    689.000    680.413      8.587    676.804    677.778    679.439    676.804    676.804
 18.970    644.000    679.800    -35.800    676.129    677.112    678.817    676.129    676.129
 19.070    646.000    679.190    -33.190    675.459    676.448    678.202    675.459    675.459
 19.170    669.000    678.588     -9.588    674.794    675.789    677.594    674.794    674.794
 19.270    639.000    677.995    -38.995    674.135    675.137    676.992    674.135    674.135
 19.370    684.000    677.422      6.578    673.480    674.503    676.399    673.480    673.480
 19.470    651.000    676.882    -25.882    672.830    673.889    675.823    672.830    672.830
 19.570    698.000    676.378     21.622    672.186    673.292    675.271    672.186    672.186
 19.670    632.000    675.861    -43.861    671.546    672.694    674.713    671.546    671.546
 19.770    654.135    675.387    -21.252    670.912    672.139    674.159    670.912    670.912
 19.870    697.954    674.848     23.105    670.282    671.529    673.602    670.282    670.282
 19.970    642.000    674.326    -32.326    669.658    670.933    673.052    669.658    669.658
 20.070    666.000    673.830     -7.830    669.039    670.359    672.510    669.039    669.039
 20.170    672.000    673.315     -1.315    668.424    669.764    671.974    668.424    668.424
 20.270    670.000    672.827     -2.827    667.814    669.192    671.449    667.814    667.814
 20.370    626.000    672.345    -46.345    667.210    668.620    670.935    667.210    667.210
 20.470    742.000    671.854     70.146    666.610    668.041    670.424    666.610    666.610
 20.570    686.000    671.367     14.633    666.015    667.463    669.920    666.015    666.015
 20.670    659.079    670.889    -11.810    665.425    666.890    669.424    665.425    665.425
 20.770    647.000    670.419    -23.419    664.840    666.323    668.936    664.840    664.840
 20.870    677.008    669.959      7.049    664.260    665.762    668.457    664.260    664.260
 20.970    718.733    669.509     49.224    663.684    665.207    667.986    663.684    663.684
 21.070    662.000    669.069     -7.069    663.114    664.658    667.525    663.114    663.114
 21.170    695.000    668.640     26.360    662.548    664.116    667.073    662.548    662.548
 21.270    684.000    668.231     15.769    661.987    663.587    666.630    661.987    661.987
 21.370    660.000    667.830     -7.830    661.430    663.063    666.197    661.430    661.430
 21.470    690.000    667.434     22.566    660.879    662.540    665.773    660.879    660.879
 21.570    660.000    667.051     -7.051    660.332    662.023    665.360    660.332    660.332
 21.670    678.000    666.681     11.319    659.790    661.514    664.956    659.790    659.790
 21.770    633.000    666.322    -33.322    659.252    661.011    664.563    659.252    659.252
 21.870    640.000    665.976    -25.976    658.719    660.514    664.181    658.719    658.719
 21.970    718.000    665.645     52.355    658.191    660.025    663.811    658.191    658.191
 22.070    714.580    665.328     49.252    657.667    659.543    663.452    657.667    657.667
 22.170    616.376    665.027    -48.650    657.148    659.070    663.105    657.148    657.148
 22.270    659.000    664.742     -5.742    656.634    658.605    662.771    656.634    656.634
 22.370    687.158    664.475     22.684    656.124    658.149    662.450    656.124    656.124
 22.470    661.000    664.226     -3.226    655.619    657.703    662.143    655.619    655.619
 22.570    645.000    663.999    -18.999    655.118    657.267    661.850    655.118    655.118
 22.670    627.000    663.797    -36.797    654.622    656.846    661.574    654.622    654.622
 22.770    630.000    663.617    -33.617    654.131    656.437    661.312    654.131    654.131
 22.870    639.000    663.460    -24.460    653.643    656.039    661.065    653.643    653.643
 22.970    666.000    663.329      2.671    653.161    655.655    660.835    653.161    653.161
 23.070    683.000    663.230     19.770    652.683    655.290    660.623    652.683    652.683
 23.170    673.000    663.164      9.836    652.209    654.944    660.430    652.209    652.209
 23.270    630.000    663.137    -33.137    651.739    654.621    660.256    651.739    651.739
 23.370    670.117    663.154      6.963    651.275    654.326    660.104    651.275    651.275
 23.470    645.677    663.222    -17.545    650.814    654.063    659.974    650.814    650.814
 23.570    656.000    663.350     -7.350    650.358    653.841    659.868    650.358    650.358
 23.670    670.607    663.550      7.057    649.906    653.670    659.787    649.906    649.906
 23.770    681.000    663.833     17.167    649.459    653.560    659.733    649.459    649.459
 23.870    640.000    664.222    -24.222    649.015    653.532    659.707    649.015    649.015
 23.970    646.000    664.747    -18.747    648.576    653.613    659.712    648.576    648.576
 24.070    712.726    665.453     47.274    648.142    653.847    659.751    648.142    648.142
 24.170    640.000    666.424    -26.424    647.712    654.314    659.824    647.712    647.712
 24.270    637.000    667.829    -30.829    647.286    655.182    659.936    647.286    647.286
 24.370    633.926    670.024    -36.099    646.864    656.804    660.090    646.864    646.864
 24.470    630.562    673.696    -43.134    646.446    659.861    660.289    646.446    646.446
 24.570    663.435    679.942    -16.507    646.033    665.450    660.537    646.033    646.033
 24.670    758.000    690.064     67.936    645.624    674.867    660.839    645.624    645.624
 24.770    692.000    704.834    -12.834    645.219    688.882    661.199    645.219    645.219
 24.870    721.479    723.140     -1.661    644.818    706.375    661.624    644.818    644.818
 24.970    756.000    740.142     15.858    644.421    722.497    662.120    644.421    644.421
 25.070    762.372    747.270     15.102    644.028    728.662    662.694    644.028    644.028
 25.170    721.000    739.724    -18.724    643.640    720.061    663.355    643.640    643.640
 25.270    748.617    723.359     25.258    643.255    702.540    664.113    643.255    643.255
 25.370    670.408    706.687    -36.280    642.875    684.609    664.980    642.875    642.875
 25.470    696.000    694.000      2.000    642.498    670.548    665.968    642.498    642.498
 25.570    705.136    686.040     19.097    642.126    661.084    667.092    642.126    642.126
 25.670    689.955    681.901      8.054    641.758    655.294    668.371    641.758    641.758
 25.770    695.000    680.298     14.702    641.393    651.869    669.827    641.393    641.393
 25.870    673.000    680.218     -7.218    641.033    649.766    671.488    641.033    641.033
 25.970    681.000    681.056     -0.056    640.677    648.358    673.378    640.677    640.677
 26.070    714.000    682.524     31.476    640.324    647.320    675.530    640.324    640.324
 26.170    718.699    684.527     34.172    639.976    646.512    677.992    639.976    639.976
 26.270    642.426    687.048    -44.621    639.631    645.864    680.816    639.631    639.631
 26.370    709.000    690.112     18.888    639.290    645.338    684.065    639.290    639.290
 26.470    741.775    693.779     47.996    638.953    644.913    687.819    638.953    638.953
 26.570    661.982    698.133    -36.151    638.620    644.576    692.176    638.620    638.620
 26.670    666.208    703.293    -37.086    638.291    644.320    697.263    638.291    638.291
 26.770    667.000    709.418    -42.418    637.966    644.143    703.239    637.966    637.966
 26.870    715.000    716.715     -1.715    637.644    644.047    710.311    637.644    637.644
 26.970    727.154    725.465      1.689    637.327    644.040    718.749    637.327    637.327
 27.070    746.281    736.042     10.239    637.013    644.133    728.917    637.013    637.013
 27.170    689.000    748.960    -59.960    636.702    644.348    741.309    636.702    636.702
 27.270    734.015    764.930    -30.916    636.396    644.711    756.609    636.396    636.396
 27.370    763.000    784.951    -21.951    636.093    645.263    775.774    636.093    636.093
 27.470    777.190    810.518    -33.328    635.794    646.066    800.236    635.794    635.794
 27.570    856.390    844.019     12.371    635.498    647.220    832.284    635.498    635.498
 27.670    925.515    890.216     35.298    635.207    648.925    876.480    635.207    635.207
 27.770    947.000    962.084    -15.084    634.919    651.717    945.257    634.919    634.919
 27.870   1110.000   1100.059      9.941    634.634    657.270   1077.370    634.634    634.634
 27.970   1389.000   1415.345    -26.345    634.353    670.174   1379.408    634.353    634.353
 28.070   2106.000   2136.058    -30.058    634.076    699.843   2070.028    634.076    634.076
 28.170   3321.000   3553.473   -232.473    633.802    758.302   3428.451    633.802    633.802
 28.270   5253.000   5746.392   -493.392    633.532    848.832   5530.254    633.532    633.532
 28.370   7990.000   8176.220   -186.220    633.266    949.308   7859.166    633.266    633.266
 28.470   9736.000   9599.484    136.516    633.002   1008.658   9223.026    633.002    633.002
 28.570   9127.859   9046.992     80.867    632.743    987.383   8692.089    632.743    632.743
 28.670   7142.303   7106.444     35.859    632.487    910.694   6828.402    632.487    632.487
 28.770   5304.207   5170.655    133.552    632.234    837.636   4965.537    632.234    632.234
 28.870   4072.101   4169.043    -96.942    631.985    808.170   3993.069    631.985    631.985
 28.970   4281.000   4222.997     58.003    631.739    827.260   4027.606    631.739    631.739
 29.070   4978.000   4855.740    122.260    631.497    871.297   4616.096    631.497    631.497
 29.170   5468.000   5301.201    166.799    631.258    900.190   5032.582    631.258    631.258
 29.270   5072.000   4988.322     83.678    631.023    883.320   4736.516    631.023    631.023
 29.370   4110.000   4026.761     83.239    630.791    828.121   3829.966    630.791    630.791
 29.470   2914.000   2914.193     -0.193    630.562    763.885   2781.308    630.562    630.562
 29.570   1917.000   2018.433   -101.433    630.337    712.121   1936.942    630.337    630.337
 29.670   1468.000   1443.745     24.255    630.114    678.949   1395.080    630.114    630.114
 29.770   1223.000   1129.044     93.956    629.896    660.851   1098.178    629.896    629.896
 29.870   1020.672    969.909     50.763    629.680    651.780    947.856    629.680    629.680
 29.970    952.000    886.946     65.054    629.468    647.143    869.299    629.468    629.468
 30.070    925.000    837.848     87.152    629.259    644.498    822.627    629.259    629.259
 30.170    900.000    804.561     95.439    629.053    642.822    790.805    629.053    629.053
 30.270    851.000    780.091     70.909    628.851    641.743    767.207    628.851    628.851
 30.370    738.000    761.591    -23.591    628.651    641.171    749.078    628.651    628.651
 30.470    714.309    747.863    -33.554    628.455    641.196    735.126    628.455    628.455
 30.570    754.576    738.790     15.785    628.262    642.172    724.880    628.262    628.262
 30.670    766.000    735.367     30.633    628.072    644.837    718.597    628.072    628.072
 30.770    725.000    739.586    -14.586    627.886    650.306    717.152    627.886    627.886
 30.870    774.770    753.471     21.299    627.702    659.658    721.489    627.702    627.702
 30.970    739.501    776.876    -37.375    627.522    672.937    731.419    627.522    627.522
 31.070    771.979    804.474    -32.494    627.344    687.783    743.977    627.344    627.344
 31.170    836.000    823.961     12.039    627.170    698.615    752.450    627.170    627.170
 31.270    830.277    821.793      8.484    626.999    699.266    749.464    626.999    626.999
 31.370    745.395    796.496    -51.101    626.830    689.100    734.179    626.830    626.830
 31.470    818.000    760.541     57.459    626.665    673.872    713.302    626.665    626.665
 31.570    670.817    726.980    -56.164    626.503    659.603    693.860    626.503    626.503
 31.670    690.000    701.872    -11.872    626.344    649.097    679.108    626.344    626.344
 31.770    711.234    685.589     25.645    626.187    642.543    669.227    626.187    626.187
 31.870    633.499    675.857    -42.358    626.034    638.913    662.974    626.034    626.034
 31.970    722.000    670.077     51.923    625.883    637.029    658.929    625.883    625.883
 32.070    713.000    666.407     46.593    625.736    636.056    656.085    625.736    625.736
 32.170    697.000    663.853     33.147    625.591    635.549    653.893    625.591    625.591
 32.270    691.620    661.960     29.660    625.449    635.310    652.098    625.449    625.449
 32.370    675.177    660.538     14.638    625.311    635.261    650.588    625.311    625.311
 32.470    660.000    659.507      0.493    625.174    635.374    649.307    625.174    625.174
 32.570    659.000    658.831      0.169    625.041    635.643    648.228    625.041    625.041
 32.670    696.000    658.501     37.499    624.911    636.076    647.335    624.911    624.911
 32.770    688.000    658.528     29.472    624.783    636.690    646.621    624.783    624.783
 32.870    721.000    658.944     62.056    624.658    637.514    646.087    624.658    624.658
 32.970    699.000    659.804     39.196    624.536    638.594    645.746    624.536    624.536
 33.070    652.000    661.194     -9.194    624.417    639.992    645.618    624.417    624.417
 33.170    703.673    663.243     40.430    624.300    641.802    645.741    624.300    624.300
 33.270    667.000    666.159      0.841    624.186    644.168    646.176    624.186    624.186
 33.370    692.000    670.308     21.692    624.075    647.344    647.038    624.075    624.075
 33.470    673.018    676.444     -3.425    623.966    651.845    648.564    623.966    623.966
 33.570    742.010    686.222     55.787    623.860    658.800    651.280    623.860    623.860
 33.670    715.000    703.157     11.843    623.757    670.604    656.307    623.757    623.757
 33.770    724.453    733.760     -9.307    623.657    691.689    665.722    623.657    623.657
 33.870    735.555    787.745    -52.190    623.558    728.667    682.626    623.558    623.558
 33.970    855.997    875.417    -19.421    623.463    788.556    710.308    623.463    623.463
 34.070    944.645   1001.013    -56.368    623.370    874.239    750.121    623.370    623.370
 34.170   1113.000   1152.658    -39.658    623.280    977.637    798.272    623.280    623.280
 34.270   1284.000   1291.186     -7.186    623.192   1072.101    842.252    623.192    623.192
 34.370   1328.289   1352.173    -23.884    623.107   1113.785    861.485    623.107    623.107
 34.470   1356.000   1296.535     59.465    623.024   1076.086    843.487    623.024    623.024
 34.570   1210.430   1160.151     50.279    622.944    983.415    799.710    622.944    622.944
 34.670    984.600   1007.391    -22.791    622.866    879.578    750.712    622.866    622.866
 34.770    856.661    879.051    -22.390    622.791    792.345    709.523    622.791    622.791
 34.870    795.000    788.364      6.636    622.718    730.728    680.372    622.718    622.718
 34.970    736.000    731.794      4.206    622.647    692.323    662.130    622.647    622.647
 35.070    692.438    699.211     -6.774    622.579    670.235    651.562    622.579    622.579
 35.170    715.000    680.781     34.219    622.513    657.772    645.527    622.513    622.513
 35.270    722.000    669.797     52.203    622.450    650.369    641.881    622.450    622.450
 35.370    720.000    662.588     57.412    622.389    645.525    639.453    622.389    622.389
 35.470    676.000    657.404     18.596    622.330    642.052    637.684    622.330    622.330
 35.570    678.199    653.448     24.751    622.274    639.404    636.319    622.274    622.274
 35.670    616.481    650.327    -33.846    622.220    637.315    635.233    622.220    622.220
 35.770    629.000    647.819    -18.819    622.168    635.632    634.356    622.168    622.168
 35.870    658.000    645.780     12.220    622.119    634.257    633.643    622.119    622.119
 35.970    670.000    644.111     25.889    622.072    633.121    633.062    622.072    622.072
 36.070    653.000    642.739     10.261    622.027    632.174    632.593    622.027    622.027
 36.170    663.959    641.612     22.347    621.984    631.378    632.219    621.984    621.984
 36.270    690.155    640.692     49.462    621.944    630.705    631.931    621.944    621.944
 36.370    682.000    639.952     42.048    621.905    630.135    631.723    621.905    621.905
 36.470    615.988    639.374    -23.387    621.869    629.651    631.593    621.869    621.869
 36.570    689.208    638.946     50.261    621.835    629.242    631.540    621.835    621.835
 36.670    588.000    638.664    -50.664    621.803    628.899    631.569    621.803    621.803
 36.770    632.316    638.529     -6.213    621.774    628.615    631.689    621.774    621.774
 36.870    658.000    638.549     19.451    621.746    628.387    631.910    621.746    621.746
 36.970    587.276    638.744    -51.469    621.721    628.215    632.251    621.721    621.721
 37.070    642.000    639.146      2.854    621.697    628.106    632.738    621.697    621.697
 37.170    648.000    639.809      8.191    621.676    628.074    633.412    621.676    621.676
 37.270    661.000    640.837     20.163    621.656    628.156    634.339    621.656    621.656
 37.370    600.833    642.422    -41.589    621.639    628.423    635.639    621.639    621.639
 37.470    650.000    644.932      5.068    621.624    628.997    637.560    621.624    621.624
 37.570    653.402    649.039      4.362    621.611    630.043    640.609    621.611    621.611
 37.670    656.721    655.880      0.841    621.599    631.728    645.754    621.599    621.599
 37.770    641.442    667.129    -25.687    621.590    634.128    654.594    621.590    621.590
 37.870    721.481    684.770     36.711    621.582    637.085    669.271    621.582    621.582
 37.970    706.000    710.268     -4.268    621.577    640.020    691.830    621.577    621.577
 38.070    783.000    743.240     39.760    621.573    641.919    722.902    621.573    621.573
 38.170    786.445    780.176      6.269    621.572    641.938    759.822    621.572    621.572
 38.270    809.000    813.147     -4.147    621.572    640.203    794.533    621.572    621.572
 38.370    768.000    829.778    -61.778    621.574    637.540    813.835    621.574    621.574
 38.470    817.000    820.877     -3.877    621.578    634.706    807.776    621.578    621.578
 38.570    837.460    790.434     47.026    621.584    632.177    779.867    621.584    621.584
 38.670    728.233    751.421    -23.188    621.591    630.194    742.841    621.591    621.591
 38.770    757.353    714.991     42.362    621.601    628.788    707.822    621.601    621.601
 38.870    660.385    686.511    -26.125    621.612    627.861    680.274    621.612    621.612
 38.970    661.606    666.834     -5.228    621.625    627.278    661.189    621.625    621.625
 39.070    644.000    654.413    -10.413    621.639    626.919    649.140    621.639    621.639
 39.170    610.000    646.974    -36.974    621.656    626.697    641.936    621.656    621.656
 39.270    622.000    642.532    -20.532    621.674    626.559    637.649    621.674    621.674
 39.370    667.000    639.746     27.254    621.694    626.473    634.969    621.694    621.694
 39.470    588.000    637.856    -49.856    621.715    626.421    633.153    621.715    621.715
 39.570    662.645    636.477     26.168    621.739    626.394    631.823    621.739    621.739
 39.670    658.000    635.419     22.581    621.763    626.388    630.796    621.763    621.763
 39.770    639.000    634.584      4.416    621.790    626.398    629.977    621.790    621.790
 39.870    663.045    633.916     29.129    621.818    626.424    629.311    621.818    621.818
 39.970    616.000    633.378    -17.378    621.848    626.463    628.764    621.848    621.848
 40.070    631.000    632.944     -1.944    621.879    626.516    628.309    621.879    621.879
 40.170    595.813    632.595    -36.782    621.912    626.581    627.928    621.912    621.912
 40.270    604.682    632.317    -27.635    621.947    626.658    627.607    621.947    621.947
 40.370    684.510    632.099     52.411    621.983    626.748    627.335    621.983    621.983
 40.470    619.000    631.934    -12.934    622.020    626.851    627.104    622.020    622.020
 40.570    641.000    631.815      9.185    622.059    626.967    626.908    622.059    622.059
 40.670    613.000    631.738    -18.738    622.100    627.098    626.741    622.100    622.100
 40.770    641.000    631.702      9.298    622.142    627.246    626.599    622.142    622.142
 40.870    658.000    631.703     26.297    622.185    627.411    626.478    622.185    622.185
 40.970    599.000    631.742    -32.742    622.230    627.597    626.377    622.230    622.230
 41.070    623.083    631.819     -8.736    622.277    627.804    626.293    622.277    622.277
 41.170    636.000    631.933      4.067    622.325    628.035    626.224    622.325    622.325
 41.270    616.000    632.095    -16.095    622.374    628.303    626.168    622.374    622.374
 41.370    678.807    632.308     46.499    622.425    628.608    626.125    622.425    622.425
 41.470    656.000    632.576     23.424    622.477    628.960    626.094    622.477    622.477
 41.570    656.533    632.911     23.623    622.530    629.368    626.075    622.530    622.530
 41.670    611.872    633.326    -21.454    622.585    629.847    626.066    622.585    622.585
 41.770    599.552    633.842    -34.290    622.641    630.417    626.068    622.641    622.641
 41.870    591.548    634.491    -42.943    622.698    631.109    626.082    622.698    622.698
 41.970    630.182    635.329     -5.146    622.757    631.979    626.109    622.757    622.757
 42.070    619.000    636.462    -17.462    622.817    633.129    626.154    622.817    622.817
 42.170    653.000    638.103     14.897    622.878    634.763    626.222    622.878    622.878
 42.270    634.000    640.649     -6.649    622.941    637.265    626.330    622.941    622.941
 42.370    657.091    644.774     12.317    623.004    641.284    626.501    623.004    623.004
 42.470    658.000    651.459      6.541    623.069    647.765    626.773    623.069    623.069
 42.570    670.000    661.845      8.155    623.135    657.806    627.188    623.135    623.135
 42.670    725.719    676.824     48.895    623.203    672.269    627.779    623.203    623.203
 42.770    717.478    696.364     21.114    623.271    691.120    628.545    623.271    623.271
 42.870    738.601    718.628     19.974    623.341    712.592    629.417    623.341    623.341
 42.970    708.000    739.084    -31.084    623.412    732.323    630.225    623.412    623.412
 43.070    693.000    750.860    -57.860    623.484    743.693    630.711    623.484    623.484
 43.170    785.682    748.697     36.985    623.557    741.638    630.677    623.557    623.557
 43.270    711.000    733.777    -22.777    623.631    727.296    630.167    623.631    623.631
 43.370    690.665    712.414    -21.749    623.706    706.746    629.419    623.706    623.706
 43.470    684.000    690.895     -6.895    623.783    686.043    628.668    623.783    623.783
 43.570    619.775    672.864    -53.089    623.860    668.697    628.051    623.860    623.860
 43.670    624.000    659.527    -35.527    623.939    655.870    627.613    623.939    623.939
 43.770    661.000    650.565     10.435    624.018    647.253    627.341    624.018    624.018
 43.870    617.979    644.958    -26.979    624.099    641.866    627.199    624.099    624.099
 43.970    653.501    641.589     11.911    624.180    638.632    627.143    624.180    624.180
 44.070    609.087    639.568    -30.480    624.263    636.694    627.141    624.263    624.263
 44.170    653.000    638.310     14.690    624.346    635.490    627.170    624.346    624.346
 44.270    707.000    637.483     69.517    624.430    634.699    627.217    624.430    624.430
 44.370    639.000    636.914      2.086    624.516    634.154    627.278    624.516    624.516
 44.470    643.000    636.512      6.488    624.602    633.769    627.347    624.602    624.602
 44.570    621.000    636.231    -15.231    624.689    633.498    627.424    624.689    624.689
 44.670    624.000    636.043    -12.043    624.777    633.314    627.507    624.777    624.777
 44.770    688.959    635.928     53.031    624.866    633.200    627.596    624.866    624.866
 44.870    645.000    635.874      9.126    624.956    633.141    627.690    624.956    624.956
 44.970    633.000    635.871     -2.871    625.047    633.130    627.789    625.047    625.047
 45.070    621.000    635.913    -14.913    625.138    633.159    627.892    625.138    625.138
 45.170    679.000    635.992     43.008    625.230    633.223    628.001    625.230    625.230
 45.270    602.838    636.107    -33.268    625.324    633.317    628.113    625.324    625.324
 45.370    634.154    636.253     -2.098    625.418    633.440    628.231    625.418    625.418
 45.470    636.172    636.428     -0.256    625.512    633.588    628.353    625.512    625.512
 45.570    675.000    636.632     38.368    625.608    633.760    628.480    625.608    625.608
 45.670    607.532    636.864    -29.331    625.704    633.956    628.612    625.704    625.704
 45.770    589.981    637.123    -47.142    625.801    634.174    628.749    625.801    625.801
 45.870    586.516    637.410    -50.894    625.899    634.416    628.892    625.899    625.899
 45.970    670.000    637.726     32.274    625.997    634.682    629.041    625.997    625.997
 46.070    661.000    638.072     22.928    626.096    634.972    629.195    626.096    626.096
 46.170    651.000    638.450     12.550    626.196    635.289    629.357    626.196    626.196
 46.270    614.000    638.864    -24.864    626.296    635.634    629.526    626.296    626.296
 46.370    651.000    639.316     11.684    626.397    636.010    629.702    626.397    626.397
 46.470    600.000    639.810    -39.810    626.499    636.421    629.888    626.499    626.499
 46.570    593.424    640.354    -46.929    626.601    636.871    630.083    626.601    626.601
 46.670    681.000    640.953     40.047    626.704    637.367    630.289    626.704    626.704
 46.770    650.000    641.616      8.384    626.808    637.916    630.508    626.808    626.808
 46.870    639.000    642.357     -3.357    626.912    638.528    630.741    626.912    626.912
 46.970    600.341    643.193    -42.852    627.017    639.218    630.990    627.017    627.017
 47.070    689.136    644.150     44.985    627.122    640.009    631.261    627.122    627.122
 47.170    684.702    645.275     39.428    627.228    640.942    631.558    627.228    627.228
 47.270    662.583    646.651     15.933    627.334    642.090    631.892    627.334    627.334
 47.370    633.387    648.432    -15.046    627.441    643.588    632.282    627.441    627.441
 47.470    660.416    650.889      9.527    627.548    645.673    632.759    627.548    627.548
 47.570    694.145    654.446     39.699    627.656    648.719    633.376    627.656    627.656
 47.670    674.000    659.688     14.312    627.764    653.243    634.199    627.764    627.764
 47.770    647.000    667.276    -20.276    627.873    659.825    635.309    627.873    627.873
 47.870    653.915    677.734    -23.818    627.982    668.928    636.766    627.982    627.982
 47.970    674.000    691.123    -17.123    628.091    680.604    638.581    628.091    628.091
 48.070    708.000    706.637      1.363    628.201    694.137    640.663    628.201    628.201
 48.170    689.000    722.170    -33.170    628.312    707.663    642.772    628.312    628.312
 48.270    714.000    734.186    -20.186    628.423    718.052    644.504    628.423    628.423
 48.370    686.133    738.840    -52.707    628.534    721.903    645.419    628.534    628.534
 48.470    745.000    734.748     10.252    628.645    717.983    645.362    628.645    628.645
 48.570    730.000    724.388      5.612    628.757    708.477    644.628    628.757    628.757
 48.670    656.926    711.886    -54.960    628.869    697.020    643.704    628.869    628.869
 48.770    654.000    700.469    -46.469    628.982    686.454    642.974    628.982    628.982
 48.870    654.000    691.864    -37.864    629.095    678.290    642.652    629.095    629.095
 48.970    654.951    686.646    -31.695    629.208    673.016    642.826    629.208    629.208
 49.070    705.633    684.683     20.950    629.321    670.491    643.505    629.321    629.321
 49.170    669.000    685.538    -16.538    629.435    670.293    644.674    629.435    629.435
 49.270    711.000    688.799     22.201    629.549    672.004    646.338    629.549    629.549
 49.370    683.000    694.341    -11.341    629.663    675.425    648.574    629.663    629.663
 49.470    737.904    702.630     35.275    629.777    680.779    651.623    629.777    629.777
 49.570    724.832    715.317      9.515    629.892    689.106    656.095    629.892    629.892
 49.670    732.000    736.476     -4.476    630.007    703.067    663.404    630.007    630.007
 49.770    756.880    774.716    -17.835    630.122    728.338    676.478    630.122    630.122
 49.870    823.000    845.687    -22.687    630.237    775.340    700.543    630.237    630.237
 49.970    931.353    974.113    -42.760    630.352    860.172    744.222    630.352    630.352
 50.070   1156.000   1189.679    -33.679    630.468   1002.458    817.574    630.468    630.468
 50.170   1447.795   1516.535    -68.741    630.583   1218.175    928.781    630.583    630.583
 50.270   1790.000   1955.150   -165.150    630.699   1507.648   1078.002    630.699    630.699
 50.370   2408.000   2463.081    -55.081    630.815   1842.897   1250.797    630.815    630.815
 50.470   2848.000   2945.223    -97.223    630.931   2161.204   1414.799    630.931    630.931
 50.570   3284.273   3267.781     16.492    631.047   2374.328   1524.461    631.047    631.047
 50.670   3301.143   3314.402    -13.259    631.163   2405.521   1540.144    631.163    631.163
 50.770   3013.000   3065.881    -52.881    631.279   2242.129   1455.238    631.279    631.279
 50.870   2597.000   2617.588    -20.588    631.396   1947.130   1302.104    631.396    631.396
 50.970   2155.063   2107.919     47.144    631.512   1611.940   1127.728    631.512    631.512
 51.070   1596.000   1647.180    -51.180    631.628   1309.470    969.531    631.628    631.628
 51.170   1347.000   1293.208     53.792    631.745   1077.988    847.105    631.745    631.745
 51.270   1091.000   1056.216     34.784    631.861    924.243    763.929    631.861    631.861
 51.370    873.251    916.241    -42.990    631.977    834.899    713.383    631.977    631.977
 51.470    875.000    842.420     32.580    632.093    789.154    685.407    632.093    632.093
 51.570    830.000    806.285     23.715    632.210    767.455    671.079    632.210    632.210
 51.670    831.000    787.400     43.600    632.326    755.360    664.401    632.326    632.326
 51.770    785.000    774.286     10.714    632.442    744.665    662.093    632.442    632.442
 51.870    713.920    762.880    -48.960    632.558    732.841    662.620    632.558    632.558
 51.970    719.000    753.139    -34.139    632.674    720.605    665.224    632.674    632.674
 52.070    763.000    745.823     17.177    632.790    709.384    669.237    632.790    632.790
 52.170    724.635    740.978    -16.343    632.905    700.181    673.704    632.905    632.905
 52.270    711.957    737.648    -25.691    633.021    693.411    677.253    633.021    633.021
 52.370    738.000    734.293      3.707    633.136    689.045    678.378    633.136    633.136
 52.470    754.000    729.822     24.178    633.252    686.804    676.263    633.252    633.252
 52.570    786.000    724.407     61.593    633.367    686.351    671.418    633.367    633.367
 52.670    745.000    719.169     25.831    633.482    687.446    665.203    633.482    633.482
 52.770    746.000    715.417     30.583    633.597    690.061    658.952    633.597    633.597
 52.870    735.000    714.346     20.654    633.711    694.498    653.560    633.711    633.711
 52.970    690.496    717.160    -26.664    633.826    701.544    649.443    633.826    633.826
 53.070    771.000    725.385     45.615    633.940    712.675    646.651    633.940    633.940
 53.170    746.000    741.239      4.761    634.054    730.267    645.026    634.054    634.054
 53.270    790.000    767.839     22.161    634.168    757.654    644.353    634.168    634.168
 53.370    816.000    808.981      7.019    634.281    798.806    644.455    634.281    634.281
 53.470    853.538    868.273    -14.735    634.394    857.446    645.219    634.394    634.394
 53.570    907.000    947.599    -40.599    634.507    935.547    646.558    634.507    634.507
 53.670    993.000   1045.067    -52.067    634.620   1031.416    648.272    634.620    634.620
 53.770   1154.000   1153.199      0.801    634.732   1137.601    650.337    634.732    634.732
 53.870   1227.000   1256.433    -29.433    634.844   1238.904    652.388    634.844    634.844
 53.970   1308.000   1331.406    -23.406    634.956   1312.507    653.881    634.956    634.956
 54.070   1278.000   1354.419    -76.419    635.067   1335.218    654.306    635.067    635.067
 54.170   1335.000   1316.760     18.240    635.178   1298.508    653.474    635.178    635.178
 54.270   1174.288   1232.344    -58.056    635.289   1216.001    651.676    635.289    635.289
 54.370   1184.327   1126.372     57.954    635.399   1112.369    649.441    635.399    635.399
 54.470   1042.748   1020.604     22.144    635.509   1008.919    647.226    635.509    635.509
 54.570    978.469    928.302     50.167    635.618    918.635    645.310    635.618    635.618
 54.670    842.000    855.251    -13.251    635.727    847.185    643.813    635.727    635.727
 54.770    840.659    801.935     38.724    635.836    795.041    642.743    635.836    635.836
 54.870    747.141    765.658    -18.517    635.944    759.567    642.045    635.944    635.944
 54.970    768.000    742.413     25.587    636.052    736.839    641.634    636.052    636.052
 55.070    722.000    728.252     -6.252    636.159    722.992    641.424    636.159    636.159
 55.170    725.000    720.019      4.981    636.266    714.939    641.352    636.266    636.266
 55.270    749.237    715.548     33.689    636.373    710.555    641.370    636.373    636.373
 55.370    706.000    713.514     -7.514    636.479    708.544    641.451    636.479    636.479
 55.470    714.000    713.194      0.806    636.584    708.199    641.582    636.584    636.584
 55.570    705.000    714.243     -9.243    636.689    709.178    641.757    636.689    636.689
 55.670    695.000    716.538    -21.538    636.793    711.361    641.974    636.793    636.793
 55.770    703.240    720.111    -16.871    636.897    714.774    642.237    636.897    636.897
 55.870    736.000    725.137     10.863    637.001    719.586    642.554    637.001    637.001
 55.970    722.000    732.002    -10.002    637.104    726.167    642.942    637.104    637.104
 56.070    759.000    741.474     17.526    637.206    735.253    643.430    637.206    637.206
 56.170    735.402    755.018    -19.616    637.308    748.254    644.074    637.308    637.308
 56.270    760.000    775.309    -15.309    637.409    767.741    644.978    637.409    637.409
 56.370    795.000    806.900    -11.900    637.509    798.094    646.315    637.509    637.509
 56.470    855.000    856.856     -1.856    637.609    846.106    648.355    637.609    637.609
 56.570    863.000    934.930    -71.930    637.709    921.159    651.471    637.709    637.709
 56.670    991.000   1052.679    -61.679    637.807   1034.367    656.103    637.807    637.807
 56.770   1123.000   1220.985    -97.985    637.905   1196.201    662.668    637.905    637.905
 56.870   1417.747   1445.940    -28.193    638.003   1412.521    671.397    638.003    638.003
 56.970   1753.000   1723.734     29.266    638.100   1679.667    682.148    638.100    638.100
 57.070   2022.000   2035.601    -13.601    638.196   1979.590    694.207    638.196    638.196
 57.170   2433.766   2343.834     89.932    638.291   2276.023    706.136    638.291    638.291
 57.270   2589.000   2591.706     -2.706    638.386   2514.403    715.777    638.386    638.386
 57.370   2658.166   2716.122    -57.956    638.480   2634.032    720.726    638.480    638.480
 57.470   2783.935   2678.839    105.096    638.574   2598.106    719.527    638.574    638.574
 57.570   2493.866   2492.879      0.987    638.667   2419.126    712.680    638.667    638.667
 57.670   2324.000   2212.319    111.681    638.759   2149.092    702.251    638.759    638.759
 57.770   1925.371   1899.539     25.833    638.850   1848.004    690.626    638.850    638.850
 57.870   1663.000   1602.914     60.086    638.940   1562.390    679.667    638.940    638.940
 57.970   1300.000   1351.316    -51.316    639.030   1319.995    670.510    639.030    639.030
 58.070   1143.148   1156.474    -13.326    639.119   1132.040    663.669    639.119    639.119
 58.170    991.476   1017.691    -26.215    639.208    997.730    659.248    639.208    639.208
 58.270    981.749    927.240     54.509    639.295    909.409    657.176    639.295    639.295
 58.370    861.000    875.307    -14.307    639.382    857.294    657.424    639.382    639.382
 58.470    914.420    853.462     60.959    639.468    832.805    660.137    639.468    639.468
 58.570    850.000    856.203     -6.203    639.553    830.127    665.626    639.553    639.553
 58.670    899.000    880.783     18.217    639.637    846.184    674.221    639.637    639.637
 58.770    873.000    925.891    -52.891    639.721    879.596    685.989    639.721    639.721
 58.870    945.000    989.900    -44.900    639.803    929.215    700.453    639.803    639.803
 58.970   1093.018   1069.178     23.840    639.885    992.665    716.357    639.885    639.885
 59.070   1200.628   1156.947     43.681    639.966   1065.245    731.627    639.966    639.966
 59.170   1232.711   1243.531    -10.820    640.046   1139.845    743.699    640.046    640.046
 59.270   1392.850   1318.855     73.996    640.126   1208.536    750.426    640.126    640.126
 59.370   1367.000   1375.588     -8.588    640.204   1264.735    751.056    640.204    640.204
 59.470   1396.000   1409.423    -13.423    640.282   1303.452    746.270    640.282    640.282
 59.570   1408.000   1417.551     -9.551    640.358   1320.583    737.360    640.358    640.358
 59.670   1432.000   1400.260     31.740    640.434   1315.039    725.698    640.434    640.434
 59.770   1318.000   1364.689    -46.689    640.509   1292.470    712.768    640.509    640.509
 59.870   1267.000   1324.294    -57.294    640.582   1264.823    700.077    640.582    640.582
 59.970   1215.000   1293.371    -78.371    640.655   1245.243    688.776    640.655    640.655
 60.070   1207.131   1282.174    -75.044    640.727   1243.429    679.427    640.727    640.727
 60.170   1321.000   1295.803     25.197    640.799   1264.430    672.080    640.799    640.799
 60.270   1327.000   1335.731     -8.731    640.869   1309.937    666.523    640.869    640.869
 60.370   1382.000   1400.480    -18.480    640.938   1378.758    662.473    640.938    640.938
 60.470   1448.000   1483.342    -35.342    641.006   1464.463    659.657    641.006    641.006
 60.570   1593.000   1569.730     23.270    641.073   1552.731    657.816    641.073    641.073
 60.670   1574.808   1637.531    -62.723    641.139   1621.680    656.727    641.139    641.139
 60.770   1628.000   1662.628    -34.628    641.205   1647.375    656.213    641.205    641.205
 60.870   1610.000   1629.920    -19.920    641.269   1614.829    656.153    641.269    641.269
 60.970   1518.000   1542.319    -24.319    641.332   1527.019    656.474    641.332    641.332
 61.070   1421.000   1418.146      2.854    641.394   1402.288    657.142    641.394    641.394
 61.170   1213.189   1280.559    -67.370    641.455   1263.772    658.169    641.455    641.455
 61.270   1095.000   1149.256    -54.256    641.515   1131.095    659.630    641.515    641.515
 61.370   1001.000   1037.510    -36.510    641.574   1017.356    661.698    641.574    641.574
 61.470    934.000    952.314    -18.314    641.632    929.213    664.711    641.632    641.632
 61.570    924.000    895.915     28.085    641.689    868.327    669.256    641.689    641.689
 61.670    867.000    867.993     -0.993    641.745    833.438    676.272    641.745    641.745
 61.770    906.751    867.829     38.922    641.800    822.471    687.118    641.800    641.800
 61.870    897.000    895.798      1.202    641.854    834.047    703.547    641.854    641.854
 61.970    906.000    953.671    -47.671    641.906    867.989    727.508    641.906    641.906
 62.070    984.712   1043.641    -58.929    641.958    924.777    760.714    641.958    641.958
 62.170   1154.000   1166.322    -12.322    642.008   1004.188    804.002    642.008    642.008
 62.270   1318.000   1318.273     -0.273    642.058   1103.564    856.594    642.058    642.058
 62.370   1544.346   1489.710     54.636    642.106   1216.204    915.414    642.106    642.106
 62.470   1634.000   1662.958    -28.958    642.153   1330.258    974.639    642.153    642.153
 62.570   1839.000   1812.422     26.578    642.199   1428.675   1025.736    642.199    642.199
 62.670   1935.000   1908.299     26.701    642.244   1491.628   1058.729    642.244    642.244
 62.770   1967.000   1926.603     40.397    642.287   1503.163   1065.583    642.287    642.287
 62.870   1846.066   1861.921    -15.855    642.330   1459.660   1044.493    642.330    642.330
 62.970   1671.392   1731.032    -59.640    642.371   1372.241   1001.105    642.371    642.371
 63.070   1504.000   1562.887    -58.887    642.411   1260.116    945.156    642.411    642.411
 63.170   1431.199   1385.821     45.378    642.450   1142.091    886.173    642.450    642.450
 63.270   1233.000   1220.987     12.013    642.488   1032.207    831.272    642.488    642.488
 63.370   1074.000   1081.102     -7.102    642.524    938.901    784.733    642.524    642.524
 63.470    935.260    971.351    -36.091    642.560    865.613    748.304    642.560    642.560
 63.570    895.000    891.182      3.818    642.594    811.975    721.804    642.594    642.594
 63.670    827.000    836.521     -9.521    642.627    775.283    703.865    642.627    642.627
 63.770    792.940    801.920     -8.980    642.659    751.924    692.652    642.659    642.659
 63.870    809.460    782.220     27.240    642.689    738.478    686.425    642.689    642.689
 63.970    840.000    773.558     66.442    642.718    732.382    683.886    642.718    642.718
 64.070    839.000    773.787     65.213    642.747    732.186    684.335    642.747    642.747
 64.170    782.000    782.508     -0.508    642.773    737.537    687.728    642.773    642.773
 64.270    801.000    800.878      0.122    642.799    748.990    694.664    642.799    642.799
 64.370    850.946    831.381     19.565    642.823    767.784    706.387    642.823    642.823
 64.470    810.000    877.173    -67.173    642.846    795.347    724.627    642.846    642.846
 64.570    935.000    941.440     -6.440    642.868    832.852    751.396    642.868    642.868
 64.670    975.000   1026.365    -51.365    642.888    880.618    788.557    642.888    642.888
 64.770   1112.000   1131.895    -19.895    642.908    937.488    837.216    642.908    642.908
 64.870   1313.000   1254.445     58.555    642.925   1000.246    897.009    642.925    642.925
 64.970   1372.000   1385.761    -13.761    642.942   1063.173    965.403    642.942    642.942
 65.070   1511.000   1512.479     -1.479    642.957   1118.146   1037.160    642.957    642.957
 65.170   1572.000   1617.348    -45.348    642.971   1156.081   1104.118    642.971    642.971
 65.270   1748.000   1682.910     65.090    642.984   1170.038   1155.761    642.984    642.984
 65.370   1685.001   1696.869    -11.868    642.995   1158.240   1181.564    642.995    642.995
 65.470   1661.000   1656.885      4.115    643.005   1124.579   1175.289    643.005    643.005
 65.570   1659.000   1571.986     87.014    643.014   1076.593   1138.421    643.014    643.014
 65.670   1540.000   1458.873     81.127    643.021   1022.649   1079.285    643.021    643.021
 65.770   1275.821   1335.458    -59.638    643.027    969.713   1008.830    643.027    643.027
 65.870   1251.000   1215.996     35.004    643.032    922.214    936.880    643.032    643.032
 65.970   1146.804   1109.362     37.443    643.035    881.937    870.528    643.035    643.035
 66.070   1003.000   1019.493    -16.493    643.037    848.640    813.954    643.037    643.037
 66.170    926.752    946.851    -20.100    643.038    821.144    768.803    643.038    643.038
 66.270    914.459    890.046     24.413    643.037    798.343    734.788    643.037    643.037
 66.370    784.000    846.912    -62.912    643.035    779.577    710.409    643.035    643.035
 66.470    830.000    815.033     14.967    643.032    764.471    693.623    643.032    643.032
 66.570    803.000    792.051     10.949    643.027    752.719    682.380    643.027    643.027
 66.670    779.000    775.924      3.076    643.020    744.031    674.929    643.020    643.020
 66.770    808.089    765.073     43.015    643.013    738.151    669.946    643.013    643.013
 66.870    804.546    758.391     46.155    643.004    734.884    666.519    643.004    643.004
 66.970    769.000    755.186     13.814    642.993    734.118    664.069    642.993    642.993
 67.070    714.813    755.137    -40.324    642.981    735.873    662.251    642.981    642.981
 67.170    777.000    758.311     18.689    642.968    740.407    660.878    642.968    642.968
 67.270    733.883    765.283    -31.401    642.953    748.381    659.862    642.953    642.953
 67.370    726.000    777.316    -51.316    642.937    761.077    659.182    642.937    642.937
 67.470    791.000    796.596     -5.596    642.920    780.650    658.871    642.920    642.920
 67.570    764.000    826.465    -62.465    642.901    810.357    659.013    642.901    642.901
 67.670    833.000    871.526    -38.526    642.880    854.671    659.738    642.880    642.880
 67.770    923.441    937.490    -14.050    642.858    919.135    661.216    642.858    642.858
 67.870   1012.577   1030.601    -18.024    642.835   1009.803    663.637    642.835    642.835
 67.970   1107.318   1156.526    -49.208    642.810   1132.171    667.173    642.810    642.810
 68.070   1271.382   1318.765    -47.383    642.784   1289.638    671.930    642.784    642.784
 68.170   1444.000   1516.774    -72.774    642.756   1481.685    677.884    642.756    642.756
 68.270   1814.460   1744.118     70.342    642.727   1702.092    684.821    642.727    642.727
 68.370   1930.000   1986.946    -56.946    642.697   1937.462    692.291    642.697    642.697
 68.470   2203.000   2223.054    -20.054    642.665   2166.310    699.575    642.665    642.665
 68.570   2334.699   2422.401    -87.702    642.631   2359.564    705.701    642.631    642.631
 68.670   2569.000   2551.382     17.618    642.596   2484.696    709.584    642.596    642.596
 68.770   2523.853   2583.112    -59.259    642.560   2515.678    710.354    642.560    642.560
 68.870   2538.000   2510.087     27.913    642.522   2445.236    707.767    642.522    642.522
 68.970   2308.788   2348.556    -39.768    642.482   2289.090    702.345    642.482    642.482
 69.070   2037.983   2129.813    -91.829    642.441   2077.534    695.094    642.441    642.441
 69.170   1872.000   1887.138    -15.138    642.399   1842.784    687.085    642.399    642.399
 69.270   1737.000   1647.748     89.252    642.355   1611.190    679.193    642.355    642.355
 69.370   1446.000   1430.436     15.564    642.309   1400.949    672.024    642.309    642.309
 69.470   1283.000   1245.900     37.100    642.262   1222.418    665.921    642.262    642.262
 69.570   1029.514   1097.975    -68.462    642.214   1079.316    661.006    642.214    642.214
 69.670    955.131    985.322    -30.191    642.164    970.347    657.236    642.164    642.164
 69.770    916.951    903.313     13.638    642.113    891.033    654.462    642.113    642.113
 69.870    928.000    845.831     82.169    642.060    835.454    652.486    642.060    642.060
 69.970    866.000    806.682     59.318    642.005    797.615    651.107    642.005    642.005
 70.070    840.000    780.477     59.523    641.949    772.299    650.153    641.949    641.949
 70.170    784.174    763.015     21.159    641.891    755.439    649.486    641.891    641.891
 70.270    804.251    751.294     52.957    641.832    744.129    649.012    641.832    641.832
 70.370    787.000    743.324     43.676    641.772    736.443    648.664    641.772    641.772
 70.470    735.603    737.866     -2.263    641.710    731.180    648.404    641.710    641.710
 70.570    773.733    734.194     39.539    641.646    727.639    648.208    641.646    641.646
 70.670    731.000    731.910     -0.910    641.581    725.438    648.058    641.581    641.581
 70.770    737.000    730.848      6.152    641.514    724.406    647.959    641.514    641.514
 70.870    756.107    730.987     25.120    641.446    724.523    647.911    641.446    641.446
 70.970    704.000    732.458    -28.458    641.376    725.917    647.917    641.376    641.376
 71.070    724.000    735.583    -11.583    641.304    728.893    647.992    641.304    641.304
 71.170    780.576    740.944     39.632    641.231    734.009    648.161    641.231    641.231
 71.270    751.000    749.495      1.505    641.157    742.179    648.464    641.157    641.157
 71.370    752.000    762.694    -10.694    641.081    754.798    648.963    641.081    641.081
 71.470    793.000    782.622     10.378    641.003    773.860    649.746    641.003    641.003
 71.570    791.512    812.045    -20.533    640.924    802.012    650.928    640.924    640.924
 71.670    856.000    854.341      1.659    640.843    842.491    652.652    640.843    640.843
 71.770    851.000    913.227    -62.227    640.761    898.855    655.075    640.761    640.761
 71.870    945.000    992.229    -47.229    640.677    974.484    658.344    640.677    640.677
 71.970   1090.000   1093.911     -3.911    640.592   1071.833    662.570    640.592    640.592
 72.070   1212.000   1218.928     -6.928    640.505   1191.527    667.780    640.505    640.505
 72.170   1399.000   1365.043     33.957    640.416   1331.425    673.882    640.416    640.416
 72.270   1529.445   1526.260      3.185    640.326   1485.782    680.629    640.326    640.326
 72.370   1603.000   1692.148    -89.148    640.235   1644.605    687.586    640.235    640.235
 72.470   1928.021   1847.578     80.443    640.141   1793.398    694.123    640.141    640.141
 72.570   1936.334   1973.500    -37.165    640.047   1913.908    699.447    640.047    640.047
 72.670   2120.223   2050.098     70.125    639.950   1987.147    702.731    639.950    639.950
 72.770   2108.000   2062.922     45.078    639.852   1999.261    703.374    639.852    639.852
 72.870   1927.000   2009.239    -82.239    639.753   1947.624    701.264    639.753    639.753
 72.970   1893.000   1899.475     -6.475    639.652   1842.218    696.838    639.652    639.652
 73.070   1770.000   1752.279     17.721    639.549   1700.912    690.874    639.549    639.549
 73.170   1646.000   1587.627     58.373    639.445   1542.850    684.200    639.445    639.445
 73.270   1508.000   1422.366     85.634    639.339   1384.190    677.507    639.339    639.339
 73.370   1281.000   1268.701     12.299    639.231   1236.649    671.285    639.231    639.231
 73.470   1104.000   1134.215    -30.215    639.122   1107.518    665.824    639.122    639.122
 73.570   1016.000   1022.443     -6.443    639.012   1000.211    661.250    639.012    639.012
 73.670    987.000    933.705     53.295    638.900    915.044    657.567    638.900    638.900
 73.770    927.471    866.067     61.404    638.786    850.152    654.704    638.786    638.786
 73.870    794.000    816.315    -22.315    638.671    802.429    652.560    638.671    638.671
 73.970    866.000    780.803     85.197    638.554    768.336    651.023    638.554    638.554
 74.070    808.654    756.060     52.593    638.435    744.505    649.992    638.435    638.435
 74.170    801.000    739.159     61.841    638.315    728.088    649.388    638.315    638.315
 74.270    757.000    727.850     29.150    638.193    716.886    649.160    638.193    638.193
 74.370    751.000    720.539     30.461    638.070    709.334    649.280    638.070    638.070
 74.470    715.000    716.164     -1.164    637.945    704.381    649.737    637.945    637.945
 74.570    762.321    714.048     48.273    637.819    701.352    650.526    637.819    637.819
 74.670    728.000    713.744     14.256    637.691    699.811    651.639    637.691    637.691
 74.770    764.000    714.916     49.084    637.561    699.449    653.049    637.561    637.561
 74.870    690.000    717.245    -27.245    637.430    699.995    654.707    637.430    637.430
 74.970    767.379    720.361     47.018    637.297    701.164    656.528    637.297    637.297
 75.070    694.937    723.806    -28.869    637.163    702.616    658.391    637.163    637.163
 75.170    696.000    727.018    -31.018    637.027    703.949    660.141    637.027    637.027
 75.270    763.000    729.382     33.618    636.890    704.718    661.602    636.890    636.890
 75.370    673.446    730.365    -56.919    636.751    704.539    662.628    636.751    636.751
 75.470    677.267    729.724    -52.457    636.610    703.216    663.169    636.610    636.610
 75.570    721.621    727.654     -6.033    636.468    700.848    663.323    636.468    636.468
 75.670    776.000    724.759     51.241    636.324    697.795    663.332    636.324    636.324
 75.770    788.000    721.895     66.105    636.179    694.572    663.539    636.179    636.179
 75.870    780.000    720.022     59.978    636.032    691.730    664.354    636.032    636.032
 75.970    710.000    720.140    -10.140    635.883    689.812    666.234    635.883    635.883
 76.070    697.000    723.280    -26.280    635.733    689.339    669.689    635.733    635.733
 76.170    710.750    730.494    -19.744    635.582    690.809    675.273    635.582    635.582
 76.270    745.000    742.822      2.178    635.428    694.685    683.563    635.428    635.428
 76.370    755.541    761.205     -5.664    635.274    701.369    695.098    635.274    635.274
 76.470    782.000    786.355     -4.355    635.117    711.148    710.305    635.117    635.117
 76.570    771.000    818.580    -47.580    634.959    724.125    729.385    634.959    634.959
 76.670    900.621    857.583     43.038    634.800    740.143    752.202    634.800    634.800
 76.770    880.918    902.278    -21.360    634.639    758.708    778.164    634.639    634.639
 76.870    927.000    950.622    -23.622    634.476    778.918    806.129    634.476    634.476
 76.970   1017.000    999.500     17.500    634.312    799.416    834.340    634.312    634.312
 77.070   1027.000   1044.697    -17.697    634.147    818.380    860.405    634.147    634.147
 77.170   1092.986   1081.139     11.847    633.979    833.624    881.438    633.979    633.979
 77.270   1080.000   1103.675    -23.675    633.811    842.929    894.506    633.811    633.811
 77.370   1054.187   1108.499    -54.312    633.640    844.658    897.438    633.640    633.640
 77.470   1135.000   1094.640     40.360    633.468    838.391    889.685    633.468    633.468
 77.570   1043.000   1064.407    -21.407    633.295    825.112    872.566    633.295    633.295
 77.670    983.011   1022.384    -39.373    633.120    806.788    848.701    633.120    633.120
 77.770    930.245    973.821    -43.576    632.943    785.667    821.089    632.943    632.943
 77.870    983.000    923.438     59.562    632.765    763.772    792.428    632.765    632.765
 77.970    868.000    874.910     -6.910    632.586    742.677    764.819    632.586    632.586
 78.070    798.000    830.790    -32.790    632.405    723.478    739.718    632.405    632.405
 78.170    807.000    792.579     14.421    632.222    706.818    717.985    632.222    632.222
 78.270    745.000    760.879    -15.879    632.038    692.955    699.965    632.038    632.038
 78.370    782.891    735.585     47.306    631.852    681.841    685.598    631.852    631.852
 78.470    713.523    716.100     -2.577    631.665    673.220    674.547    631.665    631.665
 78.570    651.122    701.550    -50.428    631.476    666.717    666.311    631.476    631.476
 78.670    731.060    690.967     40.093    631.286    661.914    660.340    631.286    631.286
 78.770    716.321    683.429     32.892    631.094    658.416    656.108    631.094    631.094
 78.870    634.215    678.138    -43.923    630.901    655.879    653.160    630.901    630.901
 78.970    695.000    674.461     20.539    630.707    654.031    651.136    630.707    630.707
 79.070    706.437    671.926     34.511    630.510    652.668    649.768    630.510    630.510
 79.170    633.547    670.204    -36.657    630.313    651.647    648.869    630.313    630.313
 79.270    641.000    669.080    -28.080    630.113    650.876    648.318    630.113    630.113
 79.370    690.000    668.429     21.571    629.913    650.297    648.044    629.913    629.913
 79.470    695.000    668.186     26.814    629.711    649.882    648.015    629.711    629.711
 79.570    721.811    668.341     53.470    629.507    649.620    648.228    629.507    629.507
 79.670    667.000    668.929     -1.929    629.302    649.518    648.713    629.302    629.302
 79.770    704.812    670.029     34.783    629.095    649.593    649.531    629.095    629.095
 79.870    702.000    671.781     30.219    628.887    649.875    650.792    628.887    628.887
 79.970    670.000    674.404     -4.404    628.678    650.410    652.671    628.678    628.678
 80.070    652.000    678.223    -26.223    628.467    651.254    655.433    628.467    628.467
 80.170    725.000    683.710     41.290    628.254    652.486    659.475    628.254    628.254
 80.270    705.000    691.527     13.473    628.040    654.207    665.355    628.040    628.040
 80.370    693.000    702.563     -9.563    627.825    656.550    673.830    627.825    627.825
 80.470    727.774    717.953      9.821    627.608    659.681    685.870    627.608    627.608
 80.570    741.000    739.062      1.938    627.390    663.803    702.636    627.390    627.390
 80.670    708.000    767.408    -59.408    627.170    669.149    725.412    627.170    627.170
 80.770    788.000    804.512    -16.512    626.949    675.970    755.471    626.949    626.949
 80.870    849.000    851.695     -2.695    626.727    684.518    793.881    626.727    626.727
 80.970    932.000    909.816     22.184    626.503    695.028    841.266    626.503    626.503
 81.070    971.000    978.989     -7.989    626.278    707.696    897.545    626.278    626.278
 81.170   1073.000   1058.293     14.707    626.051    722.635    961.687    626.051    626.051
 81.270   1143.900   1145.494     -1.594    625.823    739.801   1031.500    625.823    625.823
 81.370   1293.000   1236.859     56.141    625.593    758.922   1103.526    625.593    625.593
 81.470   1257.279   1327.165    -69.886    625.362    779.443   1173.094    625.362    625.362
 81.570   1479.000   1410.017     68.983    625.130    800.526   1234.650    625.130    625.130
 81.670   1579.000   1478.628    100.372    624.896    821.121   1282.455    624.896    624.896
 81.770   1535.679   1527.004      8.675    624.661    840.088   1311.653    624.661    624.661
 81.870   1635.000   1551.216     83.784    624.425    856.395   1319.343    624.425    624.425
 81.970   1509.026   1550.040    -41.014    624.187    869.254   1305.091    624.187    624.187
 82.070   1679.000   1524.713    154.287    623.948    878.084   1270.711    623.948    623.948
 82.170   1544.528   1478.611     65.917    623.708    882.642   1219.822    623.708    623.708
 82.270   1446.100   1416.621     29.479    623.466    882.976   1157.264    623.466    623.466
 82.370   1303.466   1344.318    -40.852    623.223    879.305   1088.391    623.223    623.223
 82.470   1201.843   1267.061    -65.218    622.978    871.892   1018.299    622.978    622.978
 82.570   1248.000   1189.378     58.622    622.732    861.047    951.209    622.732    622.732
 82.670   1155.000   1114.780     40.220    622.485    847.251    890.152    622.485    622.485
 82.770   1046.455   1045.788      0.667    622.237    831.220    836.932    622.237    622.237
 82.870    947.000    983.962    -36.962    621.987    813.805    792.258    621.987    621.987
 82.970    871.000    929.937    -58.937    621.736    795.799    755.976    621.736    621.736
 83.070    903.000    883.577     19.423    621.484    777.815    727.335    621.484    621.484
 83.170    824.399    844.267    -19.868    621.230    760.317    705.259    621.230    621.230
 83.270    785.000    811.233    -26.233    620.975    743.700    688.576    620.975    620.975
 83.370    743.628    783.764    -40.136    620.719    728.352    676.187    620.719    620.719
 83.470    709.000    761.291    -52.291    620.462    714.643    667.155    620.462    620.462
 83.570    700.000    743.385    -43.385    620.203    702.886    660.736    620.203    620.203
 83.670    690.000    729.708    -39.708    619.943    693.305    656.370    619.943    619.943
 83.770    711.131    719.984     -8.853    619.682    686.021    653.659    619.682    619.682
 83.870    697.000    713.946    -16.946    619.420    681.052    652.318    619.420    619.420
 83.970    694.000    711.302    -17.302    619.156    678.315    652.139    619.156    619.156
 84.070    685.000    711.693    -26.693    618.891    677.626    652.943    618.891    618.891
 84.170    742.810    714.655     28.155    618.625    678.705    654.551    618.625    618.625
 84.270    694.000    719.606    -25.606    618.358    681.175    656.756    618.358    618.358
 84.370    676.492    725.834    -49.342    618.090    684.572    659.312    618.090    618.090
 84.470    782.257    732.509     49.748    617.820    688.358    661.926    617.820    617.820
 84.570    721.000    738.706    -17.706    617.549    691.940    664.266    617.549    617.549
 84.670    651.000    743.472    -92.472    617.277    694.713    665.984    617.277    617.277
 84.770    698.000    745.946    -47.946    617.004    696.133    666.764    617.004    617.004
 84.870    715.444    745.530    -30.086    616.730    695.820    666.388    616.730    616.730
 84.970    738.639    742.038     -3.400    616.454    693.649    664.796    616.454    616.454
 85.070    698.000    735.739    -37.739    616.178    689.770    662.103    616.178    616.178
 85.170    713.000    727.245    -14.245    615.900    684.544    658.561    615.900    615.900
 85.270    676.000    717.336    -41.336    615.621    678.435    654.488    615.621    615.621
 85.370    708.000    706.801      1.199    615.341    671.907    650.207    615.341    615.341
 85.470    651.812    696.347    -44.535    615.060    665.372    646.012    615.060    615.060
 85.570    627.000    686.552    -59.552    614.778    659.157    642.153    614.778    614.778
 85.670    622.000    677.857    -55.857    614.495    653.504    638.832    614.495    614.495
 85.770    635.000    670.569    -35.569    614.211    648.562    636.203    614.211    614.211
 85.870    663.000    664.869     -1.869    613.925    644.404    634.378    613.925    613.925
 85.970    615.000    660.835    -45.835    613.639    641.034    633.427    613.639    613.639
 86.070    652.000    658.463     -6.463    613.351    638.410    633.392    613.351    613.351
 86.170    618.889    657.697    -38.809    613.063    636.467    634.280    613.063    613.063
 86.270    651.141    658.435     -7.294    612.773    635.122    636.072    612.773    612.773
 86.370    665.000    660.546      4.454    612.483    634.301    638.711    612.483    612.483
 86.470    676.000    663.879     12.121    612.191    633.948    642.104    612.191    612.191
 86.570    662.000    668.262     -6.262    611.899    634.030    646.109    611.899    611.899
 86.670    691.000    673.501     17.499    611.605    634.547    650.535    611.605    611.605
 86.770    694.000    679.378     14.622    611.311    635.529    655.132    611.311    611.311
 86.870    688.795    685.653      3.142    611.015    637.038    659.598    611.015    611.015
 86.970    663.000    692.062    -29.062    610.719    639.164    663.580    610.719    610.719
 87.070    725.087    698.342     26.745    610.421    642.018    666.705    610.421    610.421
 87.170    696.000    704.271     -8.271    610.123    645.722    668.628    610.123    610.123
 87.270    679.000    709.724    -30.724    609.824    650.394    669.103    609.824    609.824
 87.370    697.000    714.721    -17.721    609.524    656.137    668.052    609.524    609.524
 87.470    729.000    719.430      9.570    609.222    663.012    665.577    609.222    609.222
 87.570    678.933    724.095    -45.162    608.920    671.016    661.928    608.920    608.920
 87.670    762.000    728.946     33.054    608.618    680.060    657.423    608.618    608.618
 87.770    750.000    734.109     15.891    608.314    689.945    652.387    608.314    608.314
 87.870    766.000    739.553     26.447    608.009    700.350    647.112    608.009    608.009
 87.970    749.000    745.072      3.928    607.704    710.819    641.848    607.704    607.704
 88.070    750.000    750.278     -0.278    607.397    720.762    636.796    607.397    607.397
 88.170    769.000    754.628     14.372    607.090    729.487    632.108    607.090    607.090
 88.270    782.000    757.497     24.503    606.782    736.269    627.884    606.782    606.782
 88.370    734.969    758.313    -23.344    606.474    740.485    624.176    606.474    606.474
 88.470    826.000    756.721     69.279    606.164    741.773    620.991    606.164    606.164
 88.570    759.000    752.706      6.294    605.854    740.140    618.307    605.854    605.854
 88.670    744.000    746.598     -2.598    605.542    735.962    616.078    605.542    605.542
 88.770    755.000    738.975     16.025    605.231    729.869    614.248    605.231    605.231
 88.870    719.104    730.527    -11.423    604.918    722.611    612.759    604.918    604.918
 88.970    724.604    721.956      2.648    604.605    714.945    611.555    604.605    604.605
 89.070    685.000    713.914    -28.914    604.290    707.572    610.587    604.290    604.290
 89.170    708.000    706.963      1.037    603.976    701.095    609.811    603.976    603.976
 89.270    744.000    701.542     42.458    603.660    695.991    609.192    603.660    603.660
 89.370    669.000    697.945    -28.945    603.344    692.580    608.700    603.344    603.344
 89.470    726.000    696.294     29.706    603.027    691.012    608.312    603.027    603.027
 89.570    673.000    696.547    -23.547    602.709    691.264    608.005    602.709    602.709
 89.670    666.000    698.495    -32.495    602.391    693.149    607.760    602.391    602.391
 89.770    665.000    701.780    -36.780    602.072    696.329    607.556    602.072    602.072
 89.870    705.000    705.918     -0.918    601.753    700.338    607.373    601.753    601.753
 89.970    768.286    710.317     57.969    601.433    704.608    607.191    601.433    601.433
 90.070    801.000    714.321     86.679    601.112    708.502    606.987    601.112    601.112
 90.170    701.000    717.266    -16.266    600.791    711.379    606.740    600.791    600.791
 90.270    667.160    718.568    -51.408    600.469    712.673    606.431    600.469    600.469
 90.370    649.000    717.832    -68.832    600.147    711.999    606.049    600.147    600.147
 90.470    660.296    714.932    -54.637    599.824    709.235    605.590    599.824    599.824
 90.570    701.000    710.023     -9.023    599.500    704.529    605.062    599.500    599.500
 90.670    752.000    703.478     48.522    599.176    698.240    604.478    599.176    599.176
 90.770    715.000    695.788     19.212    598.852    690.843    603.856    598.852    598.852
 90.870    665.000    687.461    -22.461    598.527    682.828    603.213    598.527    598.527
 90.970    728.000    678.964     49.036    598.201    674.646    602.567    598.201    598.201
 91.070    691.407    670.689     20.717    597.875    666.676    601.929    597.875    597.875
 91.170    664.000    662.945      1.055    597.549    659.216    601.312    597.549    597.549
 91.270    622.000    655.951    -33.951    597.222    652.478    600.723    597.222    597.222
 91.370    647.000    649.844     -2.844    596.895    646.595    600.166    596.895    596.895
 91.470    657.000    644.689     12.311    596.567    641.629    599.644    596.567    596.567
 91.570    652.000    640.490     11.510    596.239    637.586    599.156    596.239    596.239
 91.670    666.075    637.209     28.866    595.911    634.426    598.703    595.911    595.911
 91.770    695.000    634.781     60.219    595.582    632.089    598.280    595.582    595.582
 91.870    647.000    633.134     13.866    595.253    630.503    597.887    595.253    595.253
 91.970    623.034    632.199     -9.165    594.923    629.603    597.521    594.923    594.923
 92.070    633.000    631.929      1.071    594.593    629.343    597.179    594.593    594.593
 92.170    640.574    632.303      8.270    594.263    629.701    596.863    594.263    594.263
 92.270    653.000    633.333     19.667    593.933    630.690    596.573    593.933    593.933
 92.370    585.000    635.068    -50.068    593.602    632.355    596.310    593.602    593.602
 92.470    621.719    637.590    -15.870    593.271    634.775    596.078    593.271    593.271
 92.570    646.000    641.013      4.987    592.940    638.062    595.881    592.940    592.940
 92.670    625.000    645.476    -20.476    592.609    642.348    595.724    592.609    592.609
 92.770    680.000    651.134     28.866    592.277    647.783    595.612    592.277    592.277
 92.870    605.000    658.143    -53.143    591.945    654.518    595.550    591.945    591.945
 92.970    643.000    666.650    -23.650    591.613    662.696    595.542    591.613    591.613
 93.070    660.000    676.773    -16.773    591.281    672.431    595.592    591.281    591.281
 93.170    651.000    688.589    -37.589    590.949    683.801    595.701    590.949    590.949
 93.270    714.000    702.120     11.880    590.616    696.825    595.869    590.616    590.616
 93.370    760.000    717.314     42.686    590.283    711.457    596.092    590.283    590.283
 93.470    725.000    734.043     -9.043    589.951    727.570    596.367    589.951    589.951
 93.570    714.876    752.085    -37.209    589.618    744.950    596.691    589.618    589.618
 93.670    784.000    771.129     12.871    589.285    763.288    597.057    589.285    589.285
 93.770    756.000    790.776    -34.776    588.952    782.187    597.466    588.952    588.952
 93.870    814.194    810.567      3.627    588.619    801.187    597.920    588.619    588.619
 93.970    835.016    830.044      4.972    588.286    819.815    598.431    588.286    588.286
 94.070    852.000    848.838      3.162    587.953    837.679    599.025    587.953    587.953
 94.170    860.845    866.770     -5.925    587.621    854.556    599.746    587.621    587.621
 94.270    897.000    883.900     13.100    587.288    870.443    600.656    587.288    587.288
 94.370    949.996    900.499     49.496    586.955    885.529    601.836    586.955    586.955
 94.470    950.000    916.938     33.062    586.622    900.099    603.373    586.622    586.622
 94.570    930.000    933.551     -3.551    586.289    914.400    605.352    586.289    586.289
 94.670    893.000    950.527    -57.527    585.957    928.550    607.848    585.957    585.957
 94.770    963.029    967.863     -4.834    585.624    942.498    610.905    585.624    585.624
 94.870    961.000    985.396    -24.396    585.292    956.069    614.536    585.292    585.292
 94.970   1017.000   1002.872     14.128    584.960    969.043    618.709    584.960    584.960
 95.070   1004.000   1020.069    -16.069    584.628    981.277    623.344    584.628    584.628
 95.170   1077.000   1036.685     40.315    584.296    992.603    628.306    584.296    584.296
 95.270   1014.000   1052.336    -38.336    583.964   1002.825    633.408    583.964    583.964
 95.370   1081.000   1066.443     14.557    583.633   1011.603    638.412    583.633    583.633
 95.470   1111.896   1078.173     33.723    583.302   1018.382    643.039    583.302    583.302
 95.570   1028.170   1086.455    -58.285    582.971   1022.396    646.985    582.971    582.971
 95.670   1050.154   1090.108    -39.953    582.640   1022.765    649.947    582.640    582.640
 95.770   1067.608   1088.050    -20.443    582.310   1018.673    651.661    582.310    582.310
 95.870   1089.000   1079.585      9.415    581.980   1009.598    651.951    581.980    581.980
 95.970   1110.102   1064.621     45.481    581.650    995.501    650.763    581.650    581.650
 96.070   1063.382   1043.765     19.617    581.321    976.905    648.182    581.321    581.321
 96.170   1069.000   1018.245     50.755    580.992    954.836    644.408    580.992    580.992
 96.270    979.000    989.703    -10.703    580.663    930.660    639.718    580.663    580.663
 96.370    936.607    959.976    -23.369    580.335    905.905    634.421    580.335    580.335
 96.470    989.000    930.920     58.080    580.008    882.123    628.819    580.008    580.008
 96.570    941.208    904.304     36.904    579.680    860.809    623.188    579.680    579.680
 96.670    922.000    881.749     40.251    579.354    843.351    617.761    579.354    579.354
 96.770    945.000    864.694     80.306    579.027    831.003    612.723    579.027    579.027
 96.870    877.000    854.372     22.628    578.701    824.868    608.205    578.701    578.701
 96.970    902.714    851.802     50.912    578.376    825.883    604.287    578.376    578.376
 97.070    911.349    857.776     53.573    578.052    834.807    601.005    578.052    578.052
 97.170    854.308    872.855    -18.547    577.727    852.206    598.353    577.727    577.727
 97.270    937.746    897.357     40.389    577.404    878.427    596.302    577.404    577.404
 97.370    962.406    931.339     31.067    577.081    913.578    594.801    577.081    577.081
 97.470    978.000    974.573      3.427    576.759    957.493    593.789    576.759    576.759
 97.570   1041.000   1026.512     14.488    576.437   1009.689    593.202    576.437    576.437
 97.670   1111.000   1086.248     24.752    576.116   1069.325    592.974    576.116    576.116
 97.770   1183.702   1152.472     31.230    575.796   1135.160    593.036    575.796    575.796
 97.870   1271.000   1223.429     47.571    575.476   1205.509    593.321    575.476    575.476
 97.970   1312.000   1296.891     15.109    575.158   1278.214    593.756    575.158    575.158
 98.070   1336.353   1370.153    -33.800    574.839   1350.646    594.269    574.839    574.839
 98.170   1451.000   1440.019     10.981    574.522   1419.688    594.780    574.522    574.522
 98.270   1500.000   1503.050     -3.050    574.206   1481.980    595.210    574.206    574.206
 98.370   1539.000   1555.596    -16.596    573.890   1533.953    595.478    573.890    573.890
 98.470   1585.000   1594.241     -9.241    573.575   1572.265    595.511    573.575    573.575
 98.570   1593.717   1616.335    -22.618    573.261   1594.322    595.252    573.261    573.261
 98.670   1621.000   1620.470      0.530    572.948   1598.745    594.670    572.948    572.948
 98.770   1557.000   1606.758    -49.758    572.636   1585.643    593.766    572.636    572.636
 98.870   1604.000   1576.787     27.213    572.325   1556.571    592.572    572.325    572.325
 98.970   1521.000   1533.276    -12.276    572.014   1514.194    591.143    572.014    572.014
 99.070   1422.252   1479.614    -57.362    571.705   1461.832    589.544    571.705    571.705
 99.170   1434.000   1419.422     14.578    571.397   1403.038    587.845    571.397    571.397
 99.270   1338.000   1356.246    -18.246    571.089   1341.287    586.116    571.089    571.089
 99.370   1292.961   1293.355     -0.394    570.783   1279.788    584.417    570.783    570.783
 99.470   1232.000   1233.644     -1.644    570.478   1221.384    582.802    570.478    570.478
 99.570   1232.000   1179.590     52.410    570.174   1168.506    581.316    570.174    570.174
 99.670   1058.000   1133.256    -75.256    569.871   1123.183    579.995    569.871    569.871
 99.770   1084.000   1096.317    -12.317    569.569   1087.063    578.865    569.569    569.569
 99.870   1075.772   1070.090      5.682    569.268   1061.448    577.945    569.268    569.268
 99.970   1080.836   1055.569     25.267    568.968   1047.321    577.243    568.968    568.968
100.070   1077.521   1053.437     24.084    568.670   1045.363    576.762    568.670    568.670
100.170   1040.499   1064.076    -23.577    568.373   1055.964    576.496    568.373    568.373
100.270   1120.000   1087.573     32.427    568.077   1079.223    576.433    568.077    568.077
100.370   1090.283   1123.724    -33.440    567.782   1114.952    576.556    567.782    567.782
100.470   1213.000   1172.030     40.970    567.489   1162.676    576.842    567.489    567.489
100.570   1249.000   1231.693     17.307    567.197   1221.627    577.264    567.197    567.197
100.670   1332.089   1301.599     30.489    566.906   1290.722    577.788    566.906    566.906
100.770   1321.595   1380.293    -58.698    566.617   1368.543    578.379    566.617    566.617
100.870   1464.216   1465.955     -1.739    566.329   1453.310    578.996    566.329    566.329
100.970   1519.000   1556.386    -37.386    566.042   1542.866    579.596    566.042    566.042
101.070   1649.417   1649.032      0.385    565.757   1634.704    580.136    565.757    565.757
101.170   1779.000   1741.074     37.926    565.473   1726.046    580.571    565.473    565.473
101.270   1836.000   1829.592      6.408    565.191   1814.011    580.864    565.191    565.191
101.370   1978.000   1911.799     66.201    564.910   1895.838    580.987    564.910    564.910
101.470   2077.940   1985.331     92.608    564.631   1969.178    580.925    564.631    564.631
101.570   2055.624   2048.320      7.303    564.354   2032.157    580.683    564.354    564.354
101.670   2005.329   2099.383    -94.054    564.078   2083.370    580.279    564.078    564.078
101.770   2073.000   2137.471    -64.471    563.803   2121.738    579.746    563.803    563.803
101.870   2160.000   2161.675     -1.675    563.531   2146.309    579.125    563.531    563.531
101.970   2189.000   2171.130     17.870    563.259   2156.178    578.455    563.259    563.259
102.070   2217.000   2165.139     51.861    562.990   2150.608    577.777    562.990    562.990
102.170   2147.000   2143.467      3.533    562.722   2129.332    577.123    562.722    562.722
102.270   2167.000   2106.710     60.290    562.456   2092.912    576.523    562.456    562.456
102.370   2082.000   2056.517     25.483    562.192   2042.981    575.999    562.192    562.192
102.470   1983.000   1995.562    -12.562    561.929   1982.194    575.565    561.929    561.929
102.570   1867.000   1927.219    -60.219    561.669   1913.921    575.226    561.669    561.669
102.670   1882.000   1855.101     26.899    561.410   1841.780    574.980    561.410    561.410
102.770   1823.000   1782.609     40.391    561.153   1769.182    574.815    561.153    561.153
102.870   1718.000   1712.610      5.390    560.898   1699.016    574.713    560.898    560.898
102.970   1681.000   1647.266     33.734    560.645   1633.468    574.650    560.645    560.645
103.070   1553.000   1587.977    -34.977    560.394   1573.965    574.599    560.394    560.394
103.170   1542.485   1535.394      7.091    560.144   1521.184    574.533    560.144    560.144
103.270   1434.518   1489.467    -54.950    559.897   1475.102    574.430    559.897    559.897
103.370   1384.648   1449.522    -64.873    559.652   1435.063    574.268    559.652    559.652
103.470   1384.000   1414.353    -30.353    559.409   1399.882    574.029    559.409    559.409
103.570   1383.496   1382.374      1.122    559.168   1367.989    573.695    559.168    559.168
103.670   1299.000   1351.806    -52.806    558.929   1337.621    573.253    558.929    558.929
103.770   1261.000   1320.925    -59.925    558.692   1307.062    572.690    558.692    558.692
103.870   1245.000   1288.310    -43.310    558.457   1274.896    572.004    558.457    558.457
103.970   1254.000   1253.040      0.960    558.224   1240.197    571.198    558.224    558.224
104.070   1207.000   1214.774     -7.774    557.994   1202.610    570.285    557.994    557.994
104.170   1158.212   1173.709    -15.497    557.766   1162.311    569.287    557.766    557.766
104.270   1085.000   1130.439    -45.439    557.540   1119.868    568.228    557.540    557.540
104.370   1084.000   1085.787     -1.787    557.317   1076.080    567.135    557.317    557.317
104.470   1065.000   1040.665     24.335    557.095   1031.831    566.033    557.095    557.095
104.570   1044.618    995.966     48.652    556.877    987.994    564.945    556.877    556.877
104.670    988.990    952.510     36.480    556.660    945.369    563.889    556.660    556.660
104.770    960.000    911.007     48.993    556.446    904.653    562.880    556.446    556.446
104.870    929.000    872.034     56.966    556.234    866.410    561.929    556.234    556.234
104.970    904.000    836.051     67.949    556.025    831.093    561.045    556.025    556.025
105.070    810.788    803.356      7.432    555.819    798.998    560.232    555.819    555.819
105.170    806.000    774.120     31.880    555.614    770.292    559.490    555.614    555.614
105.270    792.000    748.386     43.614    555.413    745.020    558.819    555.413    555.413
105.370    741.000    726.087     14.913    555.214    723.118    558.218    555.214    555.214
105.470    755.293    707.071     48.222    555.017    704.437    557.680    555.017    555.017
105.570    654.000    691.116    -37.116    554.824    688.762    557.202    554.824    554.824
105.670    669.000    677.962     -8.962    554.632    675.837    556.776    554.632    554.632
105.770    683.000    667.317     15.683    554.444    665.382    556.395    554.444    554.444
105.870    691.000    658.901     32.099    554.258    657.122    556.050    554.258    554.258
105.970    650.000    652.494     -2.494    554.075    650.828    555.750    554.075    554.075
106.070    614.318    647.840    -33.522    553.895    646.257    555.484    553.895    553.895
106.170    647.000    644.738      2.262    553.718    643.214    555.246    553.718    553.718
106.270    688.000    643.032     44.968    553.543    641.543    555.033    553.543    553.543
106.370    668.000    642.603     25.397    553.372    641.131    554.842    553.372    553.372
106.470    632.373    643.369    -10.996    553.203    641.895    554.672    553.203    553.203
106.570    630.000    645.279    -15.279    553.037    643.788    554.521    553.037    553.037
106.670    651.000    648.309      2.691    552.875    646.785    554.389    552.875    552.875
106.770    717.000    652.451     64.549    552.715    650.879    554.274    552.715    552.715
106.870    605.188    657.708    -52.520    552.558    656.075    554.177    552.558    552.558
106.970    625.361    664.088    -38.728    552.404    662.378    554.097    552.404    552.404
107.070    677.000    671.592      5.408    552.254    669.790    554.034    552.254    552.254
107.170    639.461    680.208    -40.746    552.106    678.301    553.988    552.106    552.106
107.270    718.489    689.901     28.588    551.962    687.877    553.958    551.962    551.962
107.370    647.726    700.606    -52.880    551.821    698.451    553.944    551.821    551.821
107.470    646.000    712.218    -66.218    551.683    709.922    553.943    551.683    551.683
107.570    763.245    724.586     38.658    551.548    722.141    553.955    551.548    551.548
107.670    735.000    737.515     -2.515    551.417    734.915    553.976    551.417    551.417
107.770    728.000    750.759    -22.759    551.289    748.000    554.003    551.289    551.289
107.870    772.000    764.025      7.975    551.164    761.111    554.031    551.164    551.164
107.970    733.000    776.981    -43.981    551.042    773.917    554.058    551.042    551.042
108.070    752.000    789.264    -37.264    550.924    786.063    554.076    550.924    550.924
108.170    768.000    800.498    -32.498    550.810    797.177    554.081    550.810    550.810
108.270    788.000    810.323    -22.323    550.699    806.905    554.068    550.699    550.699
108.370    838.831    818.433     20.398    550.591    814.945    554.033    550.591    550.591
108.470    843.000    824.618     18.382    550.487    821.090    553.971    550.487    550.487
108.570    832.276    828.803      3.472    550.387    825.267    553.882    550.387    550.387
108.670    884.527    831.070     53.457    550.290    827.556    553.765    550.290    550.290
108.770    827.000    831.648     -4.648    550.197    828.186    553.624    550.197    550.197
108.870    787.000    830.886    -43.886    550.107    827.501    553.462    550.107    550.107
108.970    807.000    829.204    -22.204    550.021    825.915    553.285    550.021    550.021
109.070    828.000    827.040      0.960    549.939    823.861    553.098    549.939    549.939
109.170    785.659    824.805    -39.146    549.861    821.744    552.906    549.861    549.861
109.270    828.922    822.854      6.068    549.787    819.913    552.716    549.787    549.787
109.370    862.498    821.458     41.040    549.716    818.636    552.530    549.716    549.716
109.470    796.000    820.794    -24.794    549.649    818.086    552.353    549.649    549.649
109.570    744.000    820.936    -76.936    549.586    818.334    552.188    549.586    549.586
109.670    800.000    821.854    -21.854    549.527    819.350    552.036    549.527    549.527
109.770    787.000    823.414    -36.414    549.472    820.997    551.897    549.472    549.472
109.870    767.358    825.383    -58.024    549.421    823.043    551.772    549.421    549.421
109.970    793.000    827.437    -34.437    549.374    825.167    551.659    549.374    549.374
110.070    828.312    829.187     -0.875    549.331    826.979    551.558    549.331    549.331
110.170    790.000    830.203    -40.203    549.293    828.053    551.464    549.293    549.293
110.270    792.687    830.057    -37.370    549.258    827.962    551.377    549.258    549.258
110.370    798.000    828.376    -30.376    549.228    826.337    551.293    549.228    549.228
110.470    780.337    824.890    -44.553    549.202    822.909    551.212    549.202    549.202
110.570    799.000    819.470    -20.470    549.180    817.550    551.130    549.180    549.180
110.670    767.000    812.142    -45.142    549.162    810.287    551.048    549.162    549.162
110.770    744.000    803.074    -59.074    549.149    801.288    550.967    549.149    549.149
110.870    825.000    792.541     32.459    549.140    790.827    550.886    549.140    549.140
110.970    762.000    780.884    -18.884    549.135    779.243    550.808    549.135    549.135
111.070    800.000    768.468     31.532    549.135    766.900    550.733    549.135    549.135
111.170    742.000    755.652    -13.652    549.139    754.157    550.662    549.139    549.139
111.270    758.000    742.757     15.243    549.148    741.344    550.587    549.148    549.148
111.370    702.698    730.101    -27.403    549.162    728.761    550.524    549.162    549.162
111.470    746.000    717.942     28.058    549.179    716.666    550.477    549.179    549.179
111.570    629.000    706.485    -77.485    549.202    705.265    550.440    549.202    549.202
111.670    675.000    695.895    -20.895    549.229    694.726    550.414    549.229    549.229
111.770    710.000    686.294     23.706    549.261    685.169    550.399    549.261    549.261
111.870    733.000    677.761     55.239    549.298    676.675    550.395    549.298    549.298
111.970    691.032    670.339     20.694    549.339    669.283    550.403    549.339    549.339
112.070    685.000    664.031     20.969    549.385    663.000    550.422    549.385    549.385
112.170    659.000    658.815      0.185    549.436    657.802    550.453    549.436    549.436
112.270    661.000    654.640      6.360    549.492    653.640    550.495    549.492    549.492
112.370    637.763    651.433    -13.670    549.553    650.441    550.546    549.553    549.553
112.470    659.000    649.127      9.873    549.619    648.137    550.608    549.619    549.619
112.570    614.498    647.635    -33.138    549.689    646.643    550.679    549.689    549.689
112.670    625.000    646.865    -21.865    549.765    645.867    550.759    549.765    549.765
112.770    622.066    646.727    -24.661    549.846    645.722    550.847    549.846    549.846
112.870    681.835    647.140     34.695    549.932    646.125    550.941    549.932    549.932
112.970    650.000    648.030      1.970    550.023    647.003    551.043    550.023    550.023
113.070    596.460    649.330    -52.870    550.119    648.292    551.151    550.119    550.119
113.170    634.661    650.990    -16.329    550.221    649.939    551.264    550.221    550.221
113.270    628.000    652.970    -24.970    550.327    651.906    551.383    550.327    550.327
113.370    633.000    655.246    -22.246    550.439    654.169    551.507    550.439    550.439
113.470    684.542    657.811     26.731    550.557    656.721    551.637    550.557    550.557
113.570    626.000    660.672    -34.672    550.679    659.568    551.774    550.679    550.679
113.670    671.000    663.856      7.144    550.807    662.737    551.917    550.807    550.807
113.770    658.000    667.404     -9.404    550.941    666.267    552.067    550.941    550.941
113.870    642.000    671.382    -29.382    551.080    670.225    552.226    551.080    551.080
113.970    657.588    675.877    -18.289    551.225    674.696    552.395    551.225    551.225
114.070    646.537    681.001    -34.464    551.375    679.789    552.574    551.375    551.375
114.170    672.065    686.900    -14.836    551.531    685.651    552.766    551.531    551.531
114.270    673.137    693.763    -20.626    551.692    692.468    552.973    551.692    551.692
114.370    718.000    701.829     16.171    551.859    700.476    553.195    551.859    551.859
114.470    718.243    711.398      6.845    552.032    709.976    553.436    552.032    552.032
114.570    660.000    722.849    -62.849    552.210    721.341    553.698    552.210    552.210
114.670    699.000    736.650    -37.650    552.395    735.038    553.982    552.395    552.395
114.770    699.524    753.378    -53.853    552.585    751.641    554.293    552.585    552.585
114.870    722.000    773.733    -51.733    552.781    771.846    554.633    552.781    552.781
114.970    809.000    798.557     10.443    552.983    796.493    555.006    552.983    552.983
115.070    841.755    828.849     12.906    553.191    826.575    555.415    553.191    553.191
115.170    903.000    865.778     37.222    553.405    863.258    555.865    553.405    553.405
115.270    897.000    910.686    -13.686    553.625    907.881    556.358    553.625    553.625
115.370    963.345    965.099     -1.754    553.851    961.964    556.898    553.851    553.851
115.470    979.000   1030.710    -51.710    554.084   1027.196    557.491    554.084    554.084
115.570   1102.000   1109.366     -7.366    554.322   1105.422    558.140    554.322    554.322
115.670   1183.000   1203.037    -20.037    554.567   1198.606    558.847    554.567    554.567
115.770   1281.000   1313.770    -32.770    554.818   1308.792    559.617    554.818    554.818
115.870   1421.952   1443.626    -21.675    555.075   1438.040    560.452    555.075    555.075
115.970   1665.431   1594.607     70.824    555.339   1588.348    561.353    555.339    555.339
116.070   1804.000   1768.560     35.440    555.609   1761.565    562.322    555.609    555.609
116.170   1989.033   1967.078     21.955    555.885   1959.282    563.359    555.885    555.885
116.270   2220.915   2191.380     29.535    556.168   2182.722    564.461    556.168    556.168
116.370   2390.751   2442.194    -51.443    556.458   2432.617    565.626    556.458    556.458
116.470   2772.414   2719.638     52.777    556.754   2709.090    566.848    556.754    556.754
116.570   2996.000   3023.102    -27.102    557.056   3011.540    568.121    557.056    557.056
116.670   3293.000   3351.154    -58.154    557.365   3338.546    569.434    557.365    557.365
116.770   3712.000   3701.456     10.544    557.681   3687.781    570.779    557.681    557.681
116.870   3925.000   4070.707   -145.707    558.004   4055.958    572.142    558.004    558.004
116.970   4477.394   4454.616     22.779    558.333   4438.800    573.511    558.333    558.333
117.070   4704.000   4847.905   -143.905    558.670   4831.045    574.872    558.670    558.670
117.170   5104.000   5244.345   -140.345    559.013   5226.480    576.213    559.013    559.013
117.270   5529.000   5636.828   -107.828    559.363   5618.007    577.520    559.363    559.363
117.370   5987.000   6017.468    -30.468    559.720   5997.760    578.779    559.720    559.720
117.470   6234.000   6377.767   -143.767    560.084   6357.251    579.978    560.084    560.084
117.570   6864.522   6708.826    155.695    560.455   6687.597    581.104    560.455    560.455
117.670   6992.000   7001.655     -9.655    560.833   6979.821    582.144    560.833    560.833
117.770   7427.481   7247.560    179.922    561.218   7225.241    583.083    561.218    561.218
117.870   7389.000   7438.660    -49.660    561.610   7415.990    583.909    561.610    561.610
117.970   7696.799   7568.559    128.240    562.010   7545.677    584.614    562.010    562.010
118.070   7640.607   7632.687      7.919    562.417   7609.735    585.190    562.417    562.417
118.170   7474.274   7628.899   -154.625    562.831   7606.021    585.632    562.831    562.831
118.270   7656.000   7557.665     98.335    563.252   7535.001    585.941    563.252    563.252
118.370   7601.000   7422.012    178.988    563.681   7399.693    586.121    563.681    563.681
118.470   7243.815   7227.202     16.613    564.118   7205.348    586.180    564.118    564.118
118.570   6982.000   6980.230      1.770    564.562   6958.948    586.129    564.562    564.562
118.670   6564.969   6689.246   -124.277    565.013   6668.628    585.980    565.013    565.013
118.770   6286.700   6363.000    -76.299    565.472   6343.125    585.745    565.472    565.472
118.870   5957.000   6010.374    -53.374    565.939   5991.308    585.440    565.939    565.939
118.970   5537.328   5640.016   -102.688    566.413   5621.810    585.077    566.413    566.413
119.070   5352.631   5260.069     92.562    566.895   5242.762    584.672    566.895    566.895
119.170   4834.000   4877.977    -43.977    567.385   4861.593    584.238    567.385    567.385
119.270   4576.000   4500.350     75.650    567.882   4484.901    583.789    567.882    567.882
119.370   4111.000   4132.875    -21.875    568.388   4118.360    583.340    568.388    568.388
119.470   3817.427   3780.266     37.161    568.901   3766.675    582.904    568.901    568.901
119.570   3510.000   3446.254     63.746    569.422   3433.563    582.493    569.422    569.422
119.670   3270.000   3133.605    136.395    569.951   3121.782    582.120    569.951    569.951
119.770   2952.043   2844.180    107.863    570.489   2833.183    581.793    570.489    570.489
119.870   2519.369   2579.013    -59.644    571.034   2568.794    581.523    571.034    571.034
119.970   2382.147   2338.412     43.735    571.588   2328.916    581.315    571.588    571.588
120.070   2148.000   2122.075     25.925    572.150   2113.243    581.177    572.150    572.150
120.170   2008.976   1929.199     79.777    572.720   1920.969    581.112    572.720    572.720
120.270   1789.000   1758.599     30.401    573.298   1750.904    581.125    573.298    573.298
120.370   1654.833   1608.806     46.026    573.884   1601.577    581.217    573.884    573.884
120.470   1534.000   1478.164     55.836    574.479   1471.332    581.391    574.479    574.479
120.570   1430.000   1364.912     65.088    575.083   1358.406    581.648    575.083    575.083
120.670   1324.501   1267.261     57.240    575.695   1261.009    581.989    575.695    575.695
120.770   1259.000   1183.450     75.550    576.315   1177.379    582.414    576.315    576.315
120.870   1192.000   1111.793     80.207    576.944   1105.831    582.924    576.944    576.944
120.970   1113.000   1050.720     62.280    577.582   1044.792    583.518    577.582    577.582
121.070   1077.000    998.797     78.203    578.228    992.829    584.198    578.228    578.228
121.170   1000.545    954.739     45.807    578.883    948.656    584.964    578.883    578.883
121.270    906.121    917.414    -11.293    579.547    911.139    585.817    579.547    579.547
121.370    920.000    885.842     34.158    580.220    879.297    586.759    580.220    580.220
121.470    905.000    859.182     45.818    580.901    852.287    587.790    580.901    580.901
121.570    843.163    836.724      6.439    581.592    829.397    588.912    581.592    581.592
121.670    835.884    817.871     18.013    582.291    810.029    590.128    582.291    582.291
121.770    853.000    802.126     50.874    582.999    793.682    591.439    582.999    582.999
121.870    742.000    789.078    -47.078    583.717    779.945    592.848    583.717    583.717
121.970    752.275    778.387    -26.112    584.444    768.474    594.356    584.444    584.444
122.070    818.106    769.771     48.336    585.179    758.986    595.965    585.179    585.179
122.170    747.000    762.994    -15.994    585.924    751.244    597.677    585.924    585.924
122.270    775.647    757.863     17.784    586.679    745.054    599.492    586.679    586.679
122.370    741.000    754.209    -13.209    587.442    740.246    601.410    587.442    587.442
122.470    752.000    751.889      0.111    588.215    736.679    603.433    588.215    588.215
122.570    755.000    750.779      4.221    588.998    734.228    605.557    588.998    588.998
122.670    738.000    750.763    -12.763    589.790    732.781    607.782    589.790    589.790
122.770    702.000    751.737    -49.737    590.591    732.236    610.105    590.591    590.591
122.870    789.663    753.601     36.062    591.402    732.498    612.519    591.402    591.402
122.970    718.847    756.256    -37.409    592.223    733.476    615.020    592.223    592.223
123.070    755.295    759.604     -4.309    593.053    735.081    617.596    593.053    593.053
123.170    710.609    763.544    -52.934    593.893    737.222    620.238    593.893    593.893
123.270    724.000    767.970    -43.970    594.743    739.810    622.928    594.743    594.743
123.370    759.488    772.771    -13.283    595.603    742.752    625.651    595.603    595.603
123.470    740.179    777.832    -37.653    596.472    745.953    628.383    596.472    596.472
123.570    802.678    783.028     19.650    597.352    749.315    631.100    597.352    597.352
123.670    767.000    788.231    -21.231    598.241    752.736    633.776    598.241    598.241
123.770    737.000    793.307    -56.307    599.141    756.111    636.380    599.141    599.141
123.870    773.299    798.115    -24.816    600.050    759.333    638.879    600.050    600.050
123.970    811.434    802.518      8.917    600.970    762.298    641.240    600.970    600.970
124.070    845.223    806.375     38.848    601.900    764.899    643.430    601.900    601.900
124.170    867.367    809.555     57.812    602.841    767.037    645.415    602.841    602.841
124.270    862.881    811.939     50.942    603.791    768.623    647.167    603.791    603.791
124.370    779.052    813.426    -34.374    604.752    769.582    648.659    604.752    604.752
124.470    867.000    813.939     53.061    605.724    769.855    649.873    605.724    605.724
124.570    875.329    813.434     61.895    606.706    769.408    650.799    606.706    606.706
124.670    788.000    811.897    -23.897    607.698    768.230    651.434    607.698    607.698
124.770    875.000    809.351     65.649    608.701    766.337    651.786    608.701    608.701
124.870    838.000    805.849     32.151    609.715    763.765    651.870    609.715    609.715
124.970    908.000    801.471    106.529    610.739    760.571    651.709    610.739    610.739
