neutron_powder_diffraction_0190
R_wp: 4.134
Temperature (K): 1074.000
Counts: 83544.00
Wavelength (Ã…): 2.52098
COMMENTS
Test file for demonstrating the .xyy file format in Reel1.0
END OF HEADER
   tth       Y_obs     Y_calc      Y_res    Background    Phase_1_Nuc    Phase_1_Mag    Phase_2_Nuc    Phase_2_Mag
  9.970    614.456    572.770     41.687    572.160    572.728    572.160    572.201    572.160
 10.070    601.000    572.822     28.178    572.164    572.780    572.164    572.205    572.164
 10.170    541.206    572.876    -31.670    572.163    572.834    572.163    572.204    572.163
 10.270    551.586    572.933    -21.348    572.156    572.891    572.156    572.198    572.156
 10.370    557.149    572.996    -15.847    572.145    572.954    572.145    572.187    572.145
 10.470    648.000    573.066     74.934    572.129    573.024    572.129    572.171    572.129
 10.570    561.000    573.152    -12.152    572.108    573.105    572.108    572.155    572.108
 10.670    536.791    573.249    -36.458    572.082    573.200    572.082    572.130    572.082
 10.770    557.000    573.366    -16.366    572.051    573.317    572.051    572.099    572.051
 10.870    603.241    573.510     29.730    572.015    573.461    572.015    572.064    572.015
 10.970    607.002    573.693     33.309    571.975    573.644    571.975    572.023    571.975
 11.070    623.000    573.930     49.070    571.930    573.880    571.930    571.979    571.930
 11.170    580.000    574.243      5.757    571.880    574.192    571.880    571.929    571.880
 11.270    629.000    574.664     54.336    571.826    574.613    571.826    571.875    571.826
 11.370    601.338    575.252     26.086    571.767    575.200    571.767    571.817    571.767
 11.470    611.299    576.126     35.174    571.704    576.074    571.704    571.754    571.704
 11.570    626.000    577.633     48.367    571.636    577.579    571.636    571.686    571.636
 11.670    624.000    580.859     43.141    571.564    580.803    571.564    571.614    571.564
 11.770    624.000    588.628     35.372    571.488    588.569    571.488    571.538    571.488
 11.870    630.483    606.029     24.454    571.407    605.959    571.407    571.458    571.407
 11.970    671.272    637.659     33.613    571.322    637.571    571.322    571.374    571.322
 12.070    681.757    679.926      1.831    571.233    679.813    571.233    571.287    571.233
 12.170    759.913    713.782     46.130    571.140    713.649    571.140    571.195    571.140
 12.270    693.000    714.802    -21.802    571.042    714.668    571.042    571.098    571.042
 12.370    653.000    681.952    -28.952    570.941    681.835    570.941    570.997    570.941
 12.470    631.000    639.238     -8.238    570.835    639.144    570.835    570.892    570.835
 12.570    599.000    606.610     -7.610    570.726    606.533    570.726    570.783    570.726
 12.670    584.933    588.356     -3.423    570.612    588.289    570.612    570.670    570.612
 12.770    556.260    580.051    -23.791    570.495    579.988    570.495    570.553    570.495
 12.870    580.000    576.501      3.499    570.374    576.439    570.374    570.432    570.374
 12.970    610.859    574.757     36.103    570.249    574.696    570.249    570.308    570.249
 13.070    628.000    573.674     54.326    570.121    573.613    570.121    570.180    570.121
 13.170    578.000    572.887      5.113    569.988    572.827    569.988    570.048    569.988
 13.270    530.000    572.271    -42.271    569.853    572.210    569.853    569.912    569.853
 13.370    590.000    571.767     18.233    569.713    571.706    569.713    569.773    569.713
 13.470    584.000    571.341     12.659    569.570    571.281    569.570    569.630    569.570
 13.570    578.000    570.971      7.029    569.423    570.910    569.423    569.484    569.423
 13.670    536.614    570.642    -34.028    569.273    570.581    569.273    569.334    569.273
 13.770    546.931    570.342    -23.411    569.120    570.281    569.120    569.180    569.120
 13.870    555.048    570.065    -15.017    568.963    570.003    568.963    569.024    568.963
 13.970    523.000    569.804    -46.804    568.802    569.742    568.802    568.864    568.802
 14.070    519.685    569.556    -49.871    568.639    569.493    568.639    568.701    568.639
 14.170    541.269    569.317    -28.048    568.472    569.254    568.472    568.534    568.472
 14.270    577.739    569.086      8.653    568.302    569.023    568.302    568.364    568.302
 14.370    530.919    568.860    -37.941    568.128    568.796    568.128    568.191    568.128
 14.470    535.000    568.637    -33.637    567.952    568.574    567.952    568.015    567.952
 14.570    580.000    568.419     11.581    567.773    568.354    567.773    567.836    567.773
 14.670    530.000    568.203    -38.203    567.590    568.137    567.590    567.655    567.590
 14.770    562.794    567.990     -5.196    567.404    567.924    567.404    567.470    567.404
 14.870    546.000    567.776    -21.776    567.216    567.709    567.216    567.282    567.216
 14.970    534.218    567.561    -33.343    567.024    567.494    567.024    567.091    567.024
 15.070    558.000    567.345     -9.345    566.830    567.278    566.830    566.897    566.830
 15.170    524.116    567.129    -43.014    566.633    567.062    566.633    566.700    566.633
 15.270    556.000    566.913    -10.913    566.432    566.845    566.432    566.500    566.432
 15.370    556.000    566.695    -10.695    566.230    566.627    566.230    566.298    566.230
 15.470    534.000    566.476    -32.476    566.024    566.408    566.024    566.092    566.024
 15.570    561.000    566.256     -5.256    565.816    566.187    565.816    565.884    565.816
 15.670    601.426    566.035     35.391    565.605    565.965    565.605    565.674    565.605
 15.770    559.000    565.812     -6.812    565.391    565.742    565.391    565.461    565.391
 15.870    528.000    565.587    -37.587    565.175    565.517    565.175    565.245    565.175
 15.970    578.000    565.361     12.639    564.956    565.291    564.956    565.027    564.956
 16.070    543.000    565.133    -22.133    564.735    565.062    564.735    564.806    564.735
 16.170    540.133    564.904    -24.771    564.511    564.832    564.511    564.583    564.511
 16.270    530.000    564.673    -34.673    564.285    564.601    564.285    564.357    564.285
 16.370    602.153    564.440     37.712    564.056    564.368    564.056    564.129    564.056
 16.470    535.616    564.207    -28.591    563.826    564.135    563.826    563.898    563.826
 16.570    547.000    563.971    -16.971    563.592    563.898    563.592    563.666    563.592
 16.670    568.381    563.733      4.648    563.357    563.659    563.357    563.430    563.357
 16.770    589.289    563.492     25.796    563.119    563.418    563.119    563.193    563.119
 16.870    561.000    563.251     -2.251    562.879    563.176    562.879    562.954    562.879
 16.970    549.000    563.007    -14.007    562.637    562.932    562.637    562.712    562.637
 17.070    611.775    562.761     49.014    562.393    562.686    562.393    562.468    562.393
 17.170    537.000    562.515    -25.515    562.146    562.438    562.146    562.223    562.146
 17.270    582.000    562.270     19.730    561.898    562.189    561.898    561.979    561.898
 17.370    581.418    562.021     19.397    561.647    561.938    561.647    561.731    561.647
 17.470    554.000    561.769     -7.769    561.395    561.685    561.395    561.479    561.395
 17.570    532.338    561.517    -29.179    561.141    561.433    561.141    561.225    561.141
 17.670    577.000    561.262     15.738    560.884    561.177    560.884    560.969    560.884
 17.770    590.975    561.005     29.970    560.626    560.920    560.626    560.711    560.626
 17.870    595.000    560.747     34.253    560.366    560.661    560.366    560.452    560.366
 17.970    591.300    560.487     30.813    560.104    560.400    560.104    560.190    560.104
 18.070    559.000    560.225     -1.225    559.840    560.138    559.840    559.927    559.840
 18.170    566.000    559.962      6.038    559.575    559.874    559.575    559.663    559.575
 18.270    577.000    559.697     17.303    559.308    559.609    559.308    559.396    559.308
 18.370    569.000    559.431      9.569    559.039    559.342    559.039    559.128    559.039
 18.470    574.000    559.164     14.836    558.768    559.074    558.768    558.858    558.768
 18.570    541.000    558.895    -17.895    558.496    558.804    558.496    558.586    558.496
 18.670    582.877    558.624     24.253    558.222    558.533    558.222    558.313    558.222
 18.770    515.000    558.353    -43.353    557.947    558.261    557.947    558.039    557.947
 18.870    572.813    558.080     14.733    557.670    557.988    557.670    557.762    557.670
 18.970    572.494    557.807     14.687    557.392    557.714    557.392    557.485    557.392
 19.070    537.000    557.532    -20.532    557.112    557.438    557.112    557.206    557.112
 19.170    543.000    557.256    -14.256    556.831    557.161    556.831    556.925    556.831
 19.270    602.622    556.979     45.644    556.548    556.883    556.548    556.643    556.548
 19.370    549.000    556.700     -7.700    556.264    556.604    556.264    556.360    556.264
 19.470    523.000    556.421    -33.421    555.979    556.324    555.979    556.076    555.979
 19.570    590.000    556.141     33.859    555.692    556.043    555.692    555.790    555.692
 19.670    580.000    555.859     24.141    555.404    555.761    555.404    555.503    555.404
 19.770    579.583    555.577     24.006    555.115    555.478    555.115    555.214    555.115
 19.870    524.000    555.294    -31.294    554.825    555.194    554.825    554.925    554.825
 19.970    557.379    555.010      2.369    554.533    554.909    554.533    554.634    554.533
 20.070    520.859    554.726    -33.867    554.240    554.624    554.240    554.343    554.240
 20.170    537.000    554.442    -17.442    553.947    554.339    553.947    554.050    553.947
 20.270    572.000    554.169     17.831    553.652    554.065    553.652    553.756    553.652
 20.370    530.887    553.894    -23.006    553.356    553.789    553.356    553.461    553.356
 20.470    539.629    553.609    -13.980    553.059    553.503    553.059    553.165    553.059
 20.570    572.290    553.322     18.968    552.761    553.215    552.761    552.868    552.761
 20.670    577.000    553.034     23.966    552.462    552.926    552.462    552.570    552.462
 20.770    592.309    552.746     39.563    552.162    552.637    552.162    552.271    552.162
 20.870    539.000    552.458    -13.458    551.861    552.348    551.861    551.971    551.861
 20.970    543.000    552.170     -9.170    551.560    552.059    551.560    551.671    551.560
 21.070    557.000    551.882      5.118    551.257    551.769    551.257    551.369    551.257
 21.170    590.568    551.593     38.975    550.954    551.480    550.954    551.067    550.954
 21.270    496.000    551.307    -55.307    550.649    551.192    550.649    550.764    550.649
 21.370    540.000    551.043    -11.043    550.344    550.927    550.344    550.460    550.344
 21.470    536.000    550.786    -14.786    550.039    550.669    550.039    550.156    550.039
 21.570    579.362    550.513     28.849    549.732    550.392    549.732    549.853    549.732
 21.670    537.598    550.317    -12.719    549.425    550.194    549.425    549.548    549.425
 21.770    576.113    550.055     26.058    549.117    549.931    549.117    549.242    549.117
 21.870    574.707    549.773     24.935    548.809    549.647    548.809    548.935    548.809
 21.970    558.000    549.491      8.509    548.500    549.363    548.500    548.627    548.500
 22.070    535.000    549.210    -14.210    548.190    549.081    548.190    548.319    548.190
 22.170    571.000    548.931     22.069    547.880    548.801    547.880    548.010    547.880
 22.270    544.000    548.655     -4.655    547.569    548.522    547.569    547.701    547.569
 22.370    529.000    548.385    -19.385    547.258    548.251    547.258    547.392    547.258
 22.470    561.258    548.161     13.098    546.946    548.025    546.946    547.082    546.946
 22.570    505.020    547.913    -42.893    546.634    547.776    546.634    546.772    546.634
 22.670    529.000    547.653    -18.653    546.321    547.513    546.321    546.461    546.321
 22.770    585.839    547.397     38.443    546.008    547.255    546.008    546.150    546.008
 22.870    513.000    547.149    -34.149    545.695    547.006    545.695    545.838    545.695
 22.970    584.000    546.911     37.089    545.381    546.766    545.381    545.527    545.381
 23.070    537.000    546.680     -9.680    545.067    546.532    545.067    545.215    545.067
 23.170    566.192    546.460     19.732    544.753    546.311    544.753    544.903    544.753
 23.270    536.000    546.257    -10.257    544.438    546.104    544.438    544.591    544.438
 23.370    554.000    546.072      7.928    544.123    545.918    544.123    544.278    544.123
 23.470    548.000    545.914      2.086    543.808    545.757    543.808    543.966    543.808
 23.570    555.000    545.789      9.211    543.492    545.629    543.492    543.653    543.492
 23.670    562.000    545.708     16.292    543.177    545.546    543.177    543.340    543.177
 23.770    575.000    545.691     29.309    542.861    545.526    542.861    543.027    542.861
 23.870    565.000    545.763     19.237    542.545    545.595    542.545    542.714    542.545
 23.970    531.000    545.967    -14.967    542.229    545.796    542.229    542.402    542.229
 24.070    567.000    546.414     20.586    541.913    546.240    541.913    542.089    541.913
 24.170    543.000    547.429     -4.429    541.597    547.253    541.597    541.776    541.597
 24.270    543.470    549.966     -6.496    541.281    549.788    541.281    541.464    541.281
 24.370    565.000    556.230      8.770    540.964    556.053    540.964    541.152    540.964
 24.470    542.270    569.589    -27.319    540.648    569.418    540.648    540.839    540.648
 24.570    605.000    592.088     12.912    540.332    591.929    540.332    540.528    540.332
 24.670    608.000    619.443    -11.443    540.016    619.300    540.016    540.216    540.016
 24.770    638.000    637.790      0.210    539.700    637.656    539.700    539.905    539.700
 24.870    591.560    633.305    -41.745    539.384    633.163    539.384    539.594    539.384
 24.970    601.000    609.779     -8.779    539.068    609.615    539.068    539.283    539.068
 25.070    615.537    582.692     32.845    538.752    582.502    538.752    538.973    538.752
 25.170    610.283    562.676     47.607    538.436    562.465    538.436    538.663    538.436
 25.270    550.000    551.432     -1.432    538.121    551.206    538.121    538.354    538.121
 25.370    561.000    546.120     14.880    537.805    545.883    537.805    538.046    537.805
 25.470    521.000    543.688    -22.688    537.490    543.443    537.490    537.738    537.490
 25.570    559.000    542.402     16.598    537.175    542.148    537.175    537.431    537.175
 25.670    525.000    541.562    -16.562    536.861    541.299    536.861    537.125    536.861
 25.770    510.294    540.927    -30.633    536.546    540.655    536.546    536.820    536.546
 25.870    557.000    540.420     16.580    536.232    540.138    536.232    536.515    536.232
 25.970    506.872    540.006    -33.134    535.918    539.713    535.918    536.212    535.918
 26.070    535.134    539.665     -4.530    535.605    539.360    535.605    535.910    535.605
 26.170    547.000    539.384      7.616    535.292    539.067    535.292    535.609    535.292
 26.270    541.000    539.159      1.841    534.979    538.828    534.979    535.310    534.979
 26.370    564.000    538.987     25.013    534.667    538.642    534.667    535.012    534.667
 26.470    533.000    538.893     -5.893    534.355    538.532    534.355    534.716    534.355
 26.570    541.000    538.853      2.147    534.043    538.475    534.043    534.421    534.043
 26.670    524.649    538.854    -14.205    533.732    538.457    533.732    534.129    533.732
 26.770    562.000    538.927     23.073    533.422    538.509    533.422    533.839    533.422
 26.870    549.000    539.091      9.909    533.111    538.650    533.111    533.552    533.111
 26.970    526.000    539.366    -13.366    532.802    538.899    532.802    533.268    532.802
 27.070    503.118    539.785    -36.666    532.493    539.289    532.493    532.987    532.493
 27.170    529.000    540.392    -11.392    532.184    539.865    532.184    532.710    532.184
 27.270    523.212    541.258    -18.046    531.876    540.696    531.876    532.438    531.876
 27.370    502.083    542.504    -40.421    531.568    541.901    531.568    532.170    531.568
 27.470    607.000    544.316     62.684    531.262    543.668    531.262    531.908    531.262
 27.570    593.000    547.140     45.860    530.955    546.440    530.955    531.653    530.955
 27.670    588.000    552.620     35.380    530.650    551.858    530.650    531.407    530.650
 27.770    528.320    565.664    -37.344    530.345    564.831    530.345    531.170    530.345
 27.870    598.000    597.458      0.542    530.040    596.535    530.040    530.944    530.040
 27.970    674.000    663.687     10.313    529.736    662.653    529.736    530.733    529.736
 28.070    772.000    769.508      2.492    529.433    768.336    529.433    530.539    529.433
 28.170    882.000    885.478     -3.478    529.131    884.152    529.131    530.366    529.131
 28.270    916.754    942.773    -26.020    528.829    941.294    528.829    530.220    528.829
 28.370    910.000    895.633     14.367    528.529    893.996    528.529    530.109    528.529
 28.470    794.671    793.387      1.284    528.228    791.546    528.228    530.045    528.228
 28.570    725.000    713.620     11.380    527.929    711.492    527.929    530.045    527.929
 28.670    710.070    696.800     13.270    527.631    694.275    527.631    530.142    527.631
 28.770    653.000    739.665    -86.665    527.333    736.592    527.333    530.389    527.333
 28.870    807.000    805.070      1.930    527.036    801.216    527.036    530.879    527.036
 28.970    846.389    835.762     10.627    526.740    830.748    526.740    531.760    526.740
 29.070    853.032    797.235     55.797    526.444    790.463    526.444    533.231    526.444
 29.170    676.000    719.103    -43.103    526.150    709.742    526.150    535.525    526.150
 29.270    601.499    646.952    -45.453    525.856    633.988    525.856    538.829    525.856
 29.370    648.000    601.466     46.534    525.564    583.879    525.564    543.154    525.564
 29.470    615.000    580.596     34.404    525.272    557.788    525.272    548.080    525.272
 29.570    586.000    573.405     12.595    524.981    545.980    524.981    552.405    524.981
 29.670    592.000    570.097     21.903    524.691    540.548    524.691    554.238    524.691
 29.770    605.000    565.599     39.401    524.402    537.582    524.402    552.417    524.402
 29.870    603.000    559.363     43.637    524.114    535.650    524.114    547.825    524.114
 29.970    571.000    552.801     18.199    523.827    534.290    523.827    542.337    523.827
 30.070    600.000    547.098     52.902    523.541    533.347    523.541    537.290    523.541
 30.170    600.000    542.753     57.247    523.256    532.786    523.256    533.221    523.256
 30.270    551.000    539.926     11.074    522.971    532.716    522.971    530.178    522.971
 30.370    527.000    538.888    -11.888    522.688    533.576    522.688    527.997    522.688
 30.470    554.000    540.550     13.450    522.406    536.503    522.406    526.447    522.406
 30.570    594.000    546.768     47.232    522.125    543.561    522.125    525.320    522.125
 30.670    533.000    559.594    -26.594    521.845    556.958    521.845    524.460    521.845
 30.770    606.976    578.792     28.184    521.566    576.558    521.566    523.764    521.566
 30.870    630.678    598.678     31.999    521.289    596.745    521.289    523.173    521.289
 30.970    611.991    607.736      4.255    521.012    606.043    521.012    522.652    521.012
 31.070    628.000    598.301     29.699    520.736    596.813    520.736    522.180    520.736
 31.170    608.749    577.478     31.271    520.462    576.166    520.462    521.745    520.462
 31.270    578.688    556.783     21.905    520.189    555.616    520.189    521.339    520.189
 31.370    566.000    542.133     23.867    519.916    541.085    519.916    520.956    519.916
 31.470    563.000    533.861     29.139    519.645    532.910    519.645    520.592    519.645
 31.570    520.000    529.806     -9.806    519.376    528.936    519.376    520.242    519.376
 31.670    548.000    527.849     20.151    519.107    527.049    519.107    519.905    519.107
 31.770    514.410    526.784    -12.374    518.839    526.043    518.839    519.579    518.839
 31.870    550.000    526.100     23.900    518.573    525.411    518.573    519.261    518.573
 31.970    563.000    525.621     37.379    518.308    524.976    518.308    518.951    518.308
 32.070    553.343    525.286     28.056    518.044    524.681    518.044    518.648    518.044
 32.170    552.000    525.073     26.927    517.781    524.503    517.781    518.351    517.781
 32.270    539.000    524.973     14.027    517.520    524.433    517.520    518.059    517.520
 32.370    502.657    524.986    -22.328    517.260    524.473    517.260    517.771    517.260
 32.470    548.405    525.120     23.286    517.001    524.632    517.001    517.488    517.001
 32.570    558.000    525.392     32.608    516.743    524.926    516.743    517.209    516.743
 32.670    520.000    525.829     -5.829    516.487    525.382    516.487    516.933    516.487
 32.770    509.524    526.466    -16.942    516.232    526.037    516.232    516.660    516.232
 32.870    562.000    527.364     34.636    515.978    526.951    515.978    516.390    515.978
 32.970    563.000    528.609     34.391    515.726    528.210    515.726    516.124    515.726
 33.070    559.000    530.331     28.669    515.475    529.945    515.475    515.859    515.475
 33.170    498.704    532.766    -34.062    515.225    532.391    515.225    515.598    515.225
 33.270    492.000    536.457    -44.457    514.976    536.093    514.976    515.338    514.976
 33.370    543.000    542.873      0.127    514.729    542.518    514.729    515.081    514.729
 33.470    590.000    555.848     34.152    514.484    555.500    514.484    514.827    514.484
 33.570    605.000    583.651     21.349    514.239    583.306    514.239    514.574    514.239
 33.670    653.000    639.308     13.692    513.996    638.962    513.996    514.324    513.996
 33.770    747.000    734.594     12.406    513.754    734.240    513.754    514.075    513.754
 33.870    883.000    865.774     17.226    513.514    865.411    513.514    513.829    513.514
 33.970   1005.660    997.394      8.266    513.275    997.029    513.275    513.584    513.275
 34.070   1072.000   1061.949     10.051    513.038   1061.600    513.038    513.341    513.038
 34.170   1040.000   1013.450     26.550    512.802   1013.132    512.802    513.100    512.802
 34.270    935.752    887.950     47.801    512.567    887.659    512.567    512.861    512.567
 34.370    723.000    753.419    -30.419    512.334    753.140    512.334    512.624    512.334
 34.470    642.000    650.984     -8.984    512.102    650.708    512.102    512.389    512.102
 34.570    534.000    588.735    -54.735    511.872    588.459    511.872    512.155    511.872
 34.670    523.000    556.523    -33.523    511.643    556.246    511.643    511.923    511.643
 34.770    498.000    541.063    -43.063    511.416    540.787    511.416    511.693    511.416
 34.870    557.000    533.269     23.731    511.190    532.994    511.190    511.464    511.190
 34.970    498.709    528.683    -29.974    510.965    528.411    510.965    511.238    510.965
 35.070    525.209    525.535     -0.326    510.742    525.264    510.742    511.013    510.742
 35.170    545.000    523.164     21.836    510.521    522.895    510.521    510.789    510.521
 35.270    547.000    521.295     25.705    510.301    521.028    510.301    510.568    510.301
 35.370    535.047    519.782     15.265    510.082    519.516    510.082    510.347    510.082
 35.470    515.000    518.530     -3.530    509.865    518.266    509.865    510.129    509.865
 35.570    502.000    517.476    -15.476    509.650    517.213    509.650    509.913    509.650
 35.670    510.000    516.576     -6.576    509.436    516.314    509.436    509.698    509.436
 35.770    479.000    515.796    -36.796    509.223    515.534    509.223    509.484    509.223
 35.870    540.000    515.112     24.888    509.012    514.851    509.012    509.273    509.012
 35.970    547.615    514.506     33.109    508.803    514.246    508.803    509.063    508.803
 36.070    532.000    513.965     18.035    508.595    513.705    508.595    508.854    508.595
 36.170    454.000    513.478    -59.478    508.389    513.219    508.389    508.648    508.389
 36.270    502.000    513.038    -11.038    508.184    512.779    508.184    508.443    508.184
 36.370    466.000    512.640    -46.640    507.980    512.381    507.980    508.239    507.980
 36.470    506.000    512.279     -6.279    507.779    512.020    507.779    508.038    507.779
 36.570    540.000    511.955     28.045    507.579    511.696    507.579    507.838    507.579
 36.670    539.231    511.667     27.565    507.380    511.407    507.380    507.639    507.380
 36.770    515.000    511.420      3.580    507.183    511.160    507.183    507.443    507.183
 36.870    504.000    511.229     -7.229    506.988    510.969    506.988    507.248    506.988
 36.970    523.000    511.140     11.860    506.794    510.879    506.794    507.055    506.794
 37.070    481.073    511.273    -30.200    506.602    511.011    506.602    506.863    506.602
 37.170    468.307    511.876    -43.569    506.411    511.614    506.411    506.673    506.411
 37.270    559.235    513.333     45.901    506.222    513.071    506.222    506.485    506.222
 37.370    478.207    515.999    -37.792    506.034    515.736    506.034    506.298    506.034
 37.470    532.388    519.816     12.573    505.848    519.553    505.848    506.113    505.848
 37.570    522.000    523.893     -1.893    505.664    523.630    505.664    505.930    505.664
 37.670    502.000    526.473    -24.473    505.482    526.210    505.482    505.749    505.482
 37.770    541.022    526.084     14.938    505.300    525.823    505.300    505.569    505.300
 37.870    569.000    523.109     45.891    505.121    522.848    505.121    505.391    505.121
 37.970    483.093    519.166    -36.073    504.943    518.905    504.943    505.214    504.943
 38.070    481.000    515.515    -34.515    504.767    515.254    504.767    505.040    504.767
 38.170    556.000    512.630     43.370    504.593    512.366    504.593    504.867    504.593
 38.270    477.329    510.558    -33.229    504.420    510.290    504.420    504.695    504.420
 38.370    497.000    509.162    -12.162    504.248    508.890    504.248    504.526    504.248
 38.470    521.439    508.248     13.191    504.079    507.972    504.079    504.358    504.079
 38.570    511.173    507.648      3.526    503.911    507.368    503.911    504.192    503.911
 38.670    476.000    507.237    -31.237    503.744    506.955    503.744    504.027    503.744
 38.770    520.580    506.933     13.647    503.579    506.648    503.579    503.865    503.579
 38.870    487.000    506.685    -19.685    503.416    506.398    503.416    503.704    503.416
 38.970    471.794    506.469    -34.675    503.255    506.180    503.255    503.545    503.255
 39.070    495.000    506.273    -11.273    503.095    505.982    503.095    503.387    503.095
 39.170    467.342    506.092    -38.750    502.937    505.798    502.937    503.231    502.937
 39.270    551.000    505.923     45.077    502.780    505.626    502.780    503.077    502.780
 39.370    508.000    505.763      2.237    502.625    505.464    502.625    502.925    502.625
 39.470    468.527    505.613    -37.086    502.472    505.311    502.472    502.774    502.472
 39.570    520.923    505.471     15.452    502.321    505.167    502.321    502.626    502.321
 39.670    507.995    505.338      2.657    502.171    505.030    502.171    502.478    502.171
 39.770    459.000    505.212    -46.212    502.023    504.901    502.023    502.333    502.023
 39.870    548.721    505.094     43.627    501.876    504.780    501.876    502.190    501.876
 39.970    459.366    504.984    -45.618    501.731    504.667    501.731    502.048    501.731
 40.070    473.000    504.881    -31.881    501.588    504.562    501.588    501.908    501.588
 40.170    517.817    504.788     13.029    501.446    504.465    501.446    501.770    501.446
 40.270    475.486    504.704    -29.218    501.306    504.377    501.306    501.633    501.306
 40.370    462.085    504.629    -42.544    501.168    504.299    501.168    501.499    501.168
 40.470    550.301    504.566     45.735    501.032    504.232    501.032    501.366    501.032
 40.570    545.000    504.515     40.485    500.897    504.177    500.897    501.235    500.897
 40.670    494.773    504.478     -9.705    500.763    504.136    500.763    501.105    500.763
 40.770    497.000    504.457     -7.457    500.632    504.111    500.632    500.978    500.632
 40.870    459.001    504.454    -45.454    500.502    504.105    500.502    500.852    500.502
 40.970    520.037    504.475     15.563    500.374    504.121    500.374    500.728    500.374
 41.070    503.000    504.521     -1.521    500.247    504.163    500.247    500.606    500.247
 41.170    480.000    504.601    -24.601    500.122    504.239    500.122    500.486    500.122
 41.270    494.000    504.722    -10.722    499.999    504.355    499.999    500.367    499.999
 41.370    495.000    504.895     -9.895    499.877    504.523    499.877    500.251    499.877
 41.470    517.023    505.136     11.887    499.757    504.759    499.757    500.136    499.757
 41.570    537.000    505.468     31.532    499.639    505.086    499.639    500.023    499.639
 41.670    486.000    505.938    -19.938    499.523    505.550    499.523    499.912    499.523
 41.770    495.000    506.641    -11.641    499.408    506.248    499.408    499.802    499.408
 41.870    472.000    507.816    -35.816    499.294    507.419    499.294    499.695    499.294
 41.970    513.000    510.018      2.982    499.183    509.616    499.183    499.589    499.183
 42.070    522.000    514.366      7.634    499.073    513.959    499.073    499.486    499.073
 42.170    497.000    522.668    -25.668    498.965    522.258    498.965    499.384    498.965
 42.270    519.609    537.020    -17.411    498.858    536.611    498.858    499.284    498.858
 42.370    552.000    558.548     -6.548    498.753    558.142    498.753    499.186    498.753
 42.470    624.885    585.496     39.389    498.650    585.097    498.650    499.090    498.650
 42.570    600.435    611.574    -11.139    498.548    611.183    498.548    498.996    498.548
 42.670    594.000    626.516    -32.516    498.448    626.128    498.448    498.903    498.448
 42.770    643.245    622.478     20.767    498.350    622.084    498.350    498.813    498.350
 42.870    592.000    601.850     -9.850    498.254    601.438    498.254    498.725    498.254
 42.970    543.498    574.414    -30.915    498.159    573.979    498.159    498.639    498.159
 43.070    508.188    549.093    -40.906    498.065    548.635    498.065    498.554    498.065
 43.170    539.000    530.278      8.722    497.974    529.798    497.974    498.472    497.974
 43.270    502.000    518.381    -16.381    497.884    517.884    497.884    498.392    497.884
 43.370    482.454    511.725    -29.271    497.795    511.213    497.795    498.313    497.795
 43.470    517.000    508.251      8.749    497.708    507.726    497.708    498.237    497.708
 43.570    477.738    506.421    -28.684    497.623    505.885    497.623    498.163    497.623
 43.670    492.000    505.364    -13.364    497.540    504.815    497.540    498.091    497.540
 43.770    538.268    504.669     33.598    497.458    504.108    497.458    498.021    497.458
 43.870    472.000    504.165    -32.165    497.378    503.591    497.378    497.954    497.378
 43.970    521.696    503.780     17.916    497.299    503.192    497.299    497.888    497.299
 44.070    534.000    503.479     30.521    497.222    502.877    497.222    497.825    497.222
 44.170    550.000    503.242     46.758    497.147    502.625    497.147    497.764    497.147
 44.270    484.000    503.055    -19.055    497.073    502.423    497.073    497.706    497.073
 44.370    491.000    502.909    -11.909    497.001    502.261    497.001    497.650    497.001
 44.470    466.291    502.797    -36.506    496.931    502.132    496.931    497.596    496.931
 44.570    503.296    502.714      0.582    496.862    502.031    496.862    497.545    496.862
 44.670    523.000    502.656     20.344    496.795    501.955    496.795    497.497    496.795
 44.770    476.786    502.621    -25.835    496.729    501.899    496.729    497.451    496.729
 44.870    476.327    502.606    -26.279    496.665    501.864    496.665    497.407    496.665
 44.970    537.000    502.610     34.390    496.603    501.845    496.603    497.367    496.603
 45.070    528.862    502.632     26.230    496.542    501.844    496.542    497.330    496.542
 45.170    507.000    502.672      4.328    496.482    501.859    496.482    497.295    496.482
 45.270    495.000    502.729     -7.729    496.425    501.890    496.425    497.264    496.425
 45.370    483.000    502.803    -19.803    496.369    501.936    496.369    497.236    496.369
 45.470    538.000    502.896     35.104    496.314    501.999    496.314    497.211    496.314
 45.570    477.535    503.007    -25.472    496.261    502.079    496.261    497.190    496.261
 45.670    534.705    503.139     31.566    496.210    502.176    496.210    497.173    496.210
 45.770    523.000    503.291     19.709    496.160    502.291    496.160    497.160    496.160
 45.870    474.000    503.467    -29.467    496.112    502.428    496.112    497.151    496.112
 45.970    531.000    503.667     27.333    496.066    502.586    496.066    497.146    496.066
 46.070    516.000    503.894     12.106    496.020    502.767    496.020    497.147    496.020
 46.170    498.000    504.154     -6.154    495.977    502.978    495.977    497.153    495.977
 46.270    511.000    504.452      6.548    495.935    503.222    495.935    497.164    495.935
 46.370    458.998    504.792    -45.793    495.895    503.504    495.895    497.182    495.895
 46.470    485.062    505.182    -20.120    495.856    503.831    495.856    497.206    495.856
 46.570    563.000    505.634     57.366    495.818    504.213    495.818    497.238    495.818
 46.670    543.683    506.161     37.522    495.783    504.665    495.783    497.278    495.783
 46.770    513.000    506.791      6.209    495.748    505.211    495.748    497.327    495.748
 46.870    476.996    507.578    -30.581    495.716    505.905    495.716    497.386    495.716
 46.970    523.421    508.642     14.779    495.684    506.868    495.684    497.457    495.684
 47.070    545.000    510.251     34.749    495.655    508.363    495.655    497.540    495.655
 47.170    471.751    512.926    -41.175    495.626    510.910    495.626    497.638    495.626
 47.270    482.800    517.523    -34.723    495.600    515.361    495.600    497.753    495.600
 47.370    513.000    525.135    -12.135    495.574    522.808    495.574    497.887    495.574
 47.470    540.000    536.660      3.340    495.551    534.145    495.551    498.044    495.551
 47.570    559.000    552.039      6.961    495.528    549.307    495.528    498.228    495.528
 47.670    584.000    569.426     14.574    495.508    566.446    495.508    498.444    495.508
 47.770    575.004    584.731     -9.726    495.488    581.469    495.488    498.697    495.488
 47.870    633.986    592.490     41.496    495.471    588.908    495.471    498.996    495.471
 47.970    557.000    589.470    -32.470    495.454    585.520    495.454    499.352    495.454
 48.070    563.000    577.877    -14.877    495.439    573.495    495.439    499.780    495.439
 48.170    583.000    563.052     19.948    495.426    558.146    495.426    500.302    495.426
 48.270    615.000    549.607     65.393    495.414    544.048    495.414    500.954    495.414
 48.370    567.258    540.026     27.231    495.403    533.620    495.403    501.797    495.403
 48.470    532.000    534.896     -2.896    495.394    527.352    495.394    502.931    495.394
 48.570    494.379    533.711    -39.332    495.387    524.572    495.387    504.520    495.387
 48.670    495.000    535.713    -40.713    495.380    524.273    495.380    506.817    495.380
 48.770    523.532    540.427    -16.895    495.376    525.625    495.376    510.174    495.376
 48.870    521.099    547.827    -26.729    495.372    528.164    495.372    515.032    495.372
 48.970    583.000    558.247     24.753    495.370    531.764    495.370    521.848    495.370
 49.070    553.000    572.262    -19.262    495.369    536.652    495.369    530.975    495.369
 49.170    585.416    590.620     -5.204    495.370    543.527    495.370    542.458    495.370
 49.270    639.958    614.663     25.295    495.372    554.247    495.372    555.780    495.372
 49.370    642.000    647.499     -5.499    495.376    573.339    495.376    569.522    495.376
 49.470    677.669    696.348    -18.679    495.381    610.609    495.381    581.097    495.381
 49.570    800.000    775.874     24.126    495.387    684.006    495.387    587.213    495.387
 49.670    939.000    910.137     28.863    495.395    819.783    495.395    585.676    495.395
 49.770   1180.000   1127.090     52.910    495.404   1045.271    495.404    577.110    495.404
 49.870   1462.000   1440.837     21.163    495.414   1371.709    495.414    564.396    495.414
 49.970   1786.462   1827.222    -40.761    495.426   1771.846    495.426    550.645    495.426
 50.070   2183.000   2207.592    -24.592    495.439   2164.937    495.439    537.975    495.439
 50.170   2479.000   2459.389     19.611    495.453   2427.398    495.453    527.419    495.453
 50.270   2495.000   2474.587     20.413    495.469   2450.905    495.469    519.245    495.469
 50.370   2242.000   2242.355     -0.355    495.486   2224.756    495.486    513.266    495.486
 50.470   1793.000   1860.218    -67.218    495.504   1846.857    495.504    509.071    495.504
 50.570   1412.000   1455.918    -43.918    495.524   1445.426    495.524    506.201    495.524
 50.670   1079.000   1119.586    -40.586    495.544   1111.029    495.544    504.244    495.544
 50.770    771.000    886.511   -115.511    495.567    879.290    495.567    502.887    495.567
 50.870    801.145    748.988     52.157    495.590    742.732    495.590    501.915    495.590
 50.970    638.000    678.288    -40.288    495.615    672.765    495.615    501.190    495.615
 51.070    691.000    643.653     47.347    495.641    638.707    495.641    500.630    495.641
 51.170    614.000    622.786     -8.786    495.668    618.307    495.668    500.185    495.668
 51.270    632.817    604.648     28.169    495.696    600.552    495.696    499.825    495.696
 51.370    595.269    586.769      8.500    495.726    582.990    495.726    499.531    495.726
 51.470    565.000    570.362     -5.362    495.757    566.849    495.757    499.289    495.757
 51.570    576.000    556.940     19.060    495.789    553.651    495.789    499.091    495.789
 51.670    522.000    547.133    -25.133    495.823    544.037    495.823    498.928    495.823
 51.770    513.487    540.683    -27.196    495.857    537.751    495.857    498.795    495.857
 51.870    561.072    536.848     24.224    495.893    534.058    495.893    498.688    495.893
 51.970    564.000    534.842     29.158    495.930    532.173    495.930    498.602    495.930
 52.070    548.000    534.085     13.915    495.968    531.520    495.968    498.536    495.968
 52.170    553.000    534.266     18.734    496.007    531.790    496.007    498.486    496.007
 52.270    565.000    535.327     29.673    496.048    532.926    496.048    498.451    496.048
 52.370    555.000    537.472     17.528    496.089    535.134    496.089    498.429    496.089
 52.470    512.165    541.324    -29.159    496.132    539.039    496.132    498.418    496.132
 52.570    582.000    548.283     33.717    496.176    546.042    496.176    498.419    496.176
 52.670    557.000    561.092     -4.092    496.221    558.885    496.221    498.429    496.221
 52.770    615.141    584.392     30.750    496.268    582.212    496.268    498.447    496.268
 52.870    661.000    624.735     36.265    496.315    622.575    496.315    498.475    496.315
 52.970    725.000    689.257     35.743    496.363    687.110    496.363    498.509    496.363
 53.070    806.000    782.535     23.465    496.413    780.396    496.413    498.552    496.413
 53.170    951.560    902.115     49.445    496.464    899.979    496.464    498.601    496.464
 53.270   1078.000   1034.247     43.753    496.515   1032.114    496.515    498.657    496.515
 53.370   1125.000   1151.998    -26.998    496.568   1149.866    496.568    498.719    496.568
 53.470   1189.000   1220.170    -31.170    496.622   1218.037    496.622    498.788    496.622
 53.570   1171.222   1212.966    -41.744    496.677   1210.826    496.677    498.863    496.677
 53.670   1169.284   1133.635     35.649    496.733   1131.475    496.733    498.944    496.733
 53.770    966.979   1011.446    -44.467    496.790   1009.253    496.790    499.032    496.790
 53.870    860.000    880.749    -20.749    496.848    878.513    496.848    499.125    496.848
 53.970    744.000    766.054    -22.054    496.907    763.767    496.907    499.225    496.907
 54.070    683.000    678.781      4.219    496.967    676.438    496.967    499.332    496.967
 54.170    644.551    619.754     24.797    497.028    617.351    497.028    499.445    497.028
 54.270    583.000    583.645     -0.645    497.090    581.179    497.090    499.565    497.090
 54.370    556.000    563.275     -7.275    497.154    560.742    497.154    499.692    497.154
 54.470    574.000    552.413     21.587    497.218    549.807    497.218    499.827    497.218
 54.570    547.000    546.796      0.204    497.283    544.112    497.283    499.970    497.283
 54.670    536.403    543.968     -7.565    497.349    541.199    497.349    500.120    497.349
 54.770    574.006    542.695     31.311    497.416    539.832    497.416    500.280    497.416
 54.870    577.000    542.417     34.583    497.484    539.453    497.484    500.449    497.484
 54.970    554.000    542.903     11.097    497.552    539.828    497.552    500.629    497.552
 55.070    558.000    544.072     13.928    497.622    540.876    497.622    500.819    497.622
 55.170    562.000    545.918     16.082    497.693    542.591    497.693    501.021    497.693
 55.270    586.000    548.485     37.515    497.765    545.015    497.765    501.236    497.765
 55.370    530.000    551.869    -21.869    497.837    548.242    497.837    501.465    497.837
 55.470    570.000    556.240     13.760    497.910    552.442    497.910    501.710    497.910
 55.570    572.000    561.919     10.081    497.985    557.934    497.985    501.971    497.985
 55.670    559.000    569.562    -10.562    498.060    565.372    498.060    502.252    498.060
 55.770    544.123    580.587    -36.464    498.136    576.170    498.136    502.553    498.136
 55.870    628.198    597.989     30.209    498.213    593.324    498.213    502.878    498.213
 55.970    655.871    627.664     28.207    498.290    622.722    498.290    503.228    498.290
 56.070    675.000    679.953     -4.953    498.369    674.704    498.369    503.609    498.369
 56.170    731.000    770.499    -39.499    498.448    764.907    498.448    504.022    498.448
 56.270    879.000    918.700    -39.700    498.528    912.725    498.528    504.474    498.528
 56.370   1061.000   1142.087    -81.087    498.609   1135.686    498.609    504.969    498.609
 56.470   1421.000   1446.511    -25.511    498.691   1439.641    498.691    505.514    498.691
 56.570   1813.000   1814.735     -1.735    498.774   1807.354    498.774    506.116    498.774
 56.670   2081.000   2197.908   -116.908    498.857   2189.973    498.857    506.785    498.857
 56.770   2374.000   2515.262   -141.262    498.941   2506.726    498.941    507.532    498.941
 56.870   2634.000   2673.479    -39.479    499.026   2664.275    499.026    508.371    499.026
 56.970   2660.000   2616.209     43.791    499.112   2606.226    499.112    509.320    499.112
 57.070   2496.000   2366.512    129.488    499.198   2355.587    499.198    510.400    499.198
 57.170   1991.518   2007.213    -15.695    499.285   1995.136    499.285    511.641    499.285
 57.270   1702.000   1628.285     73.715    499.373   1614.819    499.373    513.085    499.373
 57.370   1321.854   1294.254     27.600    499.461   1279.114    499.461    514.795    499.461
 57.470   1051.000   1036.754     14.246    499.550   1019.574    499.550    516.869    499.550
 57.570    903.000    859.871     43.129    499.640    840.136    499.640    519.465    499.640
 57.670    753.000    750.888      2.112    499.731    727.830    499.731    522.843    499.731
 57.770    708.027    691.469     16.557    499.822    663.914    499.822    527.407    499.822
 57.870    707.000    665.608     41.392    499.914    631.774    499.914    533.762    499.914
 57.970    679.000    663.187     15.813    500.006    620.449    500.006    542.748    500.006
 58.070    729.396    680.144     49.251    500.100    624.810    500.100    555.427    500.100
 58.170    761.000    716.824     44.176    500.193    644.009    500.193    572.992    500.193
 58.270    773.000    775.646     -2.646    500.288    679.342    500.288    596.564    500.288
 58.370    823.000    858.667    -35.667    500.383    732.126    500.383    626.886    500.383
 58.470   1023.805    965.307     58.498    500.478    801.814    500.478    663.925    500.478
 58.570   1106.120   1090.432     15.688    500.575    884.553    500.575    706.405    500.575
 58.670   1177.000   1223.405    -46.405    500.671    972.794    500.671    751.239    500.671
 58.770   1291.000   1349.168    -58.168    500.769   1056.967    500.769    792.938    500.769
 58.870   1427.766   1451.545    -23.779    500.866   1128.709    500.866    823.687    500.866
 58.970   1450.000   1515.916    -65.916    500.965   1181.324    500.965    835.564    500.965
 59.070   1665.000   1531.552    133.448    501.064   1207.692    501.064    824.952    501.064
 59.170   1478.618   1496.581    -17.963    501.163   1202.611    501.163    795.177    501.163
 59.270   1573.000   1422.030    150.970    501.263   1169.288    501.263    754.052    501.263
 59.370   1410.000   1328.310     81.690    501.364   1120.256    501.364    709.452    501.364
 59.470   1236.000   1236.712     -0.712    501.465   1071.200    501.465    666.985    501.465
 59.570   1210.000   1164.971     45.029    501.566   1036.662    501.566    629.848    501.566
 59.670   1170.000   1128.021     41.979    501.668   1030.223    501.668    599.393    501.668
 59.770   1093.098   1137.409    -44.311    501.771   1063.348    501.771    575.706    501.771
 59.870   1195.000   1196.620     -1.620    501.874   1140.238    501.874    558.076    501.874
 59.970   1330.409   1296.287     34.122    501.977   1252.640    501.977    545.391    501.977
 60.070   1527.000   1412.562    114.438    502.081   1377.911    502.081    536.460    502.081
 60.170   1558.000   1509.483     48.517    502.185   1481.175    502.185    530.210    502.185
 60.270   1588.000   1548.372     39.628    502.289   1524.609    502.289    525.792    502.289
 60.370   1445.974   1506.493    -60.519    502.394   1486.088    502.394    522.592    502.394
 60.470   1372.046   1391.283    -19.237    502.500   1373.442    502.500    520.199    502.500
 60.570   1341.000   1232.860    108.140    502.605   1217.029    502.605    518.351    502.605
 60.670   1107.402   1065.430     41.972    502.711   1051.206    502.711    516.893    502.711
 60.770    922.000    915.121      6.879    502.818    902.192    502.818    515.731    502.818
 60.870    841.083    796.283     44.800    502.925    784.391    502.925    514.812    502.925
 60.970    752.000    712.620     39.380    503.032    701.544    503.032    514.106    503.032
 61.070    676.000    660.894     15.106    503.139    650.434    503.139    513.595    503.139
 61.170    648.000    635.417     12.583    503.247    625.385    503.247    513.268    503.247
 61.270    654.000    631.748     22.252    503.355    621.972    503.355    513.113    503.355
 61.370    678.771    648.719     30.052    503.464    639.042    503.464    513.111    503.464
 61.470    683.000    688.591     -5.591    503.572    678.883    503.572    513.233    503.572
 61.570    740.035    755.512    -15.477    503.681    745.690    503.681    513.434    503.681
 61.670    826.920    852.608    -25.688    503.791    842.659    503.791    513.641    503.791
 61.770    977.130    978.356     -1.226    503.900    968.363    503.900    513.764    503.900
 61.870   1062.000   1123.313    -61.313    504.010   1113.457    504.010    513.709    504.010
 61.970   1247.000   1268.333    -21.333    504.120   1258.853    504.120    513.427    504.120
 62.070   1346.000   1385.577    -39.577    504.230   1376.699    504.230    512.938    504.230
 62.170   1382.902   1445.048    -62.146    504.340   1436.927    504.340    512.316    504.340
 62.270   1374.000   1428.386    -54.386    504.451   1421.088    504.451    511.646    504.451
 62.370   1316.000   1340.624    -24.624    504.562   1334.130    504.562    510.998    504.562
 62.470   1140.015   1206.484    -66.469    504.672   1200.721    504.672    510.415    504.672
 62.570   1002.750   1056.169    -53.419    504.784   1051.036    504.784    509.920    504.784
 62.670    854.083    914.376    -60.293    504.895    909.768    504.895    509.518    504.895
 62.770    766.000    796.202    -30.202    505.006    792.020    505.006    509.205    505.006
 62.870    674.080    707.294    -33.215    505.118    703.455    505.118    508.971    505.118
 62.970    628.000    646.161    -18.161    505.230    642.597    505.230    508.803    505.230
 63.070    578.000    607.368    -29.368    505.341    604.027    505.341    508.686    505.341
 63.170    557.000    584.469    -27.469    505.453    581.314    505.453    508.609    505.453
 63.270    551.929    571.926    -19.997    505.565    568.927    505.565    508.561    505.565
 63.370    570.309    565.921      4.389    505.677    563.058    505.677    508.536    505.677
 63.470    603.208    564.428     38.780    505.789    561.684    505.789    508.527    505.789
 63.570    616.000    566.972     49.028    505.902    564.334    505.902    508.531    505.902
 63.670    563.130    574.356    -11.226    506.014    571.811    506.014    508.546    506.014
 63.770    608.000    588.399     19.601    506.126    585.936    506.126    508.570    506.126
 63.870    623.231    611.580     11.651    506.239    609.188    506.239    508.601    506.239
 63.970    683.000    646.427     36.573    506.351    644.096    506.351    508.639    506.351
 64.070    688.303    694.582     -6.279    506.463    692.303    506.463    508.683    506.463
 64.170    808.000    755.662     52.338    506.576    753.427    506.576    508.733    506.576
 64.270    816.000    826.182    -10.182    506.688    823.984    506.688    508.787    506.688
 64.370    919.000    898.860     20.140    506.800    896.700    506.800    508.845    506.800
 64.470    950.000    962.859    -12.859    506.913    960.740    506.913    508.908    506.913
 64.570    987.000   1006.087    -19.087    507.025   1004.016    507.025    508.974    507.025
 64.670   1068.000   1019.991     48.009    507.137   1017.977    507.137    509.044    507.137
 64.770   1010.000   1003.466      6.534    507.249   1001.515    507.249    509.117    507.249
 64.870   1009.000    962.280     46.720    507.361    960.393    507.361    509.193    507.361
 64.970    878.000    905.945    -27.945    507.473    904.118    507.473    509.272    507.473
 65.070    887.630    844.570     43.059    507.585    842.797    507.585    509.353    507.585
 65.170    746.000    786.137    -40.137    507.697    784.410    507.697    509.437    507.697
 65.270    698.511    735.038    -36.527    507.809    733.347    507.809    509.523    507.809
 65.370    704.450    692.428     12.021    507.920    690.766    507.920    509.612    507.920
 65.470    635.000    657.727    -22.727    508.032    656.086    508.032    509.702    508.032
 65.570    664.623    629.950     34.673    508.143    628.324    508.143    509.794    508.143
 65.670    574.000    608.184    -34.184    508.254    606.569    508.254    509.889    508.254
 65.770    586.515    591.586     -5.070    508.365    589.979    508.365    509.985    508.365
 65.870    553.000    579.373    -26.373    508.476    577.774    508.476    510.083    508.476
 65.970    525.542    570.833    -45.292    508.586    569.241    508.586    510.182    508.586
 66.070    550.877    565.317    -14.440    508.696    563.731    508.696    510.284    508.696
 66.170    584.404    562.242     22.162    508.807    560.662    508.807    510.387    508.807
 66.270    597.336    561.118     36.218    508.916    559.543    508.916    510.491    508.916
 66.370    546.000    561.573    -15.573    509.026    560.003    509.026    510.597    509.026
 66.470    579.000    563.407     15.593    509.136    561.838    509.136    510.705    509.136
 66.570    584.303    566.639     17.664    509.245    565.071    509.245    510.814    509.245
 66.670    570.000    571.619     -1.619    509.354    570.050    509.354    510.924    509.354
 66.770    585.000    579.217      5.783    509.462    577.644    509.462    511.037    509.462
 66.870    558.117    591.156    -33.039    509.571    589.577    509.571    511.150    509.571
 66.970    593.000    610.487    -17.487    509.679    608.900    509.679    511.266    509.679
 67.070    628.000    642.118    -14.118    509.787    640.519    509.787    511.383    509.787
 67.170    618.000    693.151    -75.151    509.894    691.539    509.894    511.501    509.894
 67.270    808.725    772.665     36.061    510.001    771.035    510.001    511.622    510.001
 67.370    878.000    890.462    -12.462    510.108    888.814    510.108    511.744    510.108
 67.470    993.000   1054.560    -61.560    510.214   1052.897    510.214    511.867    510.214
 67.570   1290.169   1267.600     22.568    510.320   1265.926    510.320    511.992    510.320
 67.670   1518.000   1522.970     -4.970    510.426   1521.294    510.426    512.120    510.426
 67.770   1719.000   1801.790    -82.790    510.532   1800.125    510.532    512.251    510.532
 67.870   2096.000   2071.842     24.158    510.636   2070.202    510.636    512.383    510.636
 67.970   2331.979   2289.974     42.005    510.741   2288.371    510.741    512.518    510.741
 68.070   2482.040   2411.160     70.880    510.845   2409.597    510.845    512.656    510.845
 68.170   2393.000   2405.739    -12.739    510.949   2404.205    510.949    512.796    510.949
 68.270   2329.000   2275.231     53.769    511.052   2273.693    511.052    512.940    511.052
 68.370   2033.000   2051.364    -18.364    511.155   2049.785    511.155    513.086    511.155
 68.470   1740.017   1779.507    -39.490    511.258   1777.852    511.258    513.237    511.258
 68.570   1559.733   1502.071     57.662    511.360   1500.317    511.360    513.391    511.360
 68.670   1298.000   1250.168     47.832    511.461   1248.302    511.461    513.549    511.461
 68.770   1058.000   1041.566     16.434    511.562   1039.584    511.562    513.712    511.562
 68.870    854.000    881.965    -27.965    511.663    879.868    511.663    513.880    511.663
 68.970    752.000    768.127    -16.127    511.763    765.918    511.763    514.053    511.763
 69.070    713.206    691.765     21.441    511.862    689.448    511.862    514.233    511.862
 69.170    672.000    643.063     28.937    511.961    640.640    511.961    514.419    511.961
 69.270    648.000    613.081     34.919    512.060    610.551    512.060    514.612    512.060
 69.370    638.000    594.893     43.107    512.158    592.252    512.158    514.814    512.158
 69.470    580.000    583.750     -3.750    512.255    580.990    512.255    515.025    512.255
 69.570    588.000    576.699     11.301    512.352    573.812    512.352    515.247    512.352
 69.670    616.000    572.050     43.950    512.449    569.025    512.449    515.480    512.449
 69.770    554.000    568.895    -14.895    512.544    565.718    512.544    515.726    512.544
 69.870    589.000    566.770     22.230    512.639    563.427    512.639    515.987    512.639
 69.970    532.000    565.445    -33.445    512.734    561.917    512.734    516.264    512.734
 70.070    557.000    564.811     -7.811    512.828    561.080    512.828    516.561    512.828
 70.170    613.000    564.834     48.166    512.921    560.877    512.921    516.879    512.921
 70.270    584.000    565.542     18.458    513.014    561.334    513.014    517.222    513.014
 70.370    588.000    567.041     20.959    513.106    562.552    513.106    517.594    513.106
 70.470    587.596    569.570     18.026    513.198    564.767    513.198    517.999    513.198
 70.570    558.868    573.602    -14.733    513.288    568.444    513.288    518.443    513.288
 70.670    548.000    580.001    -32.001    513.379    574.441    513.379    518.933    513.379
 70.770    543.231    590.268    -47.036    513.468    584.248    513.468    519.478    513.468
 70.870    598.000    606.793     -8.793    513.557    600.242    513.557    520.092    513.557
 70.970    628.000    633.104     -5.104    513.645    625.930    513.645    520.794    513.645
 71.070    611.000    673.912    -62.912    513.732    665.993    513.732    521.613    513.732
 71.170    757.000    734.794     22.206    513.819    725.960    513.819    522.597    513.819
 71.270    816.000    821.315     -5.315    513.905    811.320    513.905    523.820    513.905
 71.370    925.318    937.556    -12.239    513.991    926.040    513.991    525.399    513.991
 71.470   1099.251   1084.234     15.016    514.075   1070.661    514.075    527.512    514.075
 71.570   1214.000   1256.815    -42.815    514.159   1240.392    514.159    530.418    514.159
 71.670   1413.000   1444.145    -31.145    514.242   1423.730    514.242    534.471    514.242
 71.770   1667.000   1628.062     38.938    514.324   1602.064    514.324    540.127    514.324
 71.870   1795.000   1784.585     10.415    514.406   1750.883    514.406    547.918    514.406
 71.970   1906.000   1888.027     17.973    514.487   1843.940    514.487    558.407    514.487
 72.070   1913.637   1919.113     -5.476    514.567   1861.461    514.567    572.089    514.567
 72.170   1864.000   1873.980     -9.980    514.646   1799.268    514.646    589.269    514.646
 72.270   1714.566   1766.400    -51.835    514.724   1671.157    514.724    609.914    514.724
 72.370   1643.119   1620.626     22.492    514.802   1501.893    514.802    633.509    514.802
 72.470   1450.000   1461.643    -11.643    514.878   1317.602    514.878    658.912    514.878
 72.570   1279.000   1309.035    -30.035    514.954   1139.745    514.954    684.246    514.954
 72.670   1190.000   1174.721     15.279    515.029    982.894    515.029    706.862    515.029
 72.770   1011.000   1063.041    -52.041    515.104    854.584    515.104    723.567    515.104
 72.870    946.000    972.535    -26.535    515.177    756.337    515.177    731.379    515.177
 72.970    827.000    898.871    -71.871    515.250    685.413    515.250    728.709    515.250
 73.070    778.000    837.603    -59.603    515.321    636.772    515.321    716.152    515.321
 73.170    759.000    785.550    -26.550    515.392    604.775    515.392    696.167    515.392
 73.270    711.000    740.824    -29.824    515.462    584.333    515.462    671.953    515.462
 73.370    675.000    702.399    -27.399    515.531    571.463    515.531    646.467    515.531
 73.470    647.871    669.744    -21.873    515.599    563.382    515.599    621.962    515.599
 73.570    682.939    642.584     40.355    515.666    558.324    515.666    599.929    515.666
 73.670    666.950    620.709     46.241    515.732    555.274    515.732    581.173    515.732
 73.770    620.401    603.837     16.564    515.798    553.697    515.798    565.945    515.798
 73.870    586.000    591.541     -5.541    515.862    553.326    515.862    554.088    515.862
 73.970    621.946    583.244     38.702    515.925    554.002    515.925    545.182    515.925
 74.070    590.000    578.249     11.751    515.988    555.571    515.988    538.686    515.988
 74.170    615.000    575.779     39.221    516.049    557.809    516.049    534.045    516.049
 74.270    592.000    575.011     16.989    516.110    560.390    516.110    530.763    516.110
 74.370    533.407    575.108    -41.701    516.169    562.880    516.169    528.435    516.169
 74.470    632.000    575.253     56.747    516.228    564.768    516.228    526.756    516.228
 74.570    586.055    574.744     11.311    516.286    565.562    516.286    525.513    516.286
 74.670    537.042    573.126    -36.084    516.342    564.955    516.342    524.560    516.342
 74.770    642.000    570.320     71.680    516.398    562.957    516.398    523.804    516.398
 74.870    562.932    566.598     -3.666    516.452    559.904    516.452    523.186    516.452
 74.970    626.000    562.446     63.554    516.506    556.318    516.506    522.668    516.506
 75.070    529.709    558.407    -28.698    516.558    552.765    516.558    522.227    516.558
 75.170    545.823    555.005     -9.183    516.610    549.788    516.610    521.847    516.610
 75.270    562.000    552.732      9.268    516.660    547.890    516.660    521.517    516.660
 75.370    596.870    552.068     44.802    516.710    547.557    516.710    521.229    516.710
 75.470    552.000    553.506     -1.506    516.758    549.290    516.758    520.976    516.758
 75.570    587.000    557.573     29.427    516.805    553.622    516.805    520.753    516.805
 75.670    568.000    564.801      3.199    516.851    561.087    516.851    520.556    516.851
 75.770    616.000    575.648     40.352    516.896    572.146    516.896    520.382    516.896
 75.870    545.436    590.358    -44.921    516.940    587.046    516.940    520.228    516.940
 75.970    602.728    608.786     -6.058    516.983    605.646    516.983    520.091    516.983
 76.070    644.000    630.230     13.770    517.025    627.246    517.025    519.969    517.025
 76.170    715.000    653.313     61.687    517.066    650.470    517.066    519.860    517.066
 76.270    657.000    675.951    -18.951    517.105    673.238    517.105    519.762    517.105
 76.370    666.000    695.456    -29.456    517.144    692.864    517.144    519.675    517.144
 76.470    681.000    708.873    -27.873    517.181    706.395    517.181    519.597    517.181
 76.570    689.515    713.717    -24.202    517.217    711.348    517.217    519.527    517.217
 76.670    688.000    708.950    -20.950    517.252    706.685    517.252    519.464    517.252
 76.770    725.000    695.486     29.514    517.286    693.320    517.286    519.407    517.286
 76.870    649.000    675.735    -26.735    517.319    673.662    517.319    519.355    517.319
 76.970    607.390    652.629    -45.239    517.351    650.643    517.351    519.309    517.351
 77.070    593.153    628.867    -35.715    517.381    626.961    517.381    519.267    517.381
 77.170    643.028    606.546     36.482    517.410    604.714    517.410    519.229    517.410
 77.270    550.000    587.043    -37.043    517.438    585.279    517.438    519.194    517.438
 77.370    539.000    571.038    -32.038    517.465    569.335    517.465    519.162    517.465
 77.470    569.000    558.620     10.380    517.491    556.974    517.491    519.133    517.491
 77.570    507.993    549.459    -41.466    517.515    547.865    517.515    519.106    517.515
 77.670    535.000    542.995     -7.995    517.538    541.450    517.538    519.082    517.538
 77.770    585.661    538.598     47.063    517.561    537.098    517.561    519.059    517.561
 77.870    527.265    535.686     -8.421    517.581    534.228    517.581    519.038    517.581
 77.970    517.000    533.783    -16.783    517.601    532.364    517.601    519.019    517.601
 78.070    538.000    532.537      5.463    517.619    531.155    517.619    519.000    517.619
 78.170    549.718    531.708     18.011    517.637    530.360    517.637    518.983    517.637
 78.270    507.000    531.140    -24.140    517.652    529.825    517.652    518.967    517.652
 78.370    538.000    530.749      7.251    517.667    529.465    517.667    518.951    517.667
 78.470    559.576    530.485     29.091    517.681    529.228    517.681    518.937    517.681
 78.570    492.231    530.326    -38.095    517.693    529.095    517.693    518.923    517.693
 78.670    508.000    530.267    -22.267    517.704    529.060    517.704    518.910    517.704
 78.770    514.000    530.317    -16.317    517.713    529.132    517.713    518.898    517.713
 78.870    537.000    530.495      6.505    517.722    529.330    517.722    518.886    517.722
 78.970    511.000    530.825    -19.825    517.729    529.676    517.729    518.876    517.729
 79.070    549.361    531.317     18.044    517.734    530.183    517.734    518.868    517.734
 79.170    523.000    532.019     -9.019    517.739    530.895    517.739    518.861    517.739
 79.270    498.000    532.996    -34.996    517.742    531.878    517.742    518.858    517.742
 79.370    540.149    534.252      5.897    517.744    533.136    517.744    518.857    517.744
 79.470    531.299    535.812     -4.513    517.745    534.692    517.745    518.861    517.745
 79.570    585.051    537.707     47.344    517.744    536.577    517.744    518.871    517.744
 79.670    514.506    539.989    -25.483    517.742    538.840    517.742    518.887    517.742
 79.770    556.574    542.742     13.832    517.739    541.567    517.739    518.909    517.739
 79.870    516.000    546.109    -30.109    517.734    544.899    517.734    518.939    517.734
 79.970    585.157    550.318     34.838    517.728    549.067    517.728    518.975    517.728
 80.070    534.000    555.709    -21.709    517.721    554.408    517.721    519.017    517.721
 80.170    542.000    562.729    -20.729    517.712    561.376    517.712    519.063    517.712
 80.270    571.000    571.889     -0.889    517.702    570.481    517.702    519.110    517.702
 80.370    627.000    583.658     43.342    517.691    582.198    517.691    519.154    517.691
 80.470    593.713    598.347     -4.634    517.679    596.843    517.679    519.188    517.679
 80.570    583.000    615.988    -32.988    517.665    614.456    517.665    519.208    517.665
 80.670    646.507    636.247     10.260    517.649    634.705    517.649    519.207    517.649
 80.770    637.398    658.365    -20.967    517.633    656.837    517.633    519.182    517.633
 80.870    661.000    681.182    -20.182    517.615    679.693    517.615    519.132    517.615
 80.970    679.213    703.258    -24.046    517.595    701.828    517.595    519.061    517.595
 81.070    744.094    723.091     21.003    517.574    721.733    517.574    518.975    517.574
 81.170    695.000    739.319    -44.319    517.552    738.041    517.552    518.880    517.552
 81.270    749.654    750.848     -1.193    517.529    749.652    517.529    518.781    517.529
 81.370    767.000    756.938     10.062    517.504    755.821    517.504    518.682    517.504
 81.470    730.000    757.298    -27.298    517.478    756.255    517.478    518.588    517.478
 81.570    728.682    752.107    -23.425    517.450    751.130    517.450    518.498    517.450
 81.670    785.000    741.943     43.057    517.421    741.021    517.421    518.415    517.421
 81.770    753.000    727.729     25.271    517.391    726.854    517.391    518.338    517.391
 81.870    731.000    710.695     20.305    517.359    709.856    517.359    518.268    517.359
 81.970    638.494    692.205    -53.711    517.325    691.395    517.325    518.203    517.325
 82.070    664.674    673.481     -8.807    517.291    672.694    517.291    518.143    517.291
 82.170    635.000    655.382    -20.382    517.255    654.611    517.255    518.087    517.255
 82.270    611.000    638.357    -27.357    517.217    637.598    517.217    518.033    517.217
 82.370    661.217    622.571     38.646    517.179    621.820    517.179    517.981    517.179
 82.470    601.131    608.091     -6.960    517.138    607.345    517.138    517.931    517.138
 82.570    582.000    595.023    -13.023    517.097    594.279    517.097    517.881    517.097
 82.670    595.000    583.535     11.465    517.054    582.792    517.054    517.831    517.054
 82.770    611.987    573.813     38.174    517.009    573.068    517.009    517.780    517.009
 82.870    579.000    566.019     12.981    516.963    565.273    516.963    517.730    516.963
 82.970    543.254    560.278    -17.024    516.916    559.528    516.916    517.678    516.916
 83.070    572.000    556.658     15.342    516.867    555.904    516.867    517.626    516.867
 83.170    587.644    555.158     32.485    516.817    554.400    516.817    517.572    516.817
 83.270    559.072    555.684      3.388    516.766    554.921    516.766    517.518    516.766
 83.370    537.000    558.028    -21.028    516.713    557.260    516.713    517.463    516.713
 83.470    597.000    561.853     35.147    516.658    561.079    516.658    517.407    516.658
 83.570    578.000    566.693     11.307    516.603    565.914    516.603    517.350    516.603
 83.670    549.652    571.962    -22.310    516.545    571.178    516.545    517.291    516.545
 83.770    563.029    576.982    -13.953    516.487    576.194    516.487    517.232    516.487
 83.870    545.000    581.033    -36.033    516.427    580.243    516.427    517.171    516.427
 83.970    601.000    583.450     17.550    516.365    582.659    516.365    517.109    516.365
 84.070    552.555    583.763    -31.208    516.302    582.973    516.302    517.047    516.302
 84.170    530.000    581.832    -51.832    516.238    581.044    516.238    516.983    516.238
 84.270    545.493    577.884    -32.391    516.172    577.100    516.172    516.917    516.172
 84.370    550.000    572.418    -22.418    516.104    571.638    516.104    516.851    516.104
 84.470    553.385    566.048    -12.663    516.036    565.272    516.036    516.784    516.036
 84.570    536.000    559.369    -23.369    515.966    558.597    515.966    516.715    515.966
 84.670    589.000    552.885     36.115    515.894    552.116    515.894    516.645    515.894
 84.770    562.000    546.971     15.029    515.821    546.203    515.821    516.574    515.821
 84.870    555.193    541.862     13.331    515.746    541.095    515.746    516.502    515.746
 84.970    549.000    537.664     11.336    515.670    536.897    515.670    516.429    515.670
 85.070    498.000    534.378    -36.378    515.593    533.610    515.593    516.354    515.593
 85.170    501.000    531.928    -30.928    515.514    531.158    515.514    516.279    515.514
 85.270    525.000    530.198     -5.198    515.434    529.425    515.434    516.202    515.434
 85.370    457.000    529.060    -72.060    515.352    528.284    515.352    516.124    515.352
 85.470    567.000    528.401     38.599    515.269    527.621    515.269    516.045    515.269
 85.570    531.000    528.133      2.867    515.185    527.349    515.185    515.965    515.185
 85.670    487.600    528.208    -40.608    515.099    527.419    515.099    515.884    515.099
 85.770    535.000    528.618      6.382    515.011    527.823    515.011    515.801    515.011
 85.870    530.000    529.399      0.601    514.923    528.597    514.923    515.717    514.923
 85.970    576.000    530.633     45.367    514.832    529.824    514.832    515.633    514.832
 86.070    502.000    532.443    -30.443    514.741    531.625    514.741    515.547    514.741
 86.170    503.000    534.989    -31.989    514.648    534.162    514.648    515.460    514.648
 86.270    560.000    538.459     21.541    514.553    537.620    514.553    515.372    514.553
 86.370    542.000    543.045     -1.045    514.457    542.194    514.457    515.283    514.457
 86.470    574.712    548.919     25.793    514.360    548.053    514.360    515.193    514.360
 86.570    574.000    556.193     17.807    514.261    555.311    514.261    515.101    514.261
 86.670    514.512    564.879    -50.367    514.160    563.979    514.160    515.009    514.160
 86.770    563.000    574.834    -11.834    514.059    573.914    514.059    514.916    514.059
 86.870    601.000    585.768     15.232    513.956    584.826    513.956    514.822    513.956
 86.970    672.000    597.184     74.816    513.851    596.222    513.851    514.727    513.851
 87.070    600.056    608.384     -8.328    513.745    607.401    513.745    514.630    513.745
 87.170    639.000    618.515     20.485    513.638    617.513    513.638    514.533    513.638
 87.270    681.000    626.645     54.355    513.529    625.627    513.529    514.435    513.529
 87.370    609.115    631.905    -22.790    513.419    630.874    513.419    514.336    513.419
 87.470    605.842    633.694    -27.852    513.307    632.653    513.307    514.237    513.307
 87.570    645.000    631.851     13.149    513.194    630.805    513.194    514.136    513.194
 87.670    660.000    626.709     33.291    513.080    625.660    513.080    514.035    513.080
 87.770    632.000    618.987     13.013    512.964    617.937    512.964    513.933    512.964
 87.870    673.000    609.612     63.388    512.847    608.561    512.847    513.830    512.847
 87.970    634.000    599.563     34.437    512.728    598.510    512.728    513.727    512.728
 88.070    621.000    589.768     31.232    512.608    588.712    512.608    513.623    512.608
 88.170    591.086    581.031     10.055    512.487    579.970    512.487    513.518    512.487
 88.270    621.000    573.989     47.011    512.364    572.920    512.364    513.413    512.364
 88.370    552.000    569.081    -17.081    512.240    568.004    512.240    513.308    512.240
 88.470    594.688    566.547     28.141    512.114    565.459    512.114    513.202    512.114
 88.570    608.186    566.424     41.762    511.987    565.323    511.987    513.096    511.987
 88.670    624.000    568.560     55.440    511.859    567.445    511.859    512.989    511.859
 88.770    614.150    572.632     41.518    511.730    571.501    511.730    512.883    511.730
 88.870    619.000    578.164     40.836    511.599    577.016    511.599    512.776    511.599
 88.970    624.000    584.550     39.450    511.466    583.384    511.466    512.670    511.466
 89.070    606.033    591.083     14.950    511.333    589.898    511.333    512.563    511.333
 89.170    554.711    596.997    -42.286    511.197    595.790    511.197    512.457    511.197
 89.270    572.000    601.529    -29.529    511.061    600.298    511.061    512.352    511.061
 89.370    573.000    604.023    -31.023    510.923    602.763    510.923    512.247    510.923
 89.470    606.553    604.055      2.499    510.784    602.762    510.784    512.143    510.784
 89.570    627.000    601.540     25.460    510.644    600.211    510.644    512.040    510.644
 89.670    573.644    596.740    -23.096    510.502    595.368    510.502    511.938    510.502
 89.770    583.000    590.166     -7.166    510.359    588.748    510.359    511.837    510.359
 89.870    539.503    582.450    -42.947    510.215    580.980    510.215    511.739    510.215
 89.970    532.325    574.221    -41.896    510.069    572.695    510.069    511.642    510.069
 90.070    586.381    566.035     20.346    509.922    564.449    509.922    511.548    509.922
 90.170    493.000    558.332    -65.332    509.774    556.683    509.774    511.456    509.774
 90.270    546.000    551.428     -5.428    509.624    549.712    509.624    511.367    509.624
 90.370    536.061    545.512     -9.450    509.473    543.722    509.473    511.284    509.473
 90.470    574.299    540.653     33.646    509.321    538.784    509.321    511.205    509.321
 90.570    492.305    536.831    -44.526    509.168    534.877    509.168    511.133    509.168
 90.670    522.000    533.962    -11.962    509.013    531.915    509.013    511.068    509.013
 90.770    507.000    531.926    -24.926    508.857    529.775    508.857    511.013    508.857
 90.870    529.000    530.593     -1.593    508.700    528.325    508.700    510.971    508.700
 90.970    488.159    529.844    -41.686    508.541    527.443    508.541    510.944    508.541
 91.070    511.000    529.589    -18.589    508.382    527.032    508.382    510.940    508.382
 91.170    535.000    529.773      5.227    508.221    527.030    508.221    510.963    508.221
 91.270    568.319    530.378     37.941    508.058    527.410    508.058    511.025    508.058
 91.370    535.423    531.401      4.022    507.895    528.158    507.895    511.135    507.895
 91.470    578.466    532.993     45.474    507.730    529.409    507.730    511.311    507.730
 91.570    533.000    535.274     -2.274    507.564    531.264    507.564    511.569    507.564
 91.670    545.067    538.406      6.661    507.397    533.863    507.397    511.933    507.397
 91.770    511.000    542.604    -31.604    507.229    537.397    507.229    512.427    507.229
 91.870    535.000    548.119    -13.119    507.060    542.087    507.060    513.080    507.060
 91.970    518.411    555.214    -36.803    506.889    548.168    506.889    513.920    506.889
 92.070    599.000    564.145     34.855    506.717    555.866    506.717    514.976    506.717
 92.170    577.000    575.131      1.869    506.544    565.375    506.544    516.275    506.544
 92.270    614.027    588.320     25.706    506.370    576.823    506.370    517.836    506.370
 92.370    596.000    603.762     -7.762    506.195    590.251    506.195    519.669    506.195
 92.470    585.000    621.380    -36.380    506.019    605.582    506.019    521.772    506.019
 92.570    595.449    640.933    -45.485    505.841    622.595    505.841    524.127    505.841
 92.670    649.000    662.011    -13.011    505.662    640.917    505.662    526.697    505.662
 92.770    710.000    684.029     25.971    505.483    660.024    505.483    529.422    505.483
 92.870    713.000    706.241      6.759    505.302    679.256    505.302    532.217    505.302
 92.970    702.000    727.802    -25.802    505.120    697.879    505.120    534.969    505.120
 93.070    722.000    747.867    -25.867    504.937    715.190    504.937    537.537    504.937
 93.170    775.000    765.738      9.262    504.753    730.659    504.753    539.754    504.753
 93.270    801.799    780.987     20.811    504.567    744.033    504.567    541.445    504.567
 93.370    755.342    793.504    -38.162    504.381    755.363    504.381    542.446    504.381
 93.470    839.863    803.442     36.421    504.194    764.921    504.194    542.642    504.194
 93.570    830.000    811.137     18.863    504.005    773.077    504.005    541.995    504.005
 93.670    826.000    817.044      8.956    503.816    780.238    503.816    540.555    503.816
 93.770    864.000    821.720     42.280    503.626    786.835    503.626    538.446    503.626
 93.870    810.373    825.818    -15.444    503.434    793.355    503.434    535.835    503.434
 93.970    775.142    830.083    -54.941    503.242    800.365    503.242    532.900    503.242
 94.070    813.141    835.252    -22.111    503.048    808.440    503.048    529.802    503.048
 94.170    852.000    841.874     10.126    502.854    817.992    502.854    526.680    502.854
 94.270    886.000    850.132     35.868    502.659    829.094    502.659    523.643    502.659
 94.370    880.000    859.722     20.278    502.462    841.361    502.462    520.771    502.462
 94.470    837.481    869.821    -32.341    502.265    853.916    502.265    518.122    502.265
 94.570    903.000    879.151     23.849    502.067    865.445    502.067    515.729    502.067
 94.670    911.000    886.111     24.889    501.868    874.331    501.868    513.610    501.868
 94.770    875.133    889.014    -13.881    501.668    878.888    501.668    511.763    501.668
 94.870    966.000    886.409     79.591    501.467    877.677    501.467    510.177    501.467
 94.970    887.000    877.430      9.570    501.265    869.851    501.265    508.832    501.265
 95.070    914.699    862.037     52.661    501.062    855.397    501.062    507.698    501.062
 95.170    879.508    841.039     38.470    500.859    835.149    500.859    506.751    500.859
 95.270    845.000    815.893     29.107    500.654    810.595    500.654    505.961    500.654
 95.370    778.554    788.433     -9.879    500.449    783.594    500.449    505.300    500.449
 95.470    786.000    760.618     25.382    500.243    756.132    500.243    504.743    500.243
 95.570    700.065    734.369    -34.304    500.036    730.150    500.036    504.268    500.036
 95.670    668.000    711.470    -43.470    499.828    707.451    499.828    503.859    499.828
 95.770    719.499    693.520     25.979    499.620    689.647    499.620    503.500    499.620
 95.870    723.000    681.908     41.092    499.410    678.140    499.410    503.180    499.410
 95.970    713.834    677.807     36.028    499.200    674.111    499.200    502.891    499.200
 96.070    704.000    682.243     21.757    498.990    678.593    498.990    502.626    498.990
 96.170    718.000    696.017     21.983    498.778    692.392    498.778    502.381    498.778
 96.270    710.000    719.736     -9.736    498.566    716.118    498.566    502.152    498.566
 96.370    768.000    753.774     14.226    498.353    750.147    498.353    501.937    498.353
 96.470    815.000    798.181     16.819    498.139    794.533    498.139    501.734    498.139
 96.570    844.346    852.587     -8.241    497.925    848.905    497.925    501.542    497.925
 96.670    986.000    916.089     69.911    497.710    912.362    497.710    501.361    497.710
 96.770   1038.531    987.149     51.382    497.494    983.369    497.494    501.191    497.494
 96.870   1013.000   1063.531    -50.531    497.278   1059.688    497.278    501.030    497.278
 96.970   1070.000   1142.270    -72.270    497.061   1138.357    497.061    500.880    497.061
 97.070   1248.000   1219.717     28.283    496.844   1215.727    496.844    500.740    496.844
 97.170   1277.000   1291.654    -14.654    496.625   1287.580    496.625    500.611    496.625
 97.270   1398.000   1353.546     44.454    496.407   1349.381    496.407    500.493    496.407
 97.370   1420.000   1400.975     19.025    496.187   1396.711    496.187    500.388    496.187
 97.470   1356.000   1430.265    -74.265    495.968   1425.892    495.968    500.295    495.968
 97.570   1472.882   1439.155     33.727    495.747   1434.663    495.747    500.216    495.747
 97.670   1466.957   1427.272     39.686    495.526   1422.643    495.526    500.153    495.526
 97.770   1398.180   1396.139      2.041    495.305   1391.355    495.305    500.107    495.305
 97.870   1378.000   1348.775     29.225    495.083   1343.813    495.083    500.082    495.083
 97.970   1276.000   1289.086    -13.086    494.861   1283.918    494.861    500.080    494.861
 98.070   1288.000   1221.320     66.680    494.638   1215.912    494.638    500.105    494.638
 98.170   1180.000   1149.672     30.328    494.415   1143.987    494.415    500.165    494.415
 98.270   1042.405   1078.041    -35.635    494.191   1072.031    494.191    500.266    494.191
 98.370    993.000   1009.871    -16.871    493.967   1003.480    493.967    500.421    493.967
 98.470    984.000    948.082     35.918    493.743    941.239    493.743    500.642    493.743
 98.570    903.000    895.050      7.950    493.518    887.667    493.518    500.950    493.518
 98.670    827.000    852.636    -25.636    493.293    844.599    493.293    501.369    493.293
 98.770    787.000    822.247    -35.247    493.067    813.414    493.067    501.930    493.067
 98.870    768.000    804.916    -36.916    492.841    795.104    492.841    502.673    492.841
 98.970    769.259    801.386    -32.127    492.615    790.365    492.615    503.646    492.615
 99.070    790.000    812.176    -22.176    492.389    799.659    492.389    504.906    492.389
 99.170    861.000    837.613     23.387    492.162    823.248    492.162    506.520    492.162
 99.270    895.000    877.833     17.167    491.935    861.191    491.935    508.563    491.935
 99.370    896.000    932.722    -36.722    491.708    913.294    491.708    511.118    491.708
 99.470   1062.957   1001.834     61.123    491.481    979.026    491.481    514.268    491.481
 99.570   1060.000   1084.331    -24.331    491.253   1057.465    491.253    518.099    491.253
 99.670   1170.269   1178.820     -8.551    491.025   1147.142    491.025    522.688    491.025
 99.770   1310.000   1283.272     26.728    490.797   1245.964    490.797    528.098    490.797
 99.870   1458.000   1394.961     63.039    490.569   1351.164    490.569    534.371    490.569
 99.970   1431.012   1510.443    -79.431    490.341   1459.285    490.341    541.521    490.341
100.070   1649.000   1625.626     23.374    490.113   1566.262    490.113    549.520    490.113
100.170   1789.794   1735.978     53.816    489.885   1667.630    489.885    558.300    489.885
100.270   1822.503   1836.876    -14.373    489.656   1758.890    489.656    567.738    489.656
100.370   1916.263   1924.044     -7.781    489.428   1835.944    489.428    577.651    489.428
100.470   2010.000   1993.922     16.078    489.200   1895.475    489.200    587.798    489.200
100.570   2100.285   2043.837     56.448    488.971   1935.120    488.971    597.865    488.971
100.670   2105.000   2071.977     33.023    488.743   1953.444    488.743    607.475    488.743
100.770   2047.000   2077.318    -30.318    488.514   1949.860    488.514    616.190    488.514
100.870   2129.000   2059.696     69.304    488.286   1924.681    488.286    623.532    488.286
100.970   2030.756   2020.054     10.703    488.058   1879.325    488.058    629.027    488.058
101.070   1958.000   1960.683     -2.683    487.830   1816.490    487.830    632.264    487.830
101.170   1912.335   1885.235     27.101    487.602   1740.103    487.602    632.972    487.602
101.270   1718.720   1798.403    -79.684    487.374   1654.932    487.374    631.075    487.374
101.370   1735.000   1705.367     29.633    487.146   1566.020    487.146    626.709    487.146
101.470   1667.894   1611.191     56.704    486.919   1478.118    486.919    620.192    486.919
101.570   1483.080   1520.353    -37.273    486.692   1395.268    486.692    611.960    486.692
101.670   1450.000   1436.432     13.568    486.465   1320.566    486.465    602.495    486.465
101.770   1415.185   1361.946     53.240    486.238   1256.063    486.238    592.268    486.238
101.870   1281.292   1298.310    -17.018    486.012   1202.751    486.012    581.701    486.012
101.970   1221.000   1245.869    -24.869    485.785   1160.618    485.785    571.154    485.785
102.070   1163.000   1203.994    -40.994    485.560   1128.743    485.560    560.917    485.560
102.170   1202.444   1171.219     31.225    485.334   1105.435    485.334    551.217    485.334
102.270   1130.000   1145.426    -15.426    485.109   1088.412    485.109    542.216    485.109
102.370   1185.862   1124.074     61.789    484.884   1075.027    484.884    534.022    484.884
102.470   1062.000   1104.480    -42.480    484.660   1062.540    484.660    526.690    484.660
102.570   1089.000   1084.148      4.852    484.436   1048.439    484.436    520.235    484.436
102.670   1010.642   1061.089    -50.447    484.213   1030.758    484.213    514.635    484.213
102.770   1050.944   1034.063     16.881    483.990   1008.306    483.990    509.840    483.990
102.870   1017.950   1002.663     15.287    483.768    980.741    483.768    505.782    483.768
102.970    915.191    967.211    -52.020    483.546    948.467    483.546    502.382    483.546
103.070    958.011    928.562     29.449    483.324    912.422    483.324    499.553    483.324
103.170    822.000    887.862    -65.862    483.104    873.837    483.104    497.212    483.104
103.270    866.000    846.359     19.641    482.884    834.043    482.884    495.278    482.884
103.370    791.000    805.269    -14.269    482.664    794.326    482.664    493.679    482.664
103.470    793.000    765.678     27.322    482.445    755.838    482.445    492.350    482.445
103.570    735.539    728.491      7.048    482.227    719.538    482.227    491.236    482.227
103.670    682.000    694.395    -12.395    482.010    686.161    482.010    490.293    482.010
103.770    680.443    663.847     16.596    481.793    656.199    481.793    489.483    481.793
103.870    662.000    637.080     24.920    481.577    629.915    481.577    488.777    481.577
103.970    627.878    614.120     13.757    481.362    607.360    481.362    488.152    481.362
104.070    625.000    594.828     30.172    481.148    588.409    481.148    487.590    481.148
104.170    602.942    578.931     24.011    480.935    572.805    480.935    487.079    480.935
104.270    583.000    566.096     16.904    480.722    560.225    480.722    486.607    480.722
104.370    609.000    555.927     53.073    480.511    550.279    480.511    486.169    480.511
104.470    586.772    548.024     38.747    480.300    542.575    480.300    485.757    480.300
104.570    544.000    542.011      1.989    480.090    536.738    480.090    485.369    480.090
104.670    591.000    537.552     53.448    479.881    532.436    479.881    485.000    479.881
104.770    486.242    534.361    -48.119    479.673    529.387    479.673    484.649    479.673
104.870    561.311    532.208     29.103    479.467    527.361    479.467    484.314    479.467
104.970    505.252    530.922    -25.670    479.261    526.190    479.261    483.992    479.261
105.070    556.000    530.388     25.612    479.056    525.758    479.056    483.684    479.056
105.170    534.000    530.540      3.460    478.853    526.002    478.853    483.387    478.853
105.270    547.217    531.361     15.855    478.651    526.905    478.651    483.102    478.651
105.370    573.000    532.875     40.125    478.450    528.491    478.450    482.826    478.450
105.470    575.000    535.139     39.861    478.250    530.819    478.250    482.561    478.250
105.570    546.000    538.242      7.758    478.051    533.977    478.051    482.305    478.051
105.670    532.000    542.288    -10.288    477.853    538.071    477.853    482.058    477.853
105.770    555.677    547.388      8.289    477.657    543.211    477.657    481.818    477.657
105.870    512.716    553.642    -40.926    477.462    549.499    477.462    481.587    477.462
105.970    550.000    561.128    -11.128    477.269    557.011    477.269    481.364    477.269
106.070    575.000    569.880      5.120    477.077    565.784    477.077    481.148    477.077
106.170    600.173    579.881     20.291    476.886    575.800    476.886    480.940    476.886
106.270    595.000    591.049      3.951    476.697    586.976    476.697    480.738    476.697
106.370    590.000    603.228    -13.228    476.509    599.159    476.509    480.543    476.509
106.470    628.604    616.192     12.412    476.323    612.121    476.323    480.356    476.323
106.570    564.000    629.638    -65.638    476.138    625.561    476.138    480.174    476.138
106.670    624.000    643.199    -19.199    475.955    639.112    475.955    480.000    475.955
106.770    665.000    656.455      8.545    475.773    652.353    475.773    479.832    475.773
106.870    633.953    668.950    -34.998    475.593    664.829    475.593    479.670    475.593
106.970    655.000    680.221    -25.221    475.415    676.076    475.415    479.515    475.415
107.070    657.000    689.839    -32.839    475.239    685.668    475.239    479.367    475.239
107.170    705.000    697.464      7.536    475.064    693.262    475.064    479.225    475.064
107.270    679.000    702.901    -23.901    474.891    698.665    474.891    479.089    474.891
107.370    703.000    706.143     -3.143    474.719    701.867    474.719    478.960    474.719
107.470    631.000    707.376    -76.376    474.550    703.062    474.550    478.834    474.550
107.570    670.000    706.969    -36.969    474.382    702.607    474.382    478.718    474.382
107.670    684.659    705.383    -20.724    474.216    700.968    474.216    478.610    474.216
107.770    704.000    703.122      0.878    474.053    698.648    474.053    478.509    474.053
107.870    640.000    700.658    -60.658    473.891    696.120    473.891    478.416    473.891
107.970    695.000    698.389     -3.389    473.731    693.781    473.731    478.330    473.731
108.070    628.000    696.603    -68.603    473.573    691.920    473.573    478.252    473.573
108.170    713.177    695.462     17.715    473.417    690.697    473.417    478.182    473.417
108.270    693.760    694.991     -1.230    473.263    690.137    473.263    478.120    473.263
108.370    702.000    695.079      6.921    473.112    690.131    473.112    478.067    473.112
108.470    739.000    695.490     43.510    472.962    690.441    472.962    478.022    472.962
108.570    692.560    695.877     -3.317    472.815    690.729    472.815    477.978    472.815
108.670    692.000    695.846     -3.846    472.670    690.582    472.670    477.951    472.670
108.770    642.000    694.953    -52.953    472.527    689.565    472.527    477.936    472.527
108.870    660.246    692.796    -32.550    472.387    687.275    472.387    477.931    472.387
108.970    647.000    689.068    -42.068    472.249    683.404    472.249    477.937    472.249
109.070    666.000    683.600    -17.600    472.113    677.784    472.113    477.955    472.113
109.170    687.000    676.390     10.610    471.979    670.411    471.979    477.985    471.979
109.270    701.000    667.582     33.418    471.849    661.430    471.849    478.028    471.849
109.370    632.000    657.442    -25.442    471.720    651.105    471.720    478.084    471.720
109.470    676.000    646.305     29.695    471.594    639.771    471.594    478.155    471.594
109.570    663.000    634.541     28.459    471.471    627.795    471.471    478.241    471.471
109.670    670.000    622.513     47.487    471.350    615.543    471.350    478.343    471.350
109.770    628.718    610.546     18.172    471.232    603.335    471.232    478.463    471.232
109.870    558.134    598.976    -40.841    471.116    591.509    471.116    478.602    471.116
109.970    572.362    588.083    -15.721    471.004    580.343    471.004    478.761    471.004
110.070    609.000    578.056     30.944    470.894    570.021    470.894    478.942    470.894
110.170    547.662    569.044    -21.382    470.786    560.694    470.786    479.148    470.786
110.270    548.000    561.144    -13.144    470.682    552.454    470.682    479.381    470.682
110.370    545.000    554.402     -9.402    470.580    545.344    470.580    479.645    470.580
110.470    546.000    548.820     -2.820    470.482    539.362    470.482    479.944    470.482
110.570    582.985    544.361     38.624    470.386    534.467    470.386    480.283    470.386
110.670    549.000    540.963      8.037    470.293    530.589    470.293    480.669    470.293
110.770    556.414    538.543     17.871    470.203    527.637    470.203    481.109    470.203
110.870    576.876    537.010     39.865    470.116    525.511    470.116    481.615    470.116
110.970    554.291    536.272     18.019    470.033    524.103    470.033    482.199    470.033
111.070    524.000    536.238    -12.238    469.952    523.309    469.952    482.877    469.952
111.170    520.366    536.829    -16.464    469.875    523.030    469.875    483.670    469.875
111.270    580.779    537.980     42.799    469.801    523.173    469.801    484.602    469.801
111.370    504.000    539.638    -35.638    469.730    523.658    469.730    485.703    469.730
111.470    532.568    541.770     -9.203    469.662    524.417    469.662    487.009    469.662
111.570    528.000    544.361    -16.361    469.598    525.389    469.598    488.562    469.598
111.670    542.000    547.414     -5.414    469.537    526.529    469.537    490.414    469.537
111.770    512.000    550.949    -38.949    469.480    527.800    469.480    492.620    469.480
111.870    533.000    555.009    -22.009    469.426    529.178    469.426    495.249    469.426
111.970    587.042    559.653     27.389    469.375    530.647    469.375    498.372    469.375
112.070    586.465    564.958     21.507    469.328    532.206    469.328    502.072    469.328
112.170    559.000    571.019    -12.019    469.285    533.860    469.285    506.434    469.285
112.270    574.193    577.940     -3.748    469.245    535.626    469.245    511.550    469.245
112.370    591.000    585.840      5.160    469.209    537.527    469.209    517.513    469.209
112.470    601.000    594.840      6.160    469.176    539.594    469.176    524.413    469.176
112.570    578.415    605.065    -26.650    469.148    541.867    469.148    532.336    469.148
112.670    607.000    616.640     -9.640    469.123    544.394    469.123    541.359    469.123
112.770    632.992    629.685      3.307    469.102    547.235    469.102    551.542    469.102
112.870    684.212    644.319     39.893    469.085    550.467    469.085    562.926    469.085
112.970    630.954    660.657    -29.703    469.072    554.189    469.072    575.527    469.072
113.070    697.000    678.810     18.190    469.062    558.531    469.062    589.329    469.062
113.170    673.354    698.900    -25.546    469.057    563.661    469.057    604.282    469.057
113.270    769.297    721.056     48.241    469.056    569.804    469.056    620.293    469.056
113.370    738.593    745.437     -6.844    469.059    577.254    469.059    637.225    469.059
113.470    724.000    772.243    -48.243    469.066    586.397    469.066    654.893    469.066
113.570    851.000    801.737     49.263    469.078    597.731    469.078    673.061    469.078
113.670    848.000    834.265     13.735    469.093    611.895    469.093    691.438    469.093
113.770    906.694    870.291     36.403    469.113    629.696    469.113    709.677    469.113
113.870    924.000    910.418     13.582    469.137    652.140    469.137    727.377    469.137
113.970    934.138    955.424    -21.287    469.166    680.457    469.166    744.088    469.166
114.070    950.000   1006.299    -56.299    469.199    716.125    469.199    759.317    469.199
114.170   1100.000   1064.275     35.725    469.236    760.889    469.236    772.552    469.236
114.270   1136.292   1130.861      5.431    469.278    816.764    469.278    783.290    469.278
114.370   1247.716   1207.879     39.837    469.325    886.020    469.325    791.078    469.325
114.470   1226.011   1297.468    -71.457    469.376    971.156    469.376    795.560    469.376
114.570   1327.940   1402.079    -74.139    469.432   1074.834    469.432    796.521    469.432
114.670   1592.000   1524.411     67.589    469.492   1199.800    469.492    793.915    469.492
114.770   1692.000   1667.304     24.696    469.558   1348.763    469.558    787.873    469.558
114.870   1883.000   1833.574     49.426    469.628   1524.249    469.628    778.685    469.628
114.970   2131.000   2025.801    105.199    469.703   1728.430    469.703    766.761    469.703
115.070   2236.647   2246.091     -9.443    469.783   1962.927    469.783    752.585    469.783
115.170   2541.000   2495.825     45.175    469.868   2228.612    469.868    736.668    469.868
115.270   2783.000   2775.424      7.576    469.957   2525.399    469.957    719.518    469.957
115.370   3072.000   3084.134    -12.134    470.052   2852.064    470.052    701.607    470.052
115.470   3444.000   3419.856     24.144    470.152   3206.081    470.152    683.364    470.152
115.570   3758.000   3779.025    -21.025    470.258   3583.514    470.258    665.162    470.258
115.670   3990.000   4156.552   -166.552    470.368   3978.957    470.368    647.321    470.368
115.770   4498.000   4545.824    -47.824    470.484   4385.536    470.484    630.104    470.484
115.870   5050.859   4938.781    112.078    470.604   4794.983    470.604    613.722    470.604
115.970   5065.000   5326.061   -261.061    470.731   5197.774    470.731    598.337    470.731
116.070   5492.000   5697.223   -205.223    470.862   5583.360    470.862    584.063    470.862
116.170   6021.000   6041.067    -20.067    471.000   5940.468    471.000    570.970    471.000
116.270   6343.000   6346.068     -3.068    471.142   6257.540    471.142    559.092    471.142
116.370   6651.000   6600.951     50.049    471.290   6523.304    471.290    548.429    471.290
116.470   6684.000   6795.430   -111.430    471.444   6727.500    471.444    538.951    471.444
116.570   7001.000   6921.048     79.952    471.604   6861.721    471.604    530.608    471.604
116.670   7045.000   6972.017     72.983    471.769   6920.242    471.769    523.330    471.769
116.770   7108.355   6945.885    162.469    471.940   6900.689    471.940    517.036    471.940
116.870   6942.000   6843.856     98.144    472.117   6804.347    472.117    511.637    472.117
116.970   6792.000   6670.532    121.468    472.299   6635.908    472.299    507.040    472.299
117.070   6342.032   6433.420    -91.388    472.488   6402.966    472.488    503.155    472.488
117.170   6109.841   6142.114    -32.273    472.682   6115.200    472.682    499.891    472.682
117.270   5526.000   5807.438   -281.438    472.883   5783.516    472.883    497.165    472.883
117.370   5326.000   5440.684   -114.684    473.090   5419.283    473.090    494.899    473.090
117.470   4972.000   5052.998    -80.998    473.303   5033.717    473.303    493.024    473.303
117.570   4596.000   4654.917    -58.917    473.522   4637.418    473.522    491.478    473.522
117.670   4392.000   4256.027    135.973    473.747   4240.027    473.747    490.207    473.747
117.770   3880.000   3864.726     15.274    473.979   3849.991    473.979    489.164    473.979
117.870   3575.000   3488.071     86.929    474.217   3474.406    474.217    488.311    474.217
117.970   3215.000   3131.692     83.308    474.461   3118.940    474.461    487.614    474.461
118.070   2831.560   2799.794     31.766    474.712   2787.826    474.712    487.047    474.712
118.170   2611.000   2495.212    115.788    474.969   2483.922    474.969    486.587    474.969
118.270   2272.000   2219.520     52.480    475.233   2208.825    475.233    486.216    475.233
118.370   1955.000   1973.184    -18.184    475.504   1963.015    475.504    485.921    475.504
118.470   1743.828   1755.735    -11.907    475.781   1746.036    475.781    485.690    475.781
118.570   1489.000   1565.953    -76.953    476.065   1556.680    476.065    485.513    476.065
118.670   1385.000   1402.055    -17.055    476.356   1393.169    476.356    485.384    476.356
118.770   1314.973   1261.871     53.102    476.654   1253.341    476.654    485.296    476.654
118.870   1200.237   1143.006     57.232    476.959   1134.806    476.959    485.245    476.959
118.970   1077.679   1042.984     34.695    477.270   1035.092    477.270    485.229    477.270
119.070    938.000    959.363    -21.363    477.589    951.759    477.589    485.243    477.589
119.170    872.000    889.824    -17.824    477.915    882.489    477.915    485.285    477.915
119.270    849.000    832.227     16.773    478.248    825.145    478.248    485.355    478.248
119.370    806.000    784.658     21.342    478.588    777.814    478.588    485.450    478.588
119.470    766.000    745.437     20.563    478.936    738.814    478.936    485.570    478.936
119.570    759.512    713.121     46.392    479.291    706.705    479.291    485.714    479.291
119.670    662.857    686.490    -23.634    479.653    680.267    479.653    485.881    479.653
119.770    638.000    664.533    -26.533    480.022    658.489    480.022    486.071    480.022
119.870    624.000    646.419    -22.419    480.400    640.538    480.400    486.283    480.400
119.970    586.460    631.472    -45.012    480.785    625.740    480.785    486.519    480.785
120.070    599.000    619.151    -20.151    481.177    613.553    481.177    486.777    481.177
120.170    612.188    609.024      3.164    481.577    603.545    481.577    487.059    481.577
120.270    566.000    600.749    -34.749    481.985    595.374    481.985    487.364    481.985
120.370    583.296    594.058    -10.762    482.401    588.769    482.401    487.693    482.401
120.470    573.000    588.738    -15.738    482.825    583.520    482.825    488.047    482.825
120.570    563.910    584.626    -20.716    483.256    579.460    483.256    488.426    483.256
120.670    595.178    581.592     13.586    483.696    576.461    483.696    488.831    483.696
120.770    546.000    579.537    -33.537    484.143    574.422    484.143    489.264    484.143
120.870    602.000    578.381     23.619    484.599    573.263    484.599    489.724    484.599
120.970    616.616    578.062     38.555    485.063    572.920    485.063    490.212    485.063
121.070    574.040    578.526     -4.486    485.536    573.341    485.536    490.729    485.536
121.170    564.000    579.726    -15.726    486.016    574.477    486.016    491.275    486.016
121.270    600.000    581.619     18.381    486.505    576.285    486.505    491.850    486.505
121.370    623.173    584.157     39.016    487.003    578.717    487.003    492.455    487.003
121.470    564.000    587.291    -23.291    487.509    581.725    487.509    493.088    487.509
121.570    592.827    590.965      1.862    488.023    585.254    488.023    493.751    488.023
121.670    599.000    595.114      3.886    488.546    589.239    488.546    494.440    488.546
121.770    634.663    599.666     34.997    489.078    593.610    489.078    495.156    489.078
121.870    600.265    604.537     -4.272    489.619    598.284    489.619    495.896    489.619
121.970    584.000    609.633    -25.633    490.169    603.170    490.169    496.658    490.169
122.070    605.000    614.850     -9.850    490.727    608.168    490.727    497.439    490.727
122.170    618.000    620.078     -2.078    491.294    613.169    491.294    498.236    491.294
122.270    627.000    625.196      1.804    491.871    618.058    491.871    499.045    491.871
122.370    608.963    630.082    -21.119    492.457    622.715    492.457    499.862    492.457
122.470    679.000    634.612     44.388    493.051    627.023    493.051    500.682    493.051
122.570    609.000    638.666    -29.666    493.655    630.866    493.655    501.499    493.655
122.670    675.515    642.134     33.381    494.269    634.139    494.269    502.309    494.269
122.770    631.452    644.922    -13.470    494.891    636.756    494.891    503.106    494.891
122.870    685.000    646.960     38.040    495.523    638.650    495.523    503.882    495.523
122.970    661.085    648.205     12.880    496.165    639.786    496.165    504.634    496.165
123.070    678.000    648.644     29.356    496.816    640.155    496.816    505.356    496.816
123.170    665.000    648.294     16.706    497.477    639.778    497.477    506.043    497.477
123.270    623.000    647.200    -24.200    498.148    638.703    498.148    506.694    498.148
123.370    634.000    645.426    -11.426    498.828    636.995    498.828    507.307    498.828
123.470    665.000    643.054     21.946    499.518    634.735    499.518    507.883    499.518
123.570    596.000    640.174    -44.174    500.219    632.012    500.219    508.425    500.219
123.670    616.000    636.882    -20.882    500.929    628.917    500.929    508.936    500.929
123.770    674.000    633.273     40.727    501.649    625.540    501.649    509.421    501.649
123.870    642.756    629.439     13.317    502.379    621.969    502.379    509.885    502.379
123.970    678.523    625.465     53.059    503.120    618.281    503.120    510.335    503.120
124.070    600.000    621.426    -21.426    503.871    614.549    503.871    510.777    503.871
124.170    623.000    617.387      5.613    504.632    610.830    504.632    511.215    504.632
124.270    656.000    613.400     42.600    505.404    607.172    505.404    511.654    505.404
124.370    631.000    609.508     21.492    506.186    603.612    506.186    512.101    506.186
124.470    615.000    605.738      9.262    506.979    600.173    506.979    512.561    506.979
124.570    596.952    602.106     -5.154    507.782    596.867    507.782    513.035    507.782
124.670    555.148    598.619    -43.472    508.596    593.699    508.596    513.529    508.596
124.770    613.000    595.277     17.723    509.421    590.664    509.421    514.043    509.421
124.870    584.938    592.068     -7.130    510.257    587.751    510.257    514.581    510.257
124.970    621.000    588.992     32.008    511.103    584.957    511.103    515.145    511.103
