neutron_powder_diffraction_0010
R_wp: 3.564
Temperature (K): 449.745
Counts: 83243.00
Wavelength (Ã…): 2.52098
COMMENTS
Test file for demonstrating the .xyy file format in Reel1.0
END OF HEADER
   tth       Y_obs     Y_calc      Y_res    Background    Phase_1_Nuc    Phase_1_Mag    Phase_2_Nuc    Phase_2_Mag
  9.970    742.293    749.287     -6.994    747.727    748.599    748.414    747.727    747.727
 10.070    701.856    748.025    -46.168    746.387    747.330    747.082    746.387    746.387
 10.170    698.344    746.781    -48.436    745.056    746.078    745.758    745.056    745.056
 10.270    730.494    745.556    -15.062    743.733    744.846    744.442    743.733    743.733
 10.370    763.624    744.354     19.270    742.418    743.637    743.135    742.418    742.418
 10.470    741.000    743.180     -2.180    741.112    742.455    741.837    741.112    741.112
 10.570    730.000    742.033    -12.033    739.814    741.300    740.547    739.814    739.814
 10.670    742.528    740.918      1.610    738.524    740.177    739.264    738.524    738.524
 10.770    731.000    739.843     -8.843    737.242    739.093    737.991    737.242    737.242
 10.870    749.000    738.816     10.184    735.968    738.058    736.725    735.968    735.968
 10.970    698.717    737.849    -39.132    734.702    737.082    735.467    734.702    734.702
 11.070    740.000    736.957      3.043    733.444    736.182    734.218    733.444    733.444
 11.170    702.195    736.163    -33.968    732.194    735.379    732.977    732.194    732.194
 11.270    760.000    735.513     24.487    730.952    734.719    731.744    730.952    730.952
 11.370    788.000    735.158     52.842    729.718    734.355    730.519    729.718    729.718
 11.470    783.000    734.971     48.029    728.492    734.157    729.303    728.492    728.492
 11.570    726.000    735.228     -9.228    727.274    734.405    728.094    727.274    727.274
 11.670    753.000    736.415     16.585    726.064    735.581    726.893    726.064    726.064
 11.770    738.000    739.582     -1.582    724.862    738.735    725.701    724.862    724.862
 11.870    717.285    746.698    -29.412    723.667    745.837    724.516    723.667    723.667
 11.970    721.018    760.460    -39.442    722.481    759.582    723.339    722.481    722.481
 12.070    827.000    782.767     44.233    721.302    781.865    722.171    721.302    721.302
 12.170    884.000    811.531     72.469    720.131    810.601    721.010    720.131    720.131
 12.270    787.687    837.000    -49.313    718.967    836.046    719.857    718.967    718.967
 12.370    869.940    843.577     26.363    717.812    842.608    718.712    717.812    717.812
 12.470    865.000    824.930     40.070    716.664    823.960    717.575    716.664    716.664
 12.570    818.000    793.643     24.357    715.523    792.678    716.446    715.523    715.523
 12.670    741.000    764.507    -23.507    714.390    763.546    715.324    714.390    714.390
 12.770    797.725    743.651     54.074    713.265    742.690    714.211    713.265    713.265
 12.870    708.554    730.875    -22.321    712.148    729.908    713.105    712.148    712.148
 12.970    726.000    723.566      2.434    711.038    722.590    712.007    711.038    711.038
 13.070    727.000    719.211      7.789    709.935    718.225    710.917    709.935    709.935
 13.170    716.609    716.259      0.351    708.840    715.261    709.834    708.840    708.840
 13.270    681.596    713.969    -32.373    707.752    712.959    708.759    707.752    707.752
 13.370    719.000    712.034      6.966    706.672    711.011    707.692    706.672    706.672
 13.470    757.620    710.323     47.298    705.599    709.288    706.633    705.599    705.599
 13.570    712.000    708.767      3.233    704.534    707.719    705.581    704.534    704.534
 13.670    686.000    707.322    -21.322    703.476    706.261    704.537    703.476    703.476
 13.770    699.000    705.964     -6.964    702.425    704.888    703.500    702.425    702.425
 13.870    736.058    704.672     31.386    701.382    703.583    702.471    701.382    701.382
 13.970    715.000    703.436     11.564    700.346    702.332    701.449    700.346    700.346
 14.070    714.000    702.242     11.758    699.317    701.123    700.435    699.317    699.317
 14.170    719.000    701.084     17.916    698.296    699.950    699.429    698.296    698.296
 14.270    692.000    699.956     -7.956    697.281    698.807    698.430    697.281    697.281
 14.370    708.007    698.854      9.153    696.274    697.689    697.439    696.274    696.274
 14.470    685.972    697.776    -11.804    695.274    696.594    696.455    695.274    695.274
 14.570    722.000    696.717     25.283    694.281    695.519    695.479    694.281    694.281
 14.670    698.785    695.676      3.109    693.296    694.462    694.510    693.296    693.296
 14.770    666.000    694.652    -28.652    692.317    693.420    693.548    692.317    692.317
 14.870    656.000    693.643    -37.643    691.345    692.393    692.594    691.345    691.345
 14.970    645.000    692.647    -47.647    690.381    691.380    691.647    690.381    690.381
 15.070    714.000    691.665     22.335    689.423    690.380    690.708    689.423    689.423
 15.170    649.000    690.702    -41.702    688.472    689.398    689.776    688.472    688.472
 15.270    678.677    689.764    -11.088    687.529    688.441    688.852    687.529    687.529
 15.370    725.000    688.819     36.181    686.592    687.475    687.935    686.592    686.592
 15.470    725.000    687.882     37.118    685.662    686.518    687.025    685.662    685.662
 15.570    700.923    686.955     13.969    684.739    685.571    686.123    684.739    684.739
 15.670    696.000    686.037      9.963    683.823    684.633    685.227    683.823    683.823
 15.770    668.000    685.130    -17.130    682.914    683.704    684.340    682.914    682.914
 15.870    688.000    684.235      3.765    682.011    682.787    683.459    682.011    682.011
 15.970    641.317    683.347    -42.031    681.115    681.877    682.586    681.115    681.115
 16.070    620.000    682.467    -62.467    680.226    680.974    681.720    680.226    680.226
 16.170    705.000    681.595     23.405    679.344    680.078    680.861    679.344    679.344
 16.270    683.000    680.732      2.268    678.469    679.191    680.009    678.469    678.469
 16.370    670.687    679.878     -9.190    677.600    678.312    679.165    677.600    677.600
 16.470    709.017    679.031     29.986    676.737    677.440    678.328    676.737    676.737
 16.570    733.000    678.193     54.807    675.882    676.576    677.498    675.882    675.882
 16.670    628.000    677.363    -49.363    675.033    675.720    676.676    675.033    675.033
 16.770    677.000    676.541      0.459    674.190    674.871    675.861    674.190    674.190
 16.870    690.000    675.727     14.273    673.354    674.029    675.053    673.354    673.354
 16.970    644.000    674.921    -30.921    672.525    673.194    674.252    672.525    672.525
 17.070    642.178    674.123    -31.946    671.702    672.367    673.458    671.702    671.702
 17.170    670.000    673.333     -3.333    670.886    671.547    672.672    670.886    670.886
 17.270    639.401    672.552    -33.151    670.076    670.735    671.893    670.076    670.076
 17.370    652.000    671.784    -19.784    669.272    669.935    671.121    669.272    669.272
 17.470    676.908    671.017      5.891    668.475    669.136    670.356    668.475    668.475
 17.570    693.000    670.258     22.742    667.684    668.344    669.599    667.684    667.684
 17.670    674.578    669.507      5.071    666.900    667.558    668.849    666.900    666.900
 17.770    675.027    668.765      6.262    666.122    666.780    668.107    666.122    666.122
 17.870    685.000    668.029     16.971    665.350    666.008    667.372    665.350    665.350
 17.970    622.842    667.301    -44.460    664.585    665.243    666.643    664.585    664.585
 18.070    657.000    666.581     -9.581    663.825    664.484    665.922    663.825    663.825
 18.170    669.000    665.874      3.126    663.072    663.737    665.209    663.072    663.072
 18.270    698.000    665.226     32.774    662.325    663.048    664.504    662.325    662.325
 18.370    667.000    664.555      2.445    661.585    662.334    663.806    661.585    661.585
 18.470    693.000    663.875     29.125    660.850    661.611    663.114    660.850    660.850
 18.570    678.637    663.197     15.440    660.122    660.889    662.430    660.122    660.122
 18.670    711.346    662.544     48.803    659.400    660.190    661.753    659.400    659.400
 18.770    658.000    661.889     -3.889    658.683    659.488    661.084    658.683    658.683
 18.870    667.000    661.232      5.768    657.973    658.784    660.422    657.973    657.973
 18.970    688.408    660.584     27.825    657.269    658.086    659.767    657.269    657.269
 19.070    651.000    659.942     -8.942    656.571    657.393    659.120    656.571    656.571
 19.170    638.000    659.309    -21.309    655.879    656.707    658.481    655.879    655.879
 19.270    634.000    658.686    -24.686    655.193    656.029    657.850    655.193    655.193
 19.370    651.370    658.103     -6.733    654.512    655.378    657.237    654.512    654.512
 19.470    693.000    657.537     35.463    653.838    654.740    656.635    653.838    653.838
 19.570    698.000    656.940     41.060    653.169    654.082    656.028    653.169    653.169
 19.670    592.000    656.348    -64.348    652.507    653.427    655.427    652.507    652.507
 19.770    625.864    655.763    -29.899    651.850    652.779    654.835    651.850    651.850
 19.870    619.835    655.187    -35.352    651.199    652.137    654.250    651.199    651.199
 19.970    654.000    654.621     -0.621    650.554    651.502    653.673    650.554    650.554
 20.070    654.000    654.071     -0.071    649.914    650.881    653.105    649.914    649.914
 20.170    625.000    653.525    -28.525    649.281    650.261    652.545    649.281    649.281
 20.270    636.000    652.984    -16.984    648.653    649.644    651.992    648.653    648.653
 20.370    654.019    652.452      1.567    648.030    649.034    651.449    648.030    648.030
 20.470    666.264    651.929     14.335    647.414    648.429    650.914    647.414    647.414
 20.570    639.000    651.418    -12.418    646.802    647.833    650.387    646.802    646.802
 20.670    618.802    650.932    -32.129    646.197    647.259    649.870    646.197    646.197
 20.770    635.345    650.481    -15.136    645.597    646.711    649.367    645.597    645.597
 20.870    641.000    650.029     -9.029    645.003    646.157    648.875    645.003    645.003
 20.970    695.593    649.579     46.013    644.414    645.607    648.386    644.414    644.414
 21.070    612.950    649.139    -36.188    643.831    645.053    647.917    643.831    643.831
 21.170    633.000    648.694    -15.694    643.253    644.497    647.450    643.253    643.253
 21.270    604.271    648.257    -43.986    642.681    643.949    646.989    642.681    642.681
 21.370    630.886    647.850    -16.964    642.114    643.427    646.537    642.114    642.114
 21.470    660.000    647.475     12.525    641.553    642.931    646.097    641.553    641.553
 21.570    683.903    647.080     36.823    640.997    642.410    645.666    640.997    640.997
 21.670    650.000    646.691      3.309    640.446    641.891    645.246    640.446    640.446
 21.770    634.000    646.309    -12.309    639.901    641.374    644.836    639.901    639.901
 21.870    674.058    645.944     28.114    639.361    640.867    644.438    639.361    639.361
 21.970    602.000    645.609    -43.609    638.826    640.384    644.052    638.826    638.826
 22.070    616.000    645.296    -29.296    638.297    639.916    643.677    638.297    638.297
 22.170    612.109    644.978    -32.869    637.773    639.436    643.315    637.773    637.773
 22.270    679.000    644.671     34.329    637.254    638.960    642.965    637.254    637.254
 22.370    623.000    644.382    -21.382    636.740    638.494    642.628    636.740    636.740
 22.470    619.000    644.114    -25.114    636.232    638.038    642.308    636.232    636.232
 22.570    590.000    643.868    -53.868    635.728    637.592    642.004    635.728    635.728
 22.670    659.421    643.639     15.782    635.230    637.158    641.712    635.230    635.230
 22.770    634.000    643.432     -9.432    634.737    636.736    641.434    634.737    634.737
 22.870    645.000    643.243      1.757    634.249    636.321    641.171    634.249    634.249
 22.970    650.000    643.079      6.921    633.766    635.920    640.925    633.766    633.766
 23.070    614.921    642.943    -28.022    633.288    635.535    640.697    633.288    633.288
 23.170    637.000    642.839     -5.839    632.815    635.168    640.487    632.815    632.815
 23.270    633.442    642.770     -9.328    632.348    634.822    640.297    632.348    632.348
 23.370    645.000    642.739      2.261    631.885    634.497    640.127    631.885    631.885
 23.470    672.059    642.753     29.305    631.427    634.201    639.979    631.427    631.427
 23.570    640.871    642.820     -1.949    630.974    633.939    639.855    630.974    630.974
 23.670    646.000    642.947      3.053    630.525    633.719    639.754    630.525    630.525
 23.770    663.000    643.149     19.851    630.082    633.552    639.680    630.082    630.082
 23.870    605.711    643.442    -37.731    629.644    633.452    639.635    629.644    629.644
 23.970    658.000    643.851     14.149    629.210    633.443    639.619    629.210    629.210
 24.070    599.000    644.411    -45.411    628.781    633.560    639.635    628.781    628.781
 24.170    642.000    645.191     -3.191    628.357    633.866    639.684    628.357    628.357
 24.270    676.000    646.329     29.671    627.938    634.499    639.771    627.938    627.938
 24.370    635.000    648.147    -13.147    627.524    635.777    639.898    627.524    627.524
 24.470    711.000    651.334     59.666    627.114    638.386    640.069    627.114    627.114
 24.570    684.000    657.120     26.880    626.709    643.552    640.287    626.709    626.709
 24.670    681.000    667.115     13.885    626.308    652.885    640.556    626.308    626.308
 24.770    695.286    682.427     12.859    625.913    667.487    640.881    625.913    625.913
 24.870    691.306    701.914    -10.608    625.522    686.211    641.268    625.522    625.522
 24.970    742.000    720.068     21.932    625.135    703.536    641.722    625.135    625.135
 25.070    759.000    727.286     31.714    624.753    709.847    642.252    624.753    624.753
 25.170    745.000    718.453     26.547    624.376    700.017    642.865    624.376    624.376
 25.270    713.000    700.445     12.555    624.003    680.917    643.570    624.003    624.003
 25.370    665.176    682.722    -17.546    623.634    662.003    644.379    623.634    623.634
 25.470    623.630    669.832    -46.202    623.271    647.814    645.303    623.271    623.271
 25.570    632.000    662.271    -30.271    622.911    638.833    646.358    622.911    622.911
 25.670    674.000    658.713     15.287    622.556    633.713    647.561    622.556    622.556
 25.770    709.773    657.583     52.189    622.206    630.860    648.932    622.206    622.206
 25.870    639.000    657.781    -18.781    621.859    629.149    650.494    621.859    621.859
 25.970    688.251    658.752     29.499    621.518    627.994    652.276    621.518    621.518
 26.070    670.000    660.273      9.727    621.180    627.136    654.318    621.180    621.180
 26.170    670.000    662.262      7.738    620.847    626.459    656.650    620.847    620.847
 26.270    692.834    664.721     28.112    620.518    625.913    659.326    620.518    620.518
 26.370    633.136    667.685    -34.550    620.194    625.469    662.410    620.194    620.194
 26.470    615.000    671.214    -56.214    619.873    625.110    665.976    619.873    619.873
 26.570    693.000    675.391     17.609    619.557    624.827    670.121    619.557    619.557
 26.670    661.000    680.335    -19.335    619.246    624.615    674.963    619.246    619.246
 26.770    735.000    686.196     48.804    618.938    624.474    680.658    618.938    618.938
 26.870    672.105    693.180    -21.075    618.634    624.407    687.404    618.634    618.634
 26.970    733.000    701.556     31.444    618.335    624.423    695.464    618.335    618.335
 27.070    723.000    711.690     11.310    618.040    624.534    705.191    618.040    618.040
 27.170    738.000    724.075     13.925    617.749    624.760    717.058    617.749    617.749
 27.270    823.000    739.392     83.608    617.462    625.127    731.719    617.462    617.462
 27.370    765.000    758.625      6.375    617.179    625.677    750.118    617.179    617.179
 27.470    732.000    783.224    -51.224    616.900    626.470    773.642    616.900    616.900
 27.570    763.526    815.524    -51.998    616.625    627.606    804.527    616.625    616.625
 27.670    854.000    860.225     -6.225    616.354    629.283    847.276    616.354    616.354
 27.770    952.000    930.248     21.752    616.087    632.043    914.262    616.087    616.087
 27.870   1038.000   1065.784    -27.784    615.824    637.569   1043.983    615.824    615.824
 27.970   1413.822   1376.474     37.348    615.565    650.447   1341.471    615.565    615.565
 28.070   1941.000   2084.450   -143.450    615.310    679.963   2019.528    615.310    615.310
 28.170   3420.932   3467.346    -46.414    615.059    737.726   3344.148    615.059    615.059
 28.270   5433.000   5587.298   -154.298    614.811    826.360   5374.898    614.811    614.811
 28.370   7713.000   7904.556   -191.556    614.568    923.387   7594.700    614.568    614.568
 28.470   9257.749   9210.577     47.172    614.328    978.489   8845.569    614.328    614.328
 28.570   8702.000   8602.052     99.948    614.092    954.341   8261.480    614.092    614.092
 28.670   6847.000   6703.194    143.806    613.860    877.922   6439.237    613.860    613.860
 28.770   4823.362   4863.978    -40.617    613.632    807.183   4670.661    613.632    613.632
 28.870   3919.000   3955.866    -36.866    613.407    780.162   3789.279    613.407    613.407
 28.970   4095.000   4074.857     20.143    613.186    800.876   3887.250    613.186    613.186
 29.070   4689.000   4738.286    -49.286    612.969    845.326   4506.030    612.969    612.969
 29.170   5142.778   5176.794    -34.016    612.755    873.156   4916.644    612.755    612.755
 29.270   4908.000   4831.453     76.547    612.545    854.432   4589.999    612.545    612.545
 29.370   3841.000   3848.432     -7.432    612.338    798.472   3662.783    612.338    612.338
 29.470   2740.491   2743.572     -3.082    612.136    735.274   2620.833    612.136    612.136
 29.570   1780.000   1877.802    -97.802    611.936    685.722   1804.281    611.936    611.936
 29.670   1307.157   1339.533    -32.376    611.741    654.955   1296.467    611.741    611.741
 29.770   1129.000   1054.586     74.414    611.549    638.734   1027.476    611.549    611.549
 29.870    916.132    914.439      1.693    611.360    630.834    895.003    611.360    611.360
 29.970    858.000    842.108     15.892    611.175    626.843    826.461    611.175    611.175
 30.070    859.000    798.966     60.034    610.993    624.556    785.417    610.993    610.993
 30.170    808.178    769.376     38.802    610.815    623.095    757.106    610.815    610.815
 30.270    759.000    747.463     11.537    610.640    622.154    735.956    610.640    610.640
 30.370    780.000    730.826     49.174    610.469    621.661    719.638    610.469    610.469
 30.470    731.000    718.444     12.556    610.301    621.711    707.036    610.301    610.301
 30.570    743.000    710.299     32.701    610.136    622.667    697.767    610.136    610.136
 30.670    720.000    707.546     12.454    609.975    625.334    692.181    609.975    609.975
 30.770    664.215    712.535    -48.320    609.817    631.010    691.327    609.817    609.817
 30.870    781.000    727.791     53.209    609.663    641.029    696.398    609.663    609.663
 30.970    782.000    753.442     28.558    609.511    655.552    707.357    609.511    609.511
 31.070    794.000    783.631     10.369    609.363    671.889    721.044    609.363    609.363
 31.170    803.000    804.615     -1.615    609.218    683.598    730.165    609.218    609.218
 31.270    814.752    801.732     13.020    609.077    683.791    726.954    609.077    609.077
 31.370    770.000    774.270     -4.270    608.938    672.165    710.994    608.938    608.938
 31.470    790.000    736.322     53.678    608.803    655.420    689.673    608.803    608.803
 31.570    735.000    701.880     33.120    608.671    640.200    670.332    608.671    608.671
 31.670    698.000    677.026     20.974    608.542    629.406    656.152    608.542    608.542
 31.770    720.000    661.597     58.403    608.416    622.977    647.030    608.416    608.416
 31.870    658.000    652.762      5.238    608.293    619.590    641.461    608.293    608.293
 31.970    668.000    647.655     20.345    608.174    617.900    637.926    608.174    608.174
 32.070    681.000    644.421     36.579    608.057    617.041    635.435    608.057    608.057
 32.170    652.075    642.139      9.937    607.943    616.587    633.494    607.943    607.943
 32.270    695.000    640.420     54.580    607.833    616.363    631.889    607.833    607.833
 32.370    665.000    639.107     25.893    607.725    616.303    630.528    607.725    607.725
 32.470    686.482    638.133     48.349    607.620    616.384    629.369    607.620    607.620
 32.570    686.176    637.467     48.709    607.519    616.599    628.385    607.519    607.519
 32.670    588.722    637.099    -48.377    607.420    616.955    627.563    607.420    607.420
 32.770    588.913    637.038    -48.125    607.324    617.466    626.896    607.324    607.324
 32.870    641.000    637.309      3.691    607.231    618.155    626.385    607.231    607.231
 32.970    652.000    637.959     14.041    607.141    619.061    626.038    607.141    607.141
 33.070    658.000    639.057     18.943    607.054    620.237    625.873    607.054    607.054
 33.170    594.921    640.713    -45.791    606.969    621.760    625.921    606.969    606.969
 33.270    622.121    643.095    -20.974    606.888    623.752    626.229    606.888    606.888
 33.370    699.000    646.498     52.502    606.809    626.416    626.890    606.809    606.809
 33.470    663.000    651.526     11.474    606.733    630.168    628.089    606.733    606.733
 33.570    705.499    659.580     45.919    606.659    635.971    630.265    606.659    606.659
 33.670    643.000    673.888    -30.888    606.589    646.038    634.434    606.589    606.589
 33.770    759.000    700.992     58.008    606.521    664.850    642.653    606.521    606.521
 33.870    712.000    751.542    -39.542    606.456    699.707    658.274    606.456    606.456
 33.970    861.000    837.870     23.130    606.393    759.057    685.180    606.393    606.393
 34.070    943.000    966.150    -23.150    606.333    847.136    725.314    606.333    606.333
 34.170   1105.000   1124.122    -19.122    606.276    955.550    774.818    606.276    606.276
 34.270   1257.000   1268.643    -11.643    606.221   1054.745    820.106    606.221    606.221
 34.370   1363.124   1329.189     33.936    606.169   1096.404    838.965    606.169    606.169
 34.470   1279.000   1264.862     14.138    606.120   1052.498    818.511    606.120    606.120
 34.570   1083.000   1118.252    -35.252    606.073    952.202    772.153    606.073    606.073
 34.670    928.000    959.891    -31.891    606.028    843.839    722.104    606.028    606.028
 34.770    848.000    832.031     15.969    605.986    756.362    681.672    605.986    605.986
 34.870    773.000    746.193     26.807    605.947    697.666    654.484    605.947    605.947
 34.970    677.000    695.835    -18.835    605.910    663.269    638.482    605.910    605.910
 35.070    686.000    668.562     17.438    605.875    644.681    629.760    605.875    605.875
 35.170    696.000    653.808     42.192    605.843    634.661    624.992    605.843    605.843
 35.270    659.000    645.137     13.863    605.814    628.802    622.150    605.814    605.814
 35.370    663.635    639.396     24.239    605.786    624.942    620.241    605.786    605.786
 35.470    646.000    635.217     10.783    605.761    622.144    618.835    605.761    605.761
 35.570    612.235    632.007    -19.772    605.739    620.002    617.745    605.739    605.739
 35.670    566.000    629.471    -63.471    605.719    618.313    616.878    605.719    605.719
 35.770    580.936    627.435    -46.499    605.701    616.957    616.180    605.701    605.701
 35.870    602.994    625.784    -22.790    605.685    615.854    615.615    605.685    605.685
 35.970    665.561    624.435     41.126    605.672    614.949    615.158    605.672    605.672
 36.070    656.000    623.330     32.670    605.661    614.199    614.792    605.661    605.661
 36.170    616.000    622.426     -6.426    605.652    613.573    614.504    605.652    605.652
 36.270    601.000    621.692    -20.692    605.645    613.050    614.288    605.645    605.645
 36.370    649.424    621.107     28.317    605.641    612.611    614.137    605.641    605.641
 36.470    645.237    620.655     24.582    605.638    612.244    614.049    605.638    605.638
 36.570    657.689    620.327     37.362    605.638    611.939    614.027    605.638    605.638
 36.670    605.000    620.119    -15.119    605.640    611.688    614.072    605.640    605.640
 36.770    622.000    620.034      1.966    605.644    611.487    614.191    605.644    605.644
 36.870    591.000    620.078    -29.078    605.651    611.334    614.396    605.651    605.651
 36.970    629.402    620.268      9.133    605.659    611.227    614.700    605.659    605.659
 37.070    638.000    620.631     17.369    605.669    611.174    615.127    605.669    605.669
 37.170    589.000    621.215    -32.215    605.682    611.189    615.708    605.682    605.682
 37.270    587.000    622.107    -35.107    605.696    611.306    616.497    605.696    605.696
 37.370    605.516    623.478    -17.962    605.713    611.603    617.589    605.713    605.713
 37.470    581.829    625.663    -43.835    605.731    612.210    619.186    605.731    605.731
 37.570    613.114    629.296    -16.183    605.752    613.316    621.733    605.752    605.752
 37.670    640.000    635.501      4.499    605.774    615.117    626.159    605.774    605.774
 37.770    643.005    646.044     -3.038    605.798    617.702    634.142    605.798    605.798
 37.870    680.000    663.180     16.820    605.825    620.879    648.127    605.825    605.825
 37.970    719.000    688.796     30.204    605.853    623.992    670.660    605.853    605.853
 38.070    672.000    722.803    -50.803    605.883    625.919    702.772    605.883    605.883
 38.170    715.000    761.520    -46.520    605.915    625.781    741.660    605.915    605.915
 38.270    787.990    796.164     -8.174    605.948    623.811    778.313    605.948    605.948
 38.370    780.675    812.910    -32.235    605.984    620.943    797.968    605.984    605.984
 38.470    834.000    801.908     32.092    606.021    617.999    789.953    606.021    606.021
 38.570    824.000    768.514     55.486    606.060    615.477    759.119    606.060    606.060
 38.670    691.060    727.348    -36.288    606.101    613.593    719.876    606.101    606.101
 38.770    647.171    690.237    -43.066    606.144    612.329    684.066    606.144    606.144
 38.870    634.000    662.432    -28.432    606.189    611.549    657.081    606.189    606.189
 38.970    578.000    644.215    -66.215    606.235    611.095    639.360    606.235    606.235
 39.070    597.000    633.387    -36.387    606.282    610.841    628.832    606.282    606.282
 39.170    589.572    627.266    -37.694    606.332    610.703    622.898    606.332    606.332
 39.270    600.403    623.761    -23.358    606.383    610.631    619.515    606.383    606.383
 39.370    620.000    621.603     -1.603    606.436    610.600    617.440    606.436    606.436
 39.470    647.000    620.141     26.859    606.490    610.597    616.035    606.490    606.490
 39.570    636.000    619.071     16.929    606.546    610.614    615.005    606.546    606.546
 39.670    618.000    618.254     -0.254    606.604    610.648    614.211    606.604    606.604
 39.770    627.000    617.615      9.385    606.663    610.695    613.583    606.663    606.663
 39.870    599.851    617.111    -17.260    606.724    610.756    613.080    606.724    606.724
 39.970    620.000    616.712      3.288    606.786    610.828    612.672    606.786    606.786
 40.070    585.000    616.399    -31.399    606.850    610.910    612.339    606.850    606.850
 40.170    634.000    616.154     17.846    606.916    611.003    612.067    606.916    606.916
 40.270    650.000    615.967     34.033    606.982    611.107    611.843    606.982    606.982
 40.370    647.807    615.830     31.978    607.051    611.221    611.660    607.051    607.051
 40.470    604.000    615.735    -11.735    607.120    611.345    611.511    607.120    607.120
 40.570    628.000    615.678     12.322    607.191    611.481    611.389    607.191    607.191
 40.670    597.000    615.656    -18.656    607.264    611.630    611.291    607.264    607.264
 40.770    656.000    615.667     40.333    607.338    611.791    611.214    607.338    607.338
 40.870    622.463    615.709      6.754    607.413    611.968    611.155    607.413    607.413
 40.970    598.000    615.782    -17.782    607.490    612.161    611.112    607.490    607.490
 41.070    666.180    615.886     50.294    607.568    612.373    611.083    607.568    607.568
 41.170    602.052    616.024    -13.972    607.648    612.607    611.066    607.648    607.648
 41.270    608.000    616.198     -8.198    607.728    612.867    611.060    607.728    607.728
 41.370    585.000    616.412    -31.412    607.810    613.158    611.065    607.810    607.810
 41.470    586.000    616.672    -30.672    607.894    613.487    611.080    607.894    607.894
 41.570    639.910    616.987     22.923    607.978    613.862    611.105    607.978    607.978
 41.670    620.000    617.367      2.633    608.064    614.294    611.138    608.064    608.064
 41.770    596.512    617.830    -21.318    608.151    614.801    611.181    608.151    608.151
 41.870    610.000    618.400     -8.400    608.239    615.406    611.234    608.239    608.239
 41.970    594.000    619.120    -25.120    608.329    616.153    611.298    608.329    608.329
 42.070    599.000    620.078    -21.078    608.419    617.124    611.377    608.419    608.419
 42.170    655.000    621.453     33.547    608.511    618.491    611.476    608.511    608.511
 42.270    669.956    623.608     46.347    608.604    620.607    611.610    608.604    608.604
 42.370    579.000    627.216    -48.216    608.698    624.115    611.804    608.698    608.698
 42.470    578.000    633.326    -55.326    608.793    630.026    612.101    608.793    608.793
 42.570    693.242    643.247     49.995    608.889    639.599    612.551    608.889    608.889
 42.670    690.053    658.090     31.964    608.987    653.899    613.197    608.987    608.987
 42.770    655.510    677.936    -22.427    609.085    673.008    614.043    609.085    609.085
 42.870    654.000    700.819    -46.819    609.184    695.034    615.011    609.184    609.184
 42.970    713.000    721.779     -8.779    609.285    715.210    615.906    609.285    609.285
 43.070    753.366    733.374     19.991    609.386    726.383    616.438    609.386    609.386
 43.170    775.691    730.192     45.500    609.489    723.349    616.393    609.489    609.489
 43.270    715.000    714.013      0.987    609.592    707.820    615.841    609.592    609.592
 43.370    689.000    691.812     -2.812    609.697    686.497    615.055    609.697    609.697
 43.470    667.862    670.133     -2.270    609.802    665.674    614.293    609.802    609.802
 43.570    624.000    652.591    -28.591    609.908    648.826    613.696    609.908    609.908
 43.670    613.838    640.177    -26.339    610.015    636.905    613.302    610.015    610.015
 43.770    643.000    632.269     10.731    610.124    629.315    613.087    610.124    610.124
 43.870    586.851    627.607    -40.756    610.232    624.844    613.002    610.232    610.232
 43.970    601.454    624.964    -23.510    610.342    622.312    612.999    610.342    610.342
 44.070    610.345    623.454    -13.109    610.453    620.868    613.042    610.453    610.453
 44.170    616.000    622.547     -6.547    610.565    620.003    613.112    610.565    610.565
 44.270    597.000    621.970    -24.970    610.677    619.452    613.197    610.677    610.677
 44.370    655.000    621.587     33.413    610.790    619.087    613.292    610.790    610.790
 44.470    603.000    621.334    -18.334    610.904    618.845    613.394    610.904    610.904
 44.570    658.180    621.176     37.004    611.019    618.693    613.503    611.019    611.019
 44.670    659.000    621.092     37.908    611.134    618.610    613.617    611.134    611.134
 44.770    635.042    621.067     13.975    611.250    618.582    613.736    611.250    611.250
 44.870    631.000    621.091      9.909    611.367    618.599    613.860    611.367    611.367
 44.970    639.000    621.157     17.843    611.485    618.655    613.988    611.485    611.485
 45.070    631.331    621.259     10.072    611.603    618.743    614.120    611.603    611.603
 45.170    657.000    621.393     35.607    611.722    618.860    614.257    611.722    611.722
 45.270    652.000    621.556     30.444    611.842    619.002    614.397    611.842    611.842
 45.370    643.512    621.745     21.767    611.962    619.167    614.542    611.962    611.962
 45.470    672.000    621.960     50.040    612.083    619.353    614.690    612.083    612.083
 45.570    622.000    622.198     -0.198    612.205    619.560    614.843    612.205    612.205
 45.670    618.000    622.461     -4.461    612.327    619.787    615.001    612.327    612.327
 45.770    626.000    622.747      3.253    612.450    620.034    615.163    612.450    612.450
 45.870    629.000    623.058      5.942    612.573    620.300    615.331    612.573    612.573
 45.970    649.301    623.394     25.907    612.697    620.587    615.503    612.697    612.697
 46.070    628.000    623.756      4.244    612.822    620.896    615.681    612.822    612.822
 46.170    574.233    624.147    -49.914    612.947    621.228    615.866    612.947    612.947
 46.270    627.000    624.569      2.431    613.072    621.584    616.057    613.072    613.072
 46.370    676.386    625.025     51.360    613.198    621.968    616.255    613.198    613.198
 46.470    657.857    625.520     32.337    613.325    622.383    616.461    613.325    613.325
 46.570    652.000    626.057     25.943    613.452    622.832    616.676    613.452    613.452
 46.670    641.345    626.643     14.701    613.579    623.320    616.901    613.579    613.579
 46.770    645.000    627.287     17.713    613.707    623.855    617.138    613.707    613.707
 46.870    658.000    627.999     30.001    613.835    624.445    617.387    613.835    613.835
 46.970    669.714    628.792     40.921    613.964    625.103    617.652    613.964    613.964
 47.070    632.000    629.691      2.309    614.093    625.848    617.935    614.093    614.093
 47.170    648.000    630.734     17.266    614.222    626.713    618.242    614.222    614.222
 47.270    640.186    631.993      8.193    614.352    627.762    618.581    614.352    614.352
 47.370    608.000    633.610    -25.610    614.482    629.118    618.971    614.482    614.482
 47.470    656.140    635.844     20.296    614.613    631.010    619.443    614.613    614.613
 47.570    670.067    639.131     30.936    614.744    633.819    620.050    614.744    614.744
 47.670    607.000    644.099    -37.099    614.875    638.099    620.865    614.875    614.875
 47.770    624.247    651.488    -27.241    615.006    644.502    621.979    615.006    615.006
 47.870    609.738    661.917    -52.178    615.138    653.570    623.465    615.138    615.138
 47.970    682.000    675.482      6.518    615.270    665.387    625.337    615.270    615.270
 48.070    750.000    691.293     58.707    615.402    679.164    627.494    615.402    615.402
 48.170    668.000    707.034    -39.034    615.535    692.857    629.665    615.535    615.535
 48.270    673.000    718.924    -45.924    615.668    703.128    631.413    615.668    615.668
 48.370    720.542    723.065     -2.523    615.801    706.532    632.281    615.801    615.801
 48.470    718.000    718.287     -0.287    615.934    702.034    632.141    615.934    615.934
 48.570    732.000    707.358     24.642    616.067    692.065    631.322    616.067    616.067
 48.670    702.000    694.565      7.435    616.201    680.398    630.339    616.201    616.201
 48.770    660.000    683.186    -23.186    616.334    669.912    629.588    616.334    616.334
 48.870    713.214    674.926     38.288    616.468    662.097    629.283    616.468    616.468
 48.970    660.000    670.262    -10.262    616.602    657.355    629.499    616.602    616.602
 49.070    629.000    668.925    -39.925    616.736    655.423    630.230    616.736    616.736
 49.170    699.000    670.365     28.635    616.870    655.785    631.445    616.870    616.870
 49.270    649.000    674.123    -25.123    617.004    657.981    633.141    617.004    617.004
 49.370    722.658    680.088     42.570    617.139    661.825    635.396    617.139    617.139
 49.470    735.729    688.806     46.923    617.273    667.610    638.463    617.273    617.273
 49.570    679.069    702.082    -23.013    617.407    676.507    642.974    617.407    617.407
 49.670    716.000    724.263     -8.263    617.542    691.410    650.383    617.542    617.542
 49.770    761.000    764.404     -3.404    617.676    718.379    663.678    617.676    617.676
 49.870    846.000    838.805      7.195    617.811    768.356    688.217    617.811    617.811
 49.970    929.000    971.958    -42.958    617.945    857.872    731.957    617.945    617.945
 50.070   1159.000   1193.504    -34.504    618.080   1006.589    804.875    618.080    618.080
 50.170   1469.000   1525.877    -56.877    618.214   1229.621    914.301    618.214    618.214
 50.270   1977.000   1966.614     10.386    618.349   1525.361   1059.392    618.349    618.349
 50.370   2565.404   2469.992     95.412    618.483   1863.162   1225.095    618.483    618.483
 50.470   2966.000   2938.620     27.380    618.617   2177.722   1379.345    618.617    618.617
 50.570   3269.000   3239.680     29.320    618.751   2379.973   1478.396    618.751    618.751
 50.670   3159.614   3263.741   -104.127    618.885   2396.522   1486.178    618.885    618.885
 50.770   3008.000   3001.218      6.782    619.019   2220.957   1399.462    619.019    619.019
 50.870   2546.000   2551.159     -5.159    619.153   1919.778   1250.762    619.153    619.153
 50.970   1953.000   2048.904    -95.904    619.287   1583.889   1084.522    619.287    619.287
 51.070   1668.256   1599.706     68.550    619.421   1284.032    935.275    619.421    619.421
 51.170   1210.000   1257.200    -47.200    619.554   1056.297    820.590    619.554    619.554
 51.270   1080.000   1029.202     50.798    619.687    905.929    743.051    619.687    619.687
 51.370    913.000    895.106     17.894    619.820    818.923    696.066    619.820    619.820
 51.470    871.519    824.498     47.021    619.953    774.417    670.081    619.953    619.953
 51.570    842.000    789.731     52.269    620.086    753.092    656.763    620.086    620.086
 51.670    786.595    771.140     15.455    620.218    740.827    650.566    620.218    620.218
 51.770    747.000    757.852    -10.852    620.351    729.743    648.489    620.351    620.351
 51.870    798.767    746.192     52.575    620.482    717.553    649.144    620.482    620.482
 51.970    682.064    736.260    -54.196    620.614    705.055    651.835    620.614    620.614
 52.070    717.000    728.813    -11.813    620.746    693.661    655.904    620.746    620.746
 52.170    678.344    723.840    -45.495    620.877    684.341    660.375    620.877    620.877
 52.270    723.000    720.328      2.672    621.008    677.485    663.846    621.008    621.008
 52.370    694.787    716.687    -21.900    621.138    673.013    664.806    621.138    621.138
 52.470    682.741    711.835    -29.094    621.269    670.600    662.498    621.269    621.269
 52.570    728.700    706.016     22.684    621.399    669.876    657.534    621.399    621.399
 52.670    707.000    700.383      6.617    621.528    670.583    651.325    621.528    621.528
 52.770    692.000    696.218     -4.218    621.657    672.676    645.198    621.657    621.657
 52.870    721.000    694.645     26.355    621.786    676.435    639.997    621.786    621.786
 52.970    705.000    696.705      8.295    621.915    682.622    635.999    621.915    621.915
 53.070    689.532    704.096    -14.564    622.043    692.753    633.387    622.043    622.043
 53.170    705.954    719.110    -13.156    622.171    709.340    631.941    622.171    622.171
 53.270    731.840    745.130    -13.290    622.298    736.025    631.403    622.298    622.298
 53.370    783.000    786.464     -3.464    622.425    777.283    631.605    622.425    622.425
 53.470    851.754    847.307      4.447    622.551    837.399    632.458    622.551    622.551
 53.570    908.000    929.911    -21.911    622.677    918.688    633.901    622.677    622.677
 53.670   1101.000   1032.213     68.787    622.803   1019.186    635.834    622.803    622.803
 53.770   1122.645   1145.403    -22.758    622.928   1130.296    638.045    622.928    622.928
 53.870   1273.000   1252.048     20.952    623.053   1234.962    640.158    623.053    623.053
 53.970   1329.000   1327.020      1.980    623.177   1308.583    641.646    623.177    623.177
 54.070   1336.000   1346.190    -10.190    623.300   1327.531    642.003    623.300    623.300
 54.170   1255.803   1302.239    -46.436    623.424   1284.638    641.074    623.424    623.424
 54.270   1196.295   1211.099    -14.804    623.546   1195.509    639.186    623.546    623.546
 54.370   1143.232   1099.418     43.814    623.668   1086.241    636.888    623.668    623.668
 54.470    961.000    989.791    -28.791    623.790    978.969    634.647    623.790    623.790
 54.570    902.000    895.859      6.141    623.911    887.053    632.744    623.911    623.911
 54.670    799.551    823.222    -23.671    624.031    815.979    631.293    624.031    624.031
 54.770    717.996    771.711    -53.715    624.151    765.585    630.290    624.151    624.151
 54.870    755.000    737.821     17.179    624.270    732.437    629.663    624.270    624.270
 54.970    713.000    716.891     -3.891    624.389    711.973    629.314    624.389    624.389
 55.070    697.000    704.618     -7.618    624.507    699.976    629.153    624.507    624.507
 55.170    736.865    697.753     39.112    624.625    693.267    629.114    624.625    624.625
 55.270    739.962    694.186     45.775    624.741    689.777    629.154    624.741    624.741
 55.370    688.000    692.702     -4.702    624.858    688.316    629.247    624.858    624.858
 55.470    739.104    692.674     46.431    624.973    688.269    629.380    624.973    624.973
 55.570    691.407    693.817     -2.411    625.088    689.358    629.550    625.088    625.088
 55.670    710.000    696.047     13.953    625.202    691.495    629.756    625.202    625.202
 55.770    665.000    699.400    -34.400    625.316    694.717    630.001    625.316    625.316
 55.870    696.968    704.039     -7.071    625.429    699.179    630.292    625.429    625.429
 55.970    693.000    710.309    -17.309    625.541    705.212    630.641    625.541    625.541
 56.070    671.000    718.906    -47.906    625.652    713.487    631.073    625.652    625.652
 56.170    745.308    731.199     14.109    625.763    725.325    631.639    625.763    625.763
 56.270    724.000    749.788    -25.788    625.873    743.232    632.430    625.873    625.873
 56.370    800.126    779.271     20.855    625.982    771.642    633.610    625.982    625.982
 56.470    856.000    827.059     28.941    626.091    817.704    635.441    626.091    626.091
 56.570    918.000    903.746     14.254    626.198    891.634    638.300    626.198    626.198
 56.670   1017.514   1022.292     -4.778    626.305   1005.933    642.647    626.305    626.305
 56.770   1186.000   1195.288     -9.288    626.412   1172.748    648.927    626.412    626.412
 56.870   1450.000   1430.142     19.858    626.517   1399.225    657.404    626.517    626.517
 56.970   1733.143   1722.980     10.162    626.622   1681.633    667.943    626.622    626.622
 57.070   1991.000   2052.786    -61.786    626.725   1999.702    679.799    626.725    626.725
 57.170   2410.000   2377.271     32.729    626.828   2312.649    691.476    626.828    626.828
 57.270   2663.000   2633.650     29.350    626.931   2559.910    700.751    626.931    626.931
 57.370   2807.000   2753.763     53.237    627.032   2675.732    705.214    627.032    627.032
 57.470   2764.000   2699.385     64.615    627.132   2623.224    703.512    627.132    627.132
 57.570   2615.000   2489.582    125.418    627.232   2420.752    696.322    627.232    627.232
 57.670   2220.000   2185.684     34.316    627.331   2127.457    685.823    627.331    627.331
 57.770   1921.363   1854.790     66.573    627.429   1808.060    674.400    627.429    627.429
 57.870   1509.000   1547.421    -38.421    627.526   1511.284    663.863    627.526    627.526
 57.970   1276.180   1292.553    -16.373    627.622   1265.054    655.275    627.622    627.622
 58.070   1098.981   1100.354     -1.373    627.717   1079.112    649.070    627.717    627.717
 58.170    998.000    967.695     30.306    627.812    950.308    645.272    627.812    627.812
 58.270    895.817    884.516     11.301    627.905    868.707    643.760    627.905    627.905
 58.370    849.000    839.434      9.566    627.998    822.971    644.485    627.998    627.998
 58.470    839.345    823.325     16.020    628.089    803.826    647.597    628.089    628.089
 58.570    802.850    830.608    -27.758    628.180    805.373    653.410    628.180    628.180
 58.670    895.000    858.693     36.307    628.269    824.710    662.235    628.269    628.269
 58.770    888.000    906.386    -18.386    628.358    860.618    674.097    628.358    628.358
 58.870    965.000    971.990     -6.990    628.446    911.946    688.452    628.446    628.446
 58.970   1106.979   1051.624     55.355    628.533    976.141    703.973    628.533    628.533
 59.070   1130.061   1138.177     -8.115    628.619   1048.217    718.536    628.619    628.619
 59.170   1193.134   1221.785    -28.650    628.703   1120.851    729.604    628.703    628.703
 59.270   1209.000   1292.622    -83.622    628.787   1186.218    735.174    628.787    628.787
 59.370   1247.000   1344.011    -97.011    628.870   1238.168    734.714    628.870    628.870
 59.470   1367.000   1372.333     -5.333    628.952   1272.223    729.082    628.952    628.952
 59.570   1385.287   1375.444      9.843    629.033   1284.841    719.672    629.033    629.033
 59.670   1370.000   1354.443     15.557    629.112   1275.685    707.916    629.112    629.112
 59.770   1353.000   1317.108     35.892    629.191   1251.049    695.293    629.191    629.191
 59.870   1298.000   1276.799     21.201    629.269   1222.886    683.206    629.269    629.269
 59.970   1305.000   1247.115     57.885    629.345   1203.805    672.651    629.345    629.345
 60.070   1174.337   1237.651    -63.313    629.421   1202.979    664.049    629.421    629.421
 60.170   1314.000   1253.217     60.783    629.495   1225.256    657.369    629.495    629.495
 60.270   1315.000   1295.195     19.805    629.569   1272.272    652.356    629.569    629.569
 60.370   1397.000   1361.798     35.202    629.641   1342.537    648.719    629.641    629.641
 60.470   1470.000   1445.692     24.308    629.712   1428.990    646.189    629.712    629.712
 60.570   1484.000   1531.607    -47.607    629.782   1516.608    644.528    629.782    629.782
 60.670   1644.000   1597.019     46.981    629.851   1583.075    643.534    629.851    629.851
 60.770   1600.000   1618.069    -18.069    629.919   1604.689    643.057    629.919    629.919
 60.870   1636.612   1580.902     55.710    629.986   1567.695    642.990    629.986    629.986
 60.970   1586.000   1490.142     95.858    630.052   1476.775    643.266    630.052    630.052
 61.070   1404.085   1365.115     38.970    630.116   1351.271    643.855    630.116    630.116
 61.170   1220.432   1228.949     -8.517    630.180   1214.298    644.763    630.180    630.180
 61.270   1084.000   1100.803    -16.803    630.242   1084.947    646.056    630.242    630.242
 61.370    986.761    993.256     -6.495    630.303    975.640    647.894    630.303    630.303
 61.470    894.200    912.587    -18.387    630.363    892.339    650.592    630.363    630.363
 61.570    882.004    860.427     21.578    630.421    836.114    654.714    630.421    630.421
 61.670    833.000    836.092     -3.092    630.479    805.366    661.177    630.479    630.479
 61.770    809.792    838.860    -29.067    630.535    798.030    671.326    630.535    630.535
 61.870    834.000    869.442    -35.442    630.591    813.056    686.920    630.591    630.591
 61.970    971.000    930.176     40.824    630.644    850.809    709.929    630.644    630.644
 62.070   1021.000   1023.835     -2.835    630.697    912.323    742.096    630.697    630.697
 62.170   1181.900   1151.354     30.546    630.749    997.696    784.259    630.749    630.749
 62.270   1306.000   1309.091     -3.091    630.799   1104.130    835.577    630.799    630.799
 62.370   1476.000   1486.365    -10.365    630.848   1224.165    892.834    630.848    630.848
 62.470   1700.000   1663.939     36.061    630.896   1344.579    950.024    630.896    630.896
 62.570   1806.000   1814.480     -8.480    630.943   1446.663    998.529    630.943    630.943
 62.670   1824.685   1906.998    -82.313    630.988   1509.228   1028.553    630.988    630.988
 62.770   1891.000   1917.983    -26.983    631.032   1516.198   1032.657    631.032    631.032
 62.870   1769.000   1844.086    -75.086    631.075   1465.261   1009.789    631.075    631.075
 62.970   1704.000   1704.338     -0.338    631.117   1369.394    965.994    631.117    631.117
 63.070   1462.031   1529.140    -67.109    631.157   1249.344    910.920    631.157    631.157
 63.170   1321.000   1347.519    -26.519    631.196   1124.922    853.782    631.196    631.196
 63.270   1176.000   1180.801     -4.801    631.234   1010.684    801.352    631.234    631.234
 63.370    971.000   1041.389    -70.389    631.270    915.095    757.571    631.270    631.270
 63.470    850.000    933.767    -83.767    631.305    841.210    723.867    631.305    631.305
 63.570    805.292    856.513    -51.222    631.339    788.058    699.797    631.339    631.339
 63.670    761.177    804.773    -43.596    631.372    752.321    683.823    631.372    631.372
 63.770    790.752    772.562     18.190    631.403    729.912    674.049    631.403    631.403
 63.870    763.000    754.457      8.543    631.433    717.130    668.754    631.433    631.433
 63.970    773.000    746.535     26.465    631.462    711.288    666.699    631.462    631.462
 64.070    775.129    746.706     28.423    631.489    710.926    667.257    631.489    631.489
 64.170    730.286    754.693    -24.407    631.515    715.755    670.437    631.515    631.515
 64.270    735.767    771.836    -36.069    631.540    726.457    676.896    631.540    631.540
 64.370    823.000    800.777     22.223    631.563    744.396    687.911    631.563    631.563
 64.470    829.000    844.964    -15.964    631.585    771.205    705.299    631.585    631.585
 64.570    881.000    907.884    -26.884    631.606    808.241    731.185    631.606    631.606
 64.670    984.199    991.956     -7.758    631.625    855.934    767.564    631.625    631.625
 64.770   1091.303   1097.194     -5.891    631.643    913.088    815.643    631.643    631.643
 64.870   1207.567   1219.801    -12.234    631.659    976.272    875.061    631.659    631.659
 64.970   1347.141   1351.013     -3.873    631.675   1039.404    943.141    631.675    631.675
 65.070   1565.000   1476.758     88.242    631.688   1093.947   1014.350    631.688    631.688
 65.170   1598.000   1579.148     18.852    631.701   1130.547   1080.159    631.701    631.701
 65.270   1662.000   1640.545     21.455    631.712   1142.364   1129.772    631.712    631.712
 65.370   1605.331   1649.148    -43.817    631.721   1128.074   1152.708    631.721    631.721
 65.470   1611.000   1603.688      7.312    631.730   1092.095   1143.275    631.730    631.730
 65.570   1485.000   1514.431    -29.431    631.736   1042.358   1103.799    631.736    631.736
 65.670   1486.000   1398.907     87.093    631.742    987.444   1043.225    631.742    631.742
 65.770   1337.612   1275.232     62.380    631.746    934.357    972.661    631.746    631.746
 65.870   1128.000   1157.451    -29.451    631.748    887.440    901.812    631.748    631.748
 65.970   1022.000   1054.049    -32.049    631.750    848.317    837.538    631.750    631.750
 66.070    894.000    968.479    -74.479    631.749    816.575    783.707    631.749    631.749
 66.170    894.000    900.678     -6.678    631.748    790.878    741.596    631.748    631.748
 66.270    821.000    848.727    -27.727    631.744    769.946    710.567    631.744    631.744
 66.370    778.000    810.009    -32.009    631.740    752.935    688.847    631.740    631.740
 66.470    809.000    781.807     27.193    631.734    739.318    674.248    631.734    631.734
 66.570    698.000    761.669    -63.669    631.727    728.727    664.687    631.727    631.727
 66.670    677.000    747.611    -70.611    631.718    720.874    658.468    631.718    631.718
 66.770    711.000    738.186    -27.186    631.707    715.544    654.359    631.707    631.707
 66.870    722.000    732.420    -10.420    631.696    712.578    651.544    631.696    631.696
 66.970    676.101    729.721    -53.621    631.682    711.884    649.525    631.682    631.682
 67.070    691.000    729.826    -38.826    631.668    713.482    648.017    631.668    631.668
 67.170    713.000    732.827    -19.827    631.651    717.611    646.872    631.651    631.651
 67.270    774.510    739.294     35.216    631.634    724.911    646.022    631.634    631.634
 67.370    744.000    750.490     -6.490    631.615    736.649    645.460    631.615    631.615
 67.470    815.178    768.636     46.541    631.594    755.008    645.226    631.594    631.594
 67.570    786.013    797.196    -11.183    631.572    783.364    645.407    631.572    631.572
 67.670    799.291    841.039    -41.748    631.549    826.450    646.139    631.549    631.549
 67.770    911.101    906.319      4.782    631.524    890.242    647.600    631.524    631.524
 67.870   1040.840    999.876     40.964    631.497    981.380    649.992    631.497    631.497
 67.970   1130.030   1128.014      2.015    631.469   1105.983    653.503    631.469    631.469
 68.070   1248.000   1294.690    -46.690    631.440   1267.894    658.246    631.440    631.440
 68.170   1574.170   1499.352     74.819    631.409   1466.588    664.201    631.409    631.409
 68.270   1683.000   1734.846    -51.846    631.376   1695.138    671.141    631.376    631.376
 68.370   1923.000   1985.786    -62.786    631.342   1938.640    678.586    631.342    631.342
 68.470   2149.534   2227.786    -78.252    631.307   2173.466    685.780    631.307    631.307
 68.570   2387.556   2428.518    -40.961    631.270   2368.290    691.717    631.270    631.270
 68.670   2582.000   2552.989     29.011    631.231   2489.189    695.320    631.231    631.231
 68.770   2611.266   2574.792     36.474    631.191   2510.559    695.771    631.191    631.191
 68.870   2496.831   2488.707      8.124    631.150   2427.334    692.904    631.150    631.150
 68.970   2355.000   2313.752     41.248    631.107   2257.939    687.305    631.107    631.107
 69.070   2203.000   2083.304    119.696    631.062   2034.726    680.002    631.062    631.062
 69.170   1824.053   1831.899     -7.846    631.016   1791.171    672.063    631.016    631.016
 69.270   1647.000   1587.422     59.578    630.968   1554.311    664.348    630.968    630.968
 69.370   1442.920   1368.794     74.126    630.919   1342.488    657.440    630.919    630.919
 69.470   1193.776   1186.255      7.520    630.868   1165.633    651.655    630.868    630.868
 69.570   1064.000   1042.717     21.283    630.816   1026.571    647.084    630.816    630.816
 69.670    964.000    935.712     28.288    630.762    922.914    643.648    630.762    630.762
 69.770    931.000    859.584     71.416    630.707    849.180    641.173    630.707    630.707
 69.870    874.000    807.474     66.526    630.650    798.721    639.446    630.650    630.650
 69.970    812.000    772.792     39.208    630.592    765.150    638.263    630.592    630.592
 70.070    800.047    750.047     50.000    630.532    743.145    637.455    630.532    630.532
 70.170    758.000    735.126     22.874    630.471    728.718    636.895    630.471    630.471
 70.270    757.000    725.204     31.796    630.408    719.130    636.494    630.408    630.408
 70.370    721.426    718.476      2.950    630.343    712.631    636.197    630.343    630.343
 70.470    747.000    713.860     33.140    630.277    708.173    635.971    630.277    630.277
 70.570    683.571    710.743    -27.172    630.209    705.161    635.797    630.209    630.209
 70.670    725.000    708.805     16.195    630.140    703.284    635.665    630.140    630.140
 70.770    662.501    707.907    -45.406    630.070    702.407    635.572    630.070    630.070
 70.870    756.000    708.046     47.954    629.997    702.525    635.519    629.997    629.997
 70.970    698.051    709.349    -11.298    629.924    703.760    635.512    629.924    629.924
 71.070    707.000    712.118     -5.118    629.848    706.400    635.564    629.848    629.848
 71.170    748.000    716.908     31.092    629.771    710.977    635.698    629.771    629.771
 71.270    756.123    724.654     31.469    629.693    718.387    635.951    629.693    629.693
 71.370    752.000    736.814     15.186    629.613    730.029    636.385    629.613    629.613
 71.470    751.943    755.521     -3.578    629.531    747.948    637.085    629.531    629.531
 71.570    789.287    783.674      5.613    629.448    774.924    638.170    629.448    629.448
 71.670    879.506    824.885     54.621    629.363    814.420    639.788    629.363    629.363
 71.770    889.000    883.199      5.801    629.277    870.317    642.102    629.277    629.277
 71.870    956.000    962.523     -6.523    629.189    946.361    645.273    629.189    629.189
 71.970   1106.000   1065.743     40.257    629.100   1045.322    649.418    629.100    629.100
 72.070   1197.000   1193.643      3.357    629.009   1167.952    654.571    629.009    629.009
 72.170   1278.109   1343.782    -65.673    628.916   1311.907    660.634    628.916    628.916
 72.270   1466.000   1509.528    -43.528    628.822   1470.826    667.342    628.822    628.822
 72.370   1660.000   1679.412    -19.412    628.727   1633.708    674.231    628.727    628.727
 72.470   1753.000   1837.022    -84.022    628.629   1784.804    680.638    628.629    628.629
 72.570   1937.000   1962.134    -25.134    628.531   1904.714    685.749    628.531    628.531
 72.670   2066.000   2034.413     31.587    628.430   1973.923    688.740    628.430    628.430
 72.770   2052.000   2039.982     12.018    628.328   1979.110    689.053    628.328    628.328
 72.870   1962.000   1977.621    -15.621    628.225   1919.097    686.641    628.225    628.225
 72.970   1844.259   1859.408    -15.149    628.120   1805.463    681.992    628.120    628.120
 73.070   1696.000   1705.153     -9.153    628.013   1657.214    675.908    628.013    628.013
 73.170   1536.000   1535.466      0.534    627.905   1494.134    669.216    627.905    627.905
 73.270   1292.690   1367.509    -74.820    627.796   1332.702    662.597    627.796    627.796
 73.370   1243.670   1213.537     30.134    627.684   1184.697    656.526    627.684    627.684
 73.470   1135.000   1080.890     54.110    627.572   1057.190    651.277    627.572    627.572
 73.570    947.000    972.593    -25.593    627.457    953.105    646.952    627.457    627.457
 73.670    898.000    888.299      9.701    627.341    872.117    643.529    627.341    627.341
 73.770    830.000    825.406      4.594    627.224    811.717    640.916    627.224    627.224
 73.870    792.000    780.162     11.838    627.105    768.277    638.992    627.105    627.105
 73.970    744.671    748.571     -3.900    626.984    737.924    637.632    626.984    626.984
 74.070    685.086    727.010    -41.924    626.862    717.139    636.734    626.862    626.862
 74.170    691.880    712.548    -20.668    626.738    703.065    636.222    626.738    626.738
 74.270    754.000    703.024     50.976    626.613    693.589    636.050    626.613    626.613
 74.370    705.241    696.971      8.271    626.486    687.262    636.199    626.486    626.486
 74.470    643.834    693.455    -49.622    626.358    683.153    636.667    626.358    626.358
 74.570    725.000    691.907     33.093    626.228    680.687    637.458    626.228    626.228
 74.670    705.000    691.961     13.039    626.097    679.505    638.566    626.097    626.097
 74.770    681.795    693.335    -11.540    625.964    679.349    639.968    625.964    625.964
 74.870    692.229    695.741     -3.512    625.829    679.984    641.610    625.829    625.829
 74.970    699.000    698.830      0.170    625.693    681.151    643.402    625.693    625.693
 75.070    700.000    702.154     -2.154    625.555    682.531    645.213    625.555    625.555
 75.170    735.000    705.169     29.831    625.416    683.748    646.878    625.416    625.416
 75.270    739.927    707.285     32.642    625.276    684.393    648.213    625.276    625.276
 75.370    773.000    708.010     64.990    625.133    684.120    649.070    625.133    625.133
 75.470    741.920    707.145     34.775    624.990    682.777    649.404    624.990    624.990
 75.570    720.000    704.915     15.085    624.844    680.480    649.323    624.844    624.844
 75.670    755.854    701.920     53.934    624.697    677.585    649.072    624.697    624.697
 75.770    734.000    698.977     35.023    624.549    674.566    648.994    624.549    624.549
 75.870    740.000    697.004     42.996    624.399    671.938    649.491    624.399    624.399
 75.970    763.000    696.958     66.042    624.248    670.207    651.018    624.248    624.248
 76.070    693.000    699.843     -6.843    624.095    669.864    654.084    624.095    624.095
 76.170    749.000    706.703     42.297    623.940    671.392    659.254    623.940    623.940
 76.270    767.000    718.594     48.406    623.784    675.250    667.123    623.784    623.784
 76.370    709.000    736.487    -27.487    623.627    681.844    678.255    623.627    623.627
 76.470    763.000    761.134      1.866    623.468    691.474    693.103    623.468    623.468
 76.570    770.000    792.866    -22.866    623.308    704.253    711.886    623.308    623.308
 76.670    803.000    831.383    -28.383    623.146    720.026    734.458    623.146    623.146
 76.770    847.000    875.541    -28.541    622.982    738.281    760.188    622.982    622.982
 76.870    922.000    923.186     -1.186    622.817    758.080    787.861    622.817    622.817
 76.970    978.000    971.057      6.943    622.651    778.022    815.617    622.651    622.651
 77.070    978.000   1014.811    -36.811    622.483    796.249    840.973    622.483    622.483
 77.170   1067.958   1049.339     18.620    622.313    810.580    861.000    622.313    622.313
 77.270   1128.401   1069.630     58.771    622.142    818.882    872.825    622.142    622.142
 77.370   1024.000   1072.219    -48.219    621.970    819.675    874.456    621.970    621.970
 77.470   1069.116   1056.549     12.567    621.796    812.721    865.577    621.796    621.796
 77.570   1075.251   1025.232     50.019    621.620    799.126    847.690    621.620    621.620
 77.670    995.000    982.946     12.054    621.443    780.877    823.485    621.443    621.443
 77.770    872.000    934.881    -62.881    621.265    760.179    795.949    621.265    621.265
 77.870    842.000    885.650    -43.650    621.085    738.989    767.734    621.085    621.085
 77.970    823.981    838.814    -14.833    620.904    718.822    740.889    620.904    620.904
 78.070    793.000    796.795     -3.795    620.721    700.705    716.807    620.721    620.721
 78.170    796.092    760.948     35.144    620.537    685.214    696.269    620.537    620.537
 78.270    725.000    731.711     -6.711    620.351    672.533    679.528    620.351    620.351
 78.370    664.539    708.819    -44.280    620.164    662.551    666.432    620.164    620.164
 78.470    678.228    691.545    -13.317    619.976    654.956    656.564    619.976    619.976
 78.570    647.993    678.925    -30.932    619.786    649.339    649.372    619.786    619.786
 78.670    674.000    669.953      4.047    619.594    645.270    644.277    619.594    619.594
 78.770    700.000    663.707     36.293    619.401    642.358    640.750    619.401    619.401
 78.870    616.000    659.423    -43.423    619.207    640.276    638.353    619.207    619.207
 78.970    635.753    656.511    -20.758    619.011    638.772    636.749    619.011    619.011
 79.070    665.000    654.553     10.447    618.814    637.669    635.697    618.814    618.814
 79.170    630.000    653.265    -23.265    618.616    636.844    635.036    618.616    618.616
 79.270    651.000    652.472     -1.472    618.416    636.221    634.665    618.416    618.416
 79.370    668.927    652.076     16.851    618.214    635.759    634.530    618.214    618.214
 79.470    675.133    652.037     23.096    618.011    635.438    634.610    618.011    618.011
 79.570    632.629    652.361    -19.732    617.807    635.255    634.912    617.807    617.807
 79.670    600.000    653.094    -53.094    617.602    635.223    635.470    617.602    617.602
 79.770    654.338    654.326      0.013    617.395    635.365    636.354    617.395    617.395
 79.870    644.915    656.205    -11.290    617.186    635.713    637.676    617.186    617.186
 79.970    590.000    658.954    -68.954    616.977    636.311    639.617    616.977    616.977
 80.070    648.524    662.903    -14.379    616.766    637.218    642.447    616.766    616.766
 80.170    639.402    668.523    -29.121    616.553    638.504    646.567    616.553    616.553
 80.270    727.000    676.465     50.535    616.339    640.260    652.536    616.339    616.339
 80.370    654.000    687.595    -33.595    616.124    642.601    661.107    616.124    616.124
 80.470    739.000    703.007     35.993    615.908    645.667    673.234    615.908    615.908
 80.570    733.017    724.001      9.016    615.690    649.625    690.048    615.690    615.690
 80.670    743.000    751.999     -8.999    615.471    654.662    712.785    615.471    615.471
 80.770    827.541    788.405     39.136    615.250    660.979    742.649    615.250    615.250
 80.870    831.000    834.401     -3.401    615.028    668.775    780.623    615.028    615.028
 80.970    873.912    890.703    -16.791    614.805    678.238    827.235    614.805    614.805
 81.070    976.000    957.293     18.707    614.581    689.527    882.308    614.581    614.581
 81.170   1031.202   1033.148     -1.946    614.355    702.735    944.729    614.355    614.355
 81.270   1152.000   1115.985     36.015    614.128    717.823   1012.252    614.128    614.128
 81.370   1249.000   1202.106     46.894    613.899    734.555   1081.419    613.899    613.899
 81.470   1382.000   1286.433     95.567    613.670    752.450   1147.633    613.670    613.670
 81.570   1451.000   1362.860     88.140    613.439    770.787   1205.507    613.439    613.439
 81.670   1572.000   1425.052    146.948    613.206    788.672   1249.600    613.206    613.206
 81.770   1580.000   1467.603    112.397    612.973    805.160   1275.449    612.973    612.973
 81.870   1618.000   1487.093    130.907    612.738    819.369   1280.517    612.738    612.738
 81.970   1524.859   1482.646     42.213    612.502    830.617   1264.605    612.502    612.502
 82.070   1577.000   1455.751    121.249    612.265    838.459   1229.649    612.265    612.265
 82.170   1339.051   1409.735    -70.685    612.026    842.634   1179.233    612.026    612.026
 82.270   1312.137   1349.313    -37.176    611.786    843.123   1118.091    611.786    611.786
 82.370   1231.256   1279.762    -48.506    611.545    840.032   1051.397    611.545    611.545
 82.470   1230.804   1206.073     24.731    611.303    833.494    984.005    611.303    611.303
 82.570   1195.000   1132.412     62.588    611.060    823.720    919.873    611.060    611.060
 82.670   1116.490   1061.986     54.504    610.815    811.119    861.798    610.815    610.815
 82.770   1033.802    997.083     36.720    610.569    796.358    811.401    610.569    610.569
 82.870    974.861    939.095     35.766    610.322    780.245    769.270    610.322    610.322
 82.970    843.334    888.561    -45.226    610.074    763.540    735.182    610.074    610.074
 83.070    798.000    845.318    -47.318    609.824    746.855    708.365    609.824    609.824
 83.170    739.000    808.782    -69.782    609.574    730.667    687.757    609.574    609.574
 83.270    788.000    778.231      9.769    609.322    715.386    672.224    609.322    609.322
 83.370    756.622    752.990      3.631    609.069    701.391    660.716    609.069    609.069
 83.470    784.894    732.508     52.386    608.815    689.016    652.345    608.815    608.815
 83.570    666.988    716.345    -49.357    608.559    678.519    646.414    608.559    608.559
 83.670    658.506    704.144    -45.638    608.303    670.061    642.406    608.303    608.303
 83.770    651.000    695.604    -44.604    608.046    663.709    639.951    608.046    608.046
 83.870    651.699    690.441    -38.741    607.787    659.437    638.792    607.787    607.787
 83.970    687.725    688.350     -0.626    607.527    657.133    638.737    607.527    607.527
 84.070    623.000    688.977    -65.977    607.266    656.611    639.616    607.266    607.266
 84.170    670.000    691.873    -21.873    607.004    657.597    641.256    607.004    607.004
 84.270    656.000    696.486    -40.486    606.741    659.744    643.451    606.741    606.741
 84.370    739.018    702.154     36.864    606.477    662.638    645.955    606.477    606.477
 84.470    705.000    708.113     -3.113    606.212    665.807    648.474    606.212    606.212
 84.570    722.000    713.524      8.476    605.946    668.739    650.682    605.946    605.946
 84.670    770.116    717.539     52.577    605.678    670.924    652.242    605.678    605.678
 84.770    702.000    719.414    -17.414    605.410    671.916    652.856    605.410    605.410
 84.870    675.000    718.662    -43.662    605.140    671.421    652.332    605.140    605.140
 84.970    666.589    715.177    -48.588    604.870    669.367    650.634    604.870    604.870
 85.070    694.000    709.246    -15.246    604.599    665.908    647.895    604.599    604.599
 85.170    648.000    701.445    -53.445    604.326    661.364    644.370    604.326    604.326
 85.270    676.000    692.480    -16.480    604.053    656.130    640.370    604.053    604.053
 85.370    649.000    683.052    -34.052    603.778    650.595    636.208    603.778    603.778
 85.470    712.617    673.785     38.832    603.503    645.100    632.166    603.503    603.503
 85.570    690.000    665.188     24.812    603.226    639.914    628.481    603.226    603.226
 85.670    692.691    657.642     35.050    602.949    635.230    625.345    602.949    602.949
 85.770    619.000    651.409    -32.409    602.671    631.163    622.903    602.671    602.671
 85.870    589.000    646.643    -57.643    602.391    627.764    621.257    602.391    602.391
 85.970    680.487    643.404     37.084    602.111    625.027    620.476    602.111    602.111
 86.070    672.000    641.686     30.314    601.830    622.910    620.594    601.830    601.830
 86.170    623.000    641.434    -18.434    601.548    621.348    621.621    601.548    601.548
 86.270    625.840    642.558    -16.719    601.265    620.274    623.534    601.265    601.265
 86.370    647.000    644.943      2.057    600.981    619.630    626.278    600.981    600.981
 86.470    668.000    648.453     19.547    600.696    619.374    629.756    600.696    600.696
 86.570    640.000    652.929    -12.929    600.411    619.494    633.824    600.411    600.411
 86.670    615.000    658.190    -43.190    600.124    620.006    638.282    600.124    600.124
 86.770    667.000    664.030      2.970    599.837    620.963    642.874    599.837    599.837
 86.870    691.000    670.219     20.781    599.548    622.446    647.287    599.548    599.548
 86.970    695.000    676.513     18.487    599.259    624.570    651.164    599.259    599.259
 87.070    668.266    682.674    -14.408    598.969    627.469    654.132    598.969    598.969
 87.170    674.000    688.517    -14.517    598.679    631.290    655.859    598.679    598.679
 87.270    712.000    693.961     18.039    598.387    636.174    656.122    598.387    598.387
 87.370    737.296    699.067     38.229    598.095    642.236    654.868    598.095    598.095
 87.470    729.000    704.027     24.973    597.802    649.539    652.224    597.802    597.802
 87.570    720.000    709.088     10.912    597.508    658.069    648.453    597.508    597.508
 87.670    679.729    714.457    -34.728    597.213    667.710    643.877    597.213    597.213
 87.770    738.000    720.216     17.784    596.918    678.219    638.822    596.918    596.918
 87.870    723.566    726.276     -2.711    596.622    689.218    633.576    596.622    596.622
 87.970    718.000    732.360    -14.360    596.325    700.185    628.387    596.325    596.325
 88.070    694.088    738.002    -43.914    596.027    710.461    623.448    596.027    596.027
 88.170    756.000    742.590     13.410    595.729    719.289    618.904    595.729    595.729
 88.270    791.000    745.446     45.554    595.430    725.901    614.845    595.430    595.430
 88.370    703.363    745.976    -42.613    595.131    729.666    611.311    595.131    595.131
 88.470    744.000    743.848      0.152    594.830    730.252    608.302    594.830    594.830
 88.570    776.000    739.105     36.895    594.529    727.734    605.786    594.529    594.529
 88.670    711.000    732.150    -21.150    594.228    722.563    603.712    594.228    594.228
 88.770    719.000    723.630     -4.630    593.925    715.444    602.022    593.925    593.925
 88.870    709.885    714.288     -4.403    593.622    707.180    600.656    593.622    593.622
 88.970    692.947    704.867    -11.920    593.319    698.567    599.559    593.319    593.319
 89.070    666.267    696.041    -29.774    593.015    690.328    598.683    593.015    593.015
 89.170    688.000    688.381     -0.381    592.710    683.074    597.986    592.710    592.710
 89.270    639.000    682.322    -43.322    592.405    677.272    597.435    592.405    592.405
 89.370    690.000    678.136     11.864    592.099    673.224    597.004    592.099    592.099
 89.470    701.000    675.923     25.077    591.792    671.051    596.668    591.792    591.792
 89.570    674.000    675.616     -1.616    591.485    670.706    596.409    591.485    591.485
 89.670    639.000    676.983    -37.983    591.178    671.979    596.205    591.178    591.178
 89.770    652.000    679.655    -27.655    590.870    674.518    596.038    590.870    590.870
 89.870    642.267    683.145    -40.878    590.561    677.858    595.887    590.561    590.561
 89.970    707.000    686.879     20.121    590.252    681.446    595.732    590.252    590.252
 90.070    709.747    690.235     19.512    589.943    684.683    595.549    589.943    589.943
 90.170    692.000    692.602     -0.602    589.633    686.976    595.318    589.633    589.633
 90.270    683.000    693.462    -10.462    589.323    687.827    595.020    589.323    589.323
 90.370    700.000    692.482      7.518    589.012    686.912    594.646    589.012    589.012
 90.470    674.000    689.583    -15.583    588.701    684.154    594.194    588.701    588.701
 90.570    717.000    684.933     32.067    588.389    679.713    593.672    588.389    588.389
 90.670    687.000    678.887      8.113    588.077    673.927    593.095    588.077    588.077
 90.770    684.446    671.889     12.556    587.764    667.226    592.482    587.764    587.764
 90.870    618.176    664.395    -46.219    587.452    660.046    591.850    587.452    587.452
 90.970    649.000    656.819     -7.819    587.138    652.783    591.216    587.138    587.138
 91.070    653.000    649.504      3.496    586.825    645.771    590.594    586.825    586.825
 91.170    594.000    642.717    -48.717    586.511    639.264    589.994    586.511    586.511
 91.270    661.124    636.644     24.480    586.197    633.441    589.424    586.197    586.197
 91.370    611.000    631.395    -20.395    585.882    628.408    588.888    585.882    585.882
 91.470    658.929    627.012     31.917    585.567    624.207    588.387    585.567    585.567
 91.570    662.148    623.486     38.662    585.252    620.828    587.922    585.252    585.252
 91.670    631.000    620.772     10.228    584.937    618.227    587.490    584.937    584.937
 91.770    573.078    618.802    -45.724    584.621    616.340    587.088    584.621    584.621
 91.870    600.000    617.507    -17.507    584.306    615.100    586.715    584.306    584.306
 91.970    578.384    616.825    -38.441    583.990    614.447    586.368    583.990    583.990
 92.070    657.551    616.716     40.835    583.673    614.344    586.045    583.673    583.673
 92.170    569.020    617.168    -48.148    583.357    614.777    585.746    583.357    583.357
 92.270    588.448    618.201    -29.753    583.040    615.767    585.471    583.040    583.040
 92.370    636.233    619.871     16.362    582.723    617.366    585.224    582.723    582.723
 92.470    636.000    622.267     13.733    582.407    619.660    585.006    582.407    582.407
 92.570    581.952    625.509    -43.557    582.090    622.765    584.824    582.090    582.090
 92.670    601.000    629.741    -28.741    581.772    626.819    584.682    581.772    581.772
 92.770    678.474    635.121     43.353    581.455    631.974    584.586    581.455    581.455
 92.870    639.000    641.804     -2.804    581.138    638.381    584.542    581.138    581.138
 92.970    686.000    649.931     36.069    580.820    646.175    584.553    580.820    580.820
 93.070    653.746    659.656     -5.910    580.503    655.508    584.623    580.503    580.503
 93.170    678.623    671.041      7.582    580.185    666.438    584.754    580.185    580.185
 93.270    731.410    684.102     47.308    579.868    678.985    584.944    579.868    579.868
 93.370    631.000    698.790    -67.790    579.550    693.101    585.192    579.550    579.550
 93.470    710.000    714.975     -4.975    579.232    708.662    585.491    579.232    579.232
 93.570    728.000    732.439     -4.439    578.915    725.456    585.838    578.915    578.915
 93.670    761.000    750.880     10.120    578.597    743.184    586.226    578.597    578.597
 93.770    774.582    769.914      4.669    578.280    761.467    586.654    578.280    578.280
 93.870    780.000    789.108     -9.108    577.962    779.868    587.124    577.962    577.962
 93.970    753.000    808.043    -55.043    577.645    797.958    587.649    577.645    577.645
 94.070    786.000    826.401    -40.401    577.328    815.392    588.253    577.328    577.328
 94.170    842.442    844.059     -1.617    577.011    832.001    588.983    577.011    577.011
 94.270    867.000    861.123      5.877    576.694    847.830    589.901    576.694    576.694
 94.370    887.625    877.892      9.733    576.377    863.096    591.086    576.377    576.377
 94.470    940.223    894.738     45.485    576.060    878.087    592.625    576.060    576.060
 94.570    914.000    911.977      2.023    575.744    893.036    594.599    575.744    575.744
 94.670    923.000    929.770     -6.770    575.427    908.038    597.075    575.427    575.427
 94.770    983.520    948.094     35.425    575.111    923.026    600.096    575.111    575.111
 94.870   1002.000    966.773     35.227    574.796    937.821    603.665    574.796    574.796
 94.970   1003.000    985.549     17.451    574.480    952.203    607.747    574.480    574.480
 95.070   1028.000   1004.131     23.869    574.165    965.965    612.254    574.165    574.165
 95.170   1039.000   1022.175     16.825    573.849    978.902    617.050    573.849    573.849
 95.270   1027.000   1039.209    -12.209    573.535    990.729    621.946    573.535    573.535
 95.370   1023.085   1054.540    -31.455    573.220   1000.991    626.706    573.220    573.220
 95.470   1045.000   1067.219    -22.219    572.906   1009.010    631.058    572.906    572.906
 95.570   1068.000   1076.081     -8.081    572.592   1013.916    634.708    572.592    572.592
 95.670   1061.504   1079.894    -18.389    572.279   1014.762    637.371    572.279    572.279
 95.770   1052.115   1077.579    -25.464    571.966   1010.711    638.803    571.966    571.966
 95.870   1073.000   1068.502      4.498    571.653   1001.280    638.856    571.653    571.653
 95.970   1075.000   1052.675     22.325    571.341    986.507    637.498    571.341    571.341
 96.070   1066.531   1030.812     35.719    571.029    967.010    634.830    571.029    571.029
 96.170   1002.585   1004.238     -1.653    570.718    943.906    631.055    570.718    570.718
 96.270   1034.314    974.667     59.646    570.407    918.638    626.445    570.407    570.407
 96.370    936.000    943.984     -7.984    570.097    892.796    621.297    570.097    570.097
 96.470    897.622    914.076    -16.454    569.787    867.980    615.896    569.787    569.787
 96.570    916.511    886.699     29.812    569.478    845.688    610.500    569.478    569.478
 96.670    957.000    863.596     93.404    569.169    827.445    605.328    569.169    569.169
 96.770    882.520    846.222     36.298    568.861    814.536    600.550    568.861    568.861
 96.870    848.000    835.841     12.159    568.553    808.108    596.284    568.553    568.553
 96.970    880.824    833.524     47.300    568.246    809.160    592.602    568.246    568.246
 97.070    865.000    840.128     24.872    567.940    818.518    589.534    567.940    567.940
 97.170    931.000    856.278     74.722    567.634    836.814    587.073    567.634    567.634
 97.270    873.942    882.350     -8.408    567.329    864.456    585.189    567.329    567.329
 97.370    953.000    918.446     34.554    567.024    901.593    583.834    567.024    567.024
 97.470   1030.000    964.350     65.650    566.720    948.065    582.953    566.720    566.720
 97.570   1095.000   1019.481     75.519    566.417   1003.355    582.482    566.417    566.417
 97.670   1130.000   1082.843     47.157    566.115   1066.530    582.358    566.115    566.115
 97.770   1109.000   1152.987    -43.987    565.814   1136.209    582.515    565.814    565.814
 97.870   1255.093   1227.963     27.130    565.513   1210.508    582.885    565.513    565.513
 97.970   1359.881   1305.287     54.595    565.213   1287.019    583.396    565.213    565.213
 98.070   1381.065   1381.963     -0.898    564.914   1362.822    583.970    564.914    564.914
 98.170   1443.000   1454.529    -11.529    564.615   1434.534    584.528    564.615    564.615
 98.270   1526.000   1519.181      6.819    564.318   1498.437    584.988    564.318    564.318
 98.370   1597.071   1572.039     25.032    564.021   1550.732    585.266    564.021    564.021
 98.470   1611.000   1609.574      1.426    563.725   1587.964    585.289    563.725    563.725
 98.570   1607.028   1629.153    -22.126    563.430   1607.551    585.005    563.430    563.430
 98.670   1617.000   1629.545    -12.545    563.136   1608.287    584.387    563.136    563.136
 98.770   1599.000   1611.171    -12.171    562.843   1590.585    583.442    562.843    562.843
 98.870   1625.802   1575.987     49.815    562.551   1556.361    582.207    562.551    562.551
 98.970   1536.000   1527.072      8.928    562.260   1508.637    580.742    562.260    562.260
 99.070   1448.925   1468.124    -19.199    561.970   1451.037    579.114    561.970    561.970
 99.170   1448.000   1403.016     44.984    561.681   1387.364    577.398    561.681    561.681
 99.270   1277.000   1335.495    -58.495    561.393   1321.295    575.661    561.393    561.393
 99.370   1205.939   1268.992    -63.053    561.107   1256.200    573.966    561.107    561.107
 99.470   1239.987   1206.523     33.464    560.821   1195.044    572.365    560.821    560.821
 99.570   1200.051   1150.650     49.401    560.536   1140.342    570.903    560.536    560.536
 99.670   1083.000   1103.475    -20.475    560.253   1094.164    569.614    560.253    560.253
 99.770   1069.090   1066.668      2.422    559.970   1058.158    568.523    559.970    559.970
 99.870    988.000   1041.504    -53.504    559.689   1033.581    567.644    559.689    559.689
 99.970   1051.000   1028.892     22.108    559.409   1021.339    566.986    559.409    559.409
100.070   1042.000   1029.409     12.591    559.130   1022.008    566.547    559.130    559.130
100.170   1075.458   1043.314     32.144    558.852   1035.855    566.320    558.852    558.852
100.270   1081.950   1070.564     11.387    558.576   1062.851    566.291    558.576    558.576
100.370   1161.767   1110.821     50.946    558.301   1102.679    566.441    558.301    558.301
100.470   1169.000   1163.456      5.544    558.027   1154.734    566.745    558.027    558.027
100.570   1233.000   1227.531      5.469    557.755   1218.106    567.176    557.755    557.755
100.670   1338.000   1301.769     36.231    557.484   1291.553    567.700    557.484    557.484
100.770   1408.000   1384.592     23.408    557.214   1373.532    568.281    557.214    557.214
100.870   1450.000   1474.003    -24.003    556.946   1462.085    568.880    556.946    556.946
100.970   1594.000   1567.616     26.384    556.679   1554.870    569.454    556.679    556.679
101.070   1741.417   1662.692     78.725    556.413   1649.191    569.961    556.413    556.413
101.170   1800.000   1756.240     43.760    556.149   1742.096    570.360    556.149    556.149
101.270   1868.007   1845.208     22.800    555.887   1830.569    570.614    555.887    555.887
101.370   1931.000   1926.750      4.250    555.626   1911.790    570.699    555.626    555.626
101.470   1956.000   1998.474    -42.474    555.366   1983.374    570.605    555.366    555.366
101.570   2049.000   2058.569     -9.569    555.108   2043.502    570.339    555.108    555.108
101.670   2142.780   2105.752     37.029    554.852   2090.869    569.922    554.852    554.852
101.770   2141.557   2139.087      2.471    554.597   2124.505    569.388    554.597    554.597
101.870   2142.000   2157.786    -15.786    554.344   2143.583    568.775    554.344    554.344
101.970   2093.000   2161.149    -68.149    554.092   2147.360    568.125    554.092    554.092
102.070   2051.000   2148.695    -97.695    553.842   2135.319    567.474    553.842    553.842
102.170   2109.741   2120.477    -10.736    553.594   2107.481    566.855    553.594    553.594
102.270   2025.000   2077.416    -52.416    553.347   2064.738    566.295    553.347    553.347
102.370   2003.000   2021.480    -18.480    553.103   2009.037    565.814    553.103    553.103
102.470   1920.000   1955.582    -35.582    552.860   1943.281    565.425    552.860    552.860
102.570   1940.996   1883.227     57.770    552.618   1870.969    565.132    552.618    552.618
102.670   1826.906   1808.046     18.860    552.379   1795.739    564.930    552.379    552.379
102.770   1672.000   1733.377    -61.377    552.141   1720.942    564.808    552.141    552.141
102.870   1610.000   1661.980    -51.980    551.905   1649.356    564.746    551.905    551.905
102.970   1543.926   1595.886    -51.960    551.671   1583.041    564.719    551.671    551.671
103.070   1489.000   1536.363    -47.363    551.439   1523.289    564.701    551.439    551.439
103.170   1434.000   1483.939    -49.939    551.209   1470.655    564.667    551.209    551.209
103.270   1377.000   1438.433    -61.433    550.981   1424.983    564.594    550.981    550.981
103.370   1397.000   1399.050     -2.050    550.754   1385.498    564.460    550.754    550.754
103.470   1373.000   1364.483      8.517    550.530   1350.911    564.247    550.530    550.530
103.570   1406.226   1333.068     73.158    550.308   1319.576    563.938    550.308    550.308
103.670   1307.000   1302.991      4.009    550.088   1289.694    563.519    550.088    550.088
103.770   1236.000   1272.535    -36.535    549.869   1259.556    562.980    549.869    549.869
103.870   1210.000   1240.328    -30.328    549.653   1227.791    562.319    549.653    549.653
103.970   1148.000   1205.513    -57.513    549.439   1193.537    561.540    549.439    549.439
104.070   1167.000   1167.813     -0.813    549.227   1156.502    560.661    549.227    549.227
104.170   1110.000   1127.469    -17.469    549.018   1116.905    559.700    549.018    549.018
104.270   1138.320   1085.092     53.229    548.810   1075.330    558.684    548.810    548.810
104.370   1013.559   1041.504    -27.944    548.605   1032.576    557.639    548.605    548.605
104.470    940.000    997.605    -57.605    548.402    989.517    556.589    548.402    548.402
104.570    930.000    954.276    -24.276    548.201    947.013    555.555    548.201    548.201
104.670    984.000    912.311     71.689    548.003    905.844    554.552    548.003    548.003
104.770    932.000    872.412     59.588    547.806    866.699    553.595    547.806    547.806
104.870    889.000    835.177     53.823    547.612    830.152    552.704    547.612    547.612
104.970    829.000    801.009     27.991    547.421    796.608    551.880    547.421    547.421
105.070    752.586    770.181    -17.596    547.232    766.337    551.127    547.232    547.232
105.170    777.738    742.829     34.909    547.045    739.474    550.444    547.045    547.045
105.270    732.000    718.959     13.041    546.861    716.025    549.831    546.861    546.861
105.370    698.000    698.467     -0.467    546.679    695.893    549.284    546.679    546.679
105.470    703.771    681.166     22.606    546.500    678.892    548.799    546.500    546.500
105.570    694.178    666.806     27.373    546.323    664.780    548.370    546.323    546.323
105.670    660.000    655.105      4.895    546.149    653.280    547.990    546.149    546.149
105.770    625.652    645.770    -20.118    545.977    644.104    547.655    545.977    545.977
105.870    676.000    638.514     37.486    545.808    636.973    547.359    545.808    545.808
105.970    620.000    633.075    -13.075    545.641    631.627    547.095    545.641    545.641
106.070    620.517    629.223     -8.706    545.477    627.844    546.861    545.477    545.477
106.170    668.000    626.771     41.229    545.316    625.436    546.653    545.316    545.316
106.270    642.012    625.570     16.442    545.158    624.260    546.467    545.158    545.158
106.370    624.000    625.513     -1.513    545.002    624.211    546.301    545.002    545.002
106.470    645.357    626.530     18.827    544.849    625.220    546.155    544.849    544.849
106.570    677.000    628.583     48.417    544.699    627.249    546.026    544.699    544.699
106.670    593.289    631.657    -38.368    544.552    630.285    545.914    544.552    544.552
106.770    665.736    635.756     29.981    544.407    634.330    545.820    544.407    544.407
106.870    688.000    640.891     47.109    544.265    639.399    545.743    544.265    544.265
106.970    660.281    647.077     13.204    544.126    645.503    545.682    544.126    544.126
107.070    640.675    654.322    -13.647    543.991    652.652    545.639    543.991    543.991
107.170    660.000    662.616     -2.616    543.858    660.836    545.613    543.858    543.858
107.270    663.000    671.928     -8.928    543.728    670.025    545.603    543.728    543.728
107.370    703.000    682.190     20.810    543.601    680.151    545.609    543.601    543.601
107.470    718.000    693.298     24.702    543.477    691.112    545.628    543.477    543.477
107.570    686.574    705.099    -18.525    543.356    702.759    545.659    543.356    543.356
107.670    676.115    717.395    -41.280    543.238    714.895    545.698    543.238    543.238
107.770    753.000    729.941     23.059    543.124    727.279    545.743    543.124    543.124
107.870    762.785    742.447     20.338    543.012    739.627    545.788    543.012    543.012
107.970    729.000    754.589    -25.589    542.904    751.617    545.829    542.904    542.904
108.070    776.000    766.013      9.987    542.798    762.903    545.860    542.798    542.798
108.170    750.000    776.362    -26.362    542.697    773.134    545.877    542.697    542.697
108.270    707.000    785.301    -78.301    542.598    781.979    545.873    542.598    542.598
108.370    813.000    792.555     20.445    542.502    789.167    545.845    542.502    542.502
108.470    792.377    797.950     -5.572    542.410    794.528    545.789    542.410    542.410
108.570    800.000    801.448     -1.448    542.322    798.025    545.705    542.322    542.322
108.670    796.405    803.160     -6.755    542.236    799.769    545.592    542.236    542.236
108.770    768.000    803.338    -35.338    542.154    800.007    545.454    542.154    542.154
108.870    792.000    802.337    -10.337    542.076    799.090    545.296    542.076    542.076
108.970    815.275    800.567     14.709    542.001    797.423    545.122    542.001    542.001
109.070    815.000    798.448     16.552    541.929    795.420    544.939    541.929    541.929
109.170    751.000    796.366    -45.366    541.861    793.462    544.752    541.861    541.861
109.270    783.180    794.648    -11.468    541.797    791.869    544.567    541.797    541.797
109.370    763.000    793.536    -30.536    541.736    790.880    544.387    541.736    541.736
109.470    749.000    793.178    -44.178    541.678    790.640    544.217    541.678    541.678
109.570    758.000    793.626    -35.626    541.625    791.197    544.058    541.625    541.625
109.670    826.303    794.824     31.479    541.575    792.495    543.911    541.575    541.575
109.770    777.000    796.608    -19.608    541.528    794.381    543.768    541.528    541.528
109.870    758.527    798.756    -40.229    541.486    796.612    543.645    541.486    541.486
109.970    822.000    800.938     21.062    541.447    798.864    543.539    541.447    541.447
110.070    761.972    802.762    -40.790    541.412    800.751    543.445    541.412    541.412
110.170    831.000    803.814     27.186    541.380    801.861    543.359    541.380    541.380
110.270    826.000    803.693     22.307    541.353    801.795    543.278    541.353    541.353
110.370    763.000    802.051    -39.051    541.330    800.208    543.202    541.330    541.330
110.470    810.000    798.668     11.332    541.310    796.882    543.128    541.310    541.310
110.570    821.586    793.446     28.141    541.294    791.719    543.054    541.294    541.294
110.670    754.539    786.428    -31.889    541.283    784.763    542.981    541.283    541.283
110.770    775.000    777.789     -2.789    541.275    776.190    542.908    541.275    541.275
110.870    810.088    767.800     42.287    541.271    766.268    542.836    541.271    541.271
110.970    763.000    756.786      6.214    541.272    755.323    542.767    541.272    541.272
111.070    723.000    745.093    -22.093    541.276    743.698    542.701    541.276    541.276
111.170    721.000    733.060    -12.060    541.285    731.732    542.640    541.285    541.285
111.270    758.000    721.002     36.998    541.297    719.740    542.586    541.297    541.297
111.370    681.000    709.203    -28.203    541.314    708.002    542.539    541.314    541.314
111.470    708.000    697.904     10.096    541.336    696.760    542.500    541.336    541.336
111.570    745.000    687.305     57.695    541.361    686.213    542.471    541.361    541.361
111.670    726.000    677.562     48.438    541.391    676.517    542.451    541.391    541.391
111.770    673.000    668.788      4.212    541.425    667.784    542.443    541.425    541.425
111.870    634.199    661.055    -26.856    541.463    660.084    542.445    541.463    541.463
111.970    701.000    654.395     46.605    541.506    653.451    542.458    541.506    541.506
112.070    670.000    648.807     21.193    541.553    647.885    542.481    541.553    541.553
112.170    682.057    644.262     37.795    541.605    643.355    542.515    541.605    541.605
112.270    678.000    640.709     37.291    541.661    639.812    542.560    541.661    541.661
112.370    621.000    638.077    -17.077    541.722    637.185    542.614    541.722    541.722
112.470    708.000    636.288     71.712    541.787    635.397    542.676    541.787    541.787
112.570    681.869    635.255     46.614    541.857    634.361    542.748    541.857    541.857
112.670    658.000    634.891     23.109    541.931    633.991    542.827    541.931    541.931
112.770    641.000    635.113      5.887    542.010    634.204    542.913    542.010    542.010
112.870    631.000    635.841     -4.841    542.094    634.922    543.006    542.094    542.094
112.970    668.000    637.006     30.994    542.182    636.077    543.104    542.182    542.182
113.070    627.000    638.549    -11.549    542.275    637.608    543.208    542.275    542.275
113.170    604.000    640.422    -36.422    542.373    639.470    543.317    542.373    542.373
113.270    654.000    642.592     11.408    542.476    641.628    543.431    542.476    542.476
113.370    617.000    645.042    -28.042    542.583    644.067    543.549    542.583    542.583
113.470    628.000    647.770    -19.770    542.696    646.783    543.673    542.696    542.696
113.570    668.000    650.790     17.210    542.813    649.791    543.802    542.813    542.813
113.670    659.489    654.134      5.355    542.935    653.121    543.937    542.935    542.935
113.770    659.552    657.849      1.703    543.063    656.822    544.079    543.063    543.063
113.870    677.000    662.007     14.993    543.195    660.961    544.229    543.195    543.195
113.970    682.000    666.699     15.301    543.332    665.632    544.388    543.332    543.332
114.070    689.166    672.049     17.116    543.475    670.954    544.557    543.475    543.475
114.170    725.194    678.212     46.982    543.622    677.082    544.738    543.622    543.622
114.270    641.000    685.389    -44.389    543.775    684.216    544.933    543.775    543.775
114.370    674.000    693.832    -19.832    543.933    692.605    545.143    543.933    543.933
114.470    669.041    703.860    -34.820    544.096    702.567    545.370    544.096    544.096
114.570    687.000    715.872    -28.872    544.264    714.497    545.618    544.264    544.264
114.670    687.000    730.360    -43.360    544.438    728.885    545.887    544.438    544.438
114.770    741.000    747.928     -6.928    544.616    746.332    546.182    544.616    544.616
114.870    824.502    769.307     55.195    544.801    767.566    546.506    544.801    544.801
114.970    789.862    795.372     -5.510    544.990    793.459    546.861    544.990    544.990
115.070    800.000    827.158    -27.158    545.186    825.041    547.251    545.186    545.186
115.170    815.000    865.869    -50.869    545.386    863.512    547.681    545.386    545.386
115.270    889.000    912.885    -23.885    545.592    910.249    548.153    545.592    545.592
115.370    933.000    969.762    -36.762    545.804    966.804    548.671    545.804    545.804
115.470    982.000   1038.221    -56.221    546.021   1034.894    549.239    546.021    546.021
115.570   1071.000   1120.129    -49.129    546.244   1116.382    549.861    546.244    546.244
115.670   1319.000   1217.462    101.538    546.472   1213.239    550.540    546.472    546.472
115.770   1359.168   1332.257     26.912    546.706   1327.502    551.278    546.706    546.706
115.870   1499.000   1466.548     32.452    546.946   1461.201    552.078    546.946    546.946
115.970   1615.000   1622.285     -7.285    547.191   1616.286    552.941    547.191    547.191
116.070   1793.000   1801.222     -8.222    547.443   1794.511    553.866    547.443    547.443
116.170   2015.000   2004.851     10.149    547.700   1997.369    554.853    547.700    547.700
116.270   2328.166   2234.322     93.844    547.963   2226.010    555.902    547.963    547.963
116.370   2393.275   2490.173    -96.897    548.232   2480.980    557.007    548.232    548.232
116.470   2686.918   2772.339    -85.421    548.507   2762.219    558.163    548.507    548.507
116.570   3177.000   3080.013     96.987    548.787   3068.929    559.362    548.787    548.787
116.670   3311.000   3411.551   -100.551    549.074   3399.476    560.597    549.074    549.074
116.770   3782.000   3764.394     17.606    549.367   3751.312    561.856    549.367    549.367
116.870   4203.000   4135.019     67.981    549.666   4120.930    563.128    549.666    549.666
116.970   4553.000   4518.926     34.074    549.971   4503.840    564.401    549.971    549.971
117.070   4934.000   4910.640     23.360    550.282   4894.582    565.663    550.282    550.282
117.170   5304.000   5303.759      0.241    550.600   5286.769    566.901    550.600    550.600
117.270   5674.000   5691.032    -17.032    550.923   5673.163    568.103    550.923    550.923
117.370   6040.272   6064.473    -24.201    551.253   6045.791    569.259    551.253    551.253
117.470   6499.000   6415.528     83.472    551.589   6396.112    570.355    551.589    551.589
117.570   6786.890   6735.311     51.580    551.932   6715.252    571.381    551.932    551.932
117.670   7062.000   7014.923     47.077    552.281   6994.324    572.323    552.281    552.281
117.770   7375.000   7245.882    129.118    552.636   7224.859    573.170    552.636    552.636
117.870   7423.000   7420.643      2.357    552.998   7399.322    573.912    552.998    552.998
117.970   7606.000   7533.179     72.821    553.366   7511.690    574.539    553.366    553.366
118.070   7498.000   7579.522    -81.522    553.741   7558.000    575.046    553.741    553.741
118.170   7410.000   7558.167   -148.167    554.122   7536.746    575.428    554.122    554.122
118.270   7464.000   7470.231     -6.231    554.510   7449.039    575.688    554.510    554.510
118.370   7364.624   7319.326     45.298    554.905   7298.483    575.831    554.905    554.905
118.470   7081.000   7111.183    -30.183    555.306   7090.799    575.863    555.306    555.306
118.570   6765.000   6853.117    -88.117    555.714   6833.286    575.794    555.714    555.714
118.670   6684.198   6553.443    130.755    556.129   6534.250    575.637    556.129    556.129
118.770   6272.694   6220.944     51.750    556.550   6202.460    575.402    556.550    556.550
118.870   5790.000   5864.429    -74.429    556.979   5846.711    575.103    556.979    556.979
118.970   5374.125   5492.392   -118.268    557.414   5475.488    574.751    557.414    557.414
119.070   5195.235   5112.774     82.461    557.856   5096.716    574.359    557.856    557.856
119.170   4763.419   4732.780     30.639    558.305   4717.591    573.941    558.305    558.305
119.270   4368.000   4358.767      9.233    558.761   4344.457    573.510    558.761    558.761
119.370   4050.000   3996.160     53.840    559.224   3982.728    573.079    559.224    559.224
119.470   3638.000   3649.416    -11.416    559.695   3636.849    572.660    559.695    559.695
119.570   3425.441   3322.017    103.424    560.172   3310.294    572.265    560.172    560.172
119.670   3124.000   3016.501    107.499    560.657   3005.590    571.904    560.657    560.657
119.770   2764.000   2734.518     29.482    561.148   2724.380    571.588    561.148    561.148
119.870   2448.000   2476.920    -28.920    561.647   2467.509    571.324    561.647    561.647
119.970   2221.676   2243.859    -22.183    562.154   2235.123    571.119    562.154    562.154
120.070   2086.000   2034.898     51.102    562.667   2026.781    570.979    562.667    562.667
120.170   1877.427   1849.130     28.297    563.188   1841.572    570.908    563.188    563.188
120.270   1693.000   1685.283      7.717    563.716   1678.221    570.910    563.716    563.716
120.370   1561.000   1541.824     19.176    564.252   1535.195    570.988    564.252    564.252
120.470   1440.000   1417.056     22.944    564.795   1410.792    571.142    564.795    564.795
120.570   1353.702   1309.194     44.509    565.346   1303.227    571.375    565.346    565.346
120.670   1273.794   1216.438     57.356    565.904   1210.702    571.687    565.904    565.904
120.770   1217.000   1137.035     79.965    566.470   1131.459    572.078    566.470    566.470
120.870   1027.171   1069.318    -42.147    567.044   1063.833    572.550    567.044    567.044
120.970   1020.804   1011.740      9.064    567.625   1006.276    573.101    567.625    567.625
121.070   1035.000    962.898     72.102    568.214    957.384    573.734    568.214    568.214
121.170    959.000    921.541     37.459    568.811    915.906    574.448    568.811    568.811
121.270    910.000    886.573     23.427    569.415    880.743    575.244    569.415    569.415
121.370    929.000    857.045     71.955    570.028    850.946    576.124    570.028    570.028
121.470    803.887    832.149    -28.262    570.648    825.705    577.089    570.648    570.648
121.570    795.523    811.204    -15.681    571.276    804.336    578.141    571.276    571.276
121.670    711.000    793.638    -82.638    571.912    786.266    579.282    571.912    571.912
121.770    745.173    778.980    -33.807    572.556    771.021    580.513    572.556    572.556
121.870    744.702    766.837    -22.134    573.209    758.206    581.839    573.209    573.209
121.970    739.000    756.887    -17.887    573.869    747.497    583.259    573.869    573.869
122.070    715.000    748.864    -33.864    574.537    738.626    584.777    574.537    574.537
122.170    756.252    742.549     13.704    575.214    731.371    586.395    575.214    575.214
122.270    701.000    737.756    -36.756    575.899    725.547    588.113    575.899    575.899
122.370    706.000    734.331    -28.331    576.592    720.998    589.931    576.592    576.592
122.470    738.719    732.139      6.581    577.294    717.590    591.851    577.294    577.294
122.570    748.564    731.063     17.501    578.003    715.206    593.871    578.003    578.003
122.670    716.288    730.997    -14.709    578.722    713.742    595.989    578.722    578.722
122.770    753.757    731.843     21.915    579.448    713.103    598.201    579.448    579.448
122.870    707.147    733.505    -26.358    580.183    713.201    600.503    580.183    580.183
122.970    715.000    735.893    -20.893    580.927    713.949    602.887    580.927    580.927
123.070    689.417    738.911    -49.494    581.679    715.265    605.344    581.679    581.679
123.170    695.487    742.464    -46.977    582.440    717.065    607.861    582.440    582.440
123.270    746.000    746.453     -0.453    583.210    719.265    610.422    583.210    583.210
123.370    743.000    750.769     -7.769    583.988    721.776    613.008    583.988    583.988
123.470    766.000    755.286     10.714    584.775    724.494    615.597    584.775    584.775
123.570    736.000    759.899    -23.899    585.571    727.338    618.165    585.571    585.571
123.670    714.463    764.517    -50.055    586.375    730.244    620.684    586.375    586.375
123.770    830.000    768.992     61.008    587.189    733.095    623.124    587.189    587.189
123.870    787.000    773.192     13.808    588.011    735.791    625.454    588.011    588.011
123.970    824.000    776.987     47.013    588.843    738.235    627.640    588.843    588.843
124.070    780.000    780.251     -0.251    589.683    740.332    629.649    589.683    589.683
124.170    779.000    782.864     -3.864    590.533    741.995    631.452    590.533    590.533
124.270    782.000    784.720     -2.720    591.391    743.146    633.019    591.391    591.391
124.370    792.814    785.732      7.082    592.259    743.719    634.328    592.259    592.259
124.470    781.323    785.838     -4.514    593.136    743.668    635.363    593.136    593.136
124.570    772.848    785.003    -12.154    594.022    742.968    636.117    594.022    594.022
124.670    818.000    783.225     34.775    594.917    741.615    636.588    594.917    594.917
124.770    842.000    780.533     61.467    595.822    739.628    636.789    595.822    595.822
124.870    777.000    776.982      0.018    596.736    737.046    636.734    596.736    596.736
124.970    861.000    772.652     88.348    597.660    733.924    636.449    597.660    597.660
