neutron_powder_diffraction_0187
R_wp: 3.928
Temperature (K): 1074.000
Counts: 83890.00
Wavelength (Ã…): 2.52098
COMMENTS
Test file for demonstrating the .xyy file format in Reel1.0
END OF HEADER
   tth       Y_obs     Y_calc      Y_res    Background    Phase_1_Nuc    Phase_1_Mag    Phase_2_Nuc    Phase_2_Mag
  9.970    525.000    573.016    -48.016    572.271    572.955    572.271    572.332    572.271
 10.070    628.000    573.127     54.873    572.323    573.066    572.323    572.384    572.323
 10.170    615.000    573.241     41.759    572.370    573.180    572.370    572.431    572.370
 10.270    579.000    573.361      5.639    572.411    573.299    572.411    572.472    572.411
 10.370    624.000    573.487     50.513    572.446    573.425    572.446    572.508    572.446
 10.470    571.000    573.624     -2.624    572.477    573.562    572.477    572.539    572.477
 10.570    550.899    573.775    -22.877    572.502    573.712    572.502    572.564    572.502
 10.670    558.000    573.945    -15.945    572.521    573.882    572.521    572.584    572.521
 10.770    592.000    574.141     17.859    572.536    574.077    572.536    572.599    572.536
 10.870    604.154    574.372     29.782    572.545    574.308    572.545    572.608    572.545
 10.970    568.000    574.651     -6.651    572.550    574.586    572.550    572.613    572.550
 11.070    573.000    574.996     -1.996    572.549    574.931    572.549    572.613    572.549
 11.170    625.000    575.435     49.565    572.543    575.370    572.543    572.607    572.543
 11.270    615.000    576.008     38.992    572.533    575.942    572.533    572.597    572.533
 11.370    563.963    576.787    -12.824    572.517    576.719    572.517    572.583    572.517
 11.470    640.000    577.929     62.071    572.497    577.860    572.497    572.563    572.497
 11.570    605.000    579.868     25.132    572.471    579.797    572.471    572.538    572.471
 11.670    575.761    583.793     -8.032    572.441    583.720    572.441    572.509    572.441
 11.770    595.008    592.377      2.631    572.407    592.298    572.407    572.474    572.407
 11.870    620.000    609.773     10.227    572.368    609.685    572.368    572.435    572.368
 11.970    591.729    639.043    -47.314    572.324    638.937    572.324    572.392    572.324
 12.070    644.000    676.299    -32.299    572.275    676.172    572.275    572.344    572.275
 12.170    692.000    705.430    -13.430    572.222    705.286    572.222    572.291    572.222
 12.270    695.096    706.323    -11.227    572.165    706.178    572.165    572.234    572.165
 12.370    663.000    678.129    -15.129    572.103    678.000    572.103    572.172    572.103
 12.470    621.959    640.608    -18.650    572.037    640.500    572.037    572.107    572.037
 12.570    605.000    610.583     -5.583    571.966    610.491    571.966    572.036    571.966
 12.670    642.225    592.494     49.731    571.892    592.412    571.892    571.962    571.892
 12.770    580.000    583.461     -3.461    571.813    583.384    571.813    571.883    571.813
 12.870    574.626    579.275     -4.649    571.730    579.200    571.730    571.800    571.730
 12.970    581.354    577.168      4.186    571.642    577.094    571.642    571.714    571.642
 13.070    552.000    575.892    -23.892    571.551    575.818    571.551    571.623    571.551
 13.170    545.000    574.992    -29.992    571.455    574.918    571.455    571.527    571.455
 13.270    593.000    574.304     18.696    571.356    574.230    571.356    571.428    571.356
 13.370    558.246    573.754    -15.508    571.253    573.680    571.253    571.325    571.253
 13.470    560.000    573.299    -13.299    571.146    573.225    571.146    571.219    571.146
 13.570    589.023    572.913     16.110    571.034    572.839    571.034    571.108    571.034
 13.670    597.000    572.577     24.423    570.920    572.502    570.920    570.993    570.920
 13.770    591.879    572.278     19.601    570.801    572.203    570.801    570.875    570.801
 13.870    582.000    572.007      9.993    570.678    571.931    570.678    570.753    570.678
 13.970    554.000    571.756    -17.756    570.552    571.681    570.552    570.627    570.552
 14.070    538.000    571.522    -33.522    570.423    571.446    570.423    570.498    570.423
 14.170    577.000    571.299      5.701    570.289    571.223    570.289    570.365    570.289
 14.270    534.000    571.086    -37.086    570.152    571.010    570.152    570.229    570.152
 14.370    604.907    570.881     34.026    570.012    570.804    570.012    570.089    570.012
 14.470    570.000    570.683     -0.683    569.868    570.606    569.868    569.945    569.868
 14.570    585.000    570.488     14.512    569.721    570.410    569.721    569.799    569.721
 14.670    590.000    570.299     19.701    569.570    570.216    569.570    569.653    569.570
 14.770    552.000    570.108    -18.108    569.416    570.023    569.416    569.501    569.416
 14.870    546.000    569.918    -23.918    569.259    569.832    569.259    569.344    569.259
 14.970    515.000    569.727    -54.727    569.098    569.641    569.098    569.184    569.098
 15.070    547.000    569.537    -22.537    568.935    569.451    568.935    569.021    568.935
 15.170    550.610    569.347    -18.736    568.768    569.260    568.768    568.854    568.768
 15.270    551.281    569.156    -17.874    568.598    569.068    568.598    568.685    568.598
 15.370    559.919    568.964     -9.045    568.424    568.876    568.424    568.512    568.424
 15.470    600.000    568.771     31.229    568.248    568.682    568.248    568.336    568.248
 15.570    531.000    568.576    -37.576    568.069    568.487    568.069    568.158    568.069
 15.670    614.149    568.380     45.769    567.887    568.291    567.887    567.976    567.887
 15.770    562.899    568.183     -5.285    567.702    568.093    567.702    567.791    567.702
 15.870    531.588    567.984    -36.396    567.514    567.894    567.514    567.604    567.514
 15.970    552.232    567.784    -15.551    567.323    567.693    567.323    567.414    567.323
 16.070    535.895    567.581    -31.686    567.129    567.490    567.129    567.220    567.129
 16.170    590.453    567.378     23.075    566.933    567.286    566.933    567.025    566.933
 16.270    542.000    567.174    -25.174    566.734    567.081    566.734    566.826    566.734
 16.370    597.214    566.966     30.248    566.532    566.873    566.532    566.625    566.532
 16.470    559.000    566.756     -7.756    566.327    566.663    566.327    566.421    566.327
 16.570    542.000    566.544    -24.544    566.120    566.450    566.120    566.214    566.120
 16.670    521.000    566.330    -45.330    565.910    566.235    565.910    566.005    565.910
 16.770    613.406    566.114     47.292    565.698    566.019    565.698    565.793    565.698
 16.870    562.048    565.896     -3.848    565.483    565.800    565.483    565.579    565.483
 16.970    569.000    565.676      3.324    565.266    565.580    565.266    565.362    565.266
 17.070    566.000    565.454      0.546    565.046    565.357    565.046    565.143    565.046
 17.170    536.000    565.233    -29.233    564.824    565.135    564.824    564.922    564.824
 17.270    529.000    565.008    -36.008    564.600    564.909    564.600    564.698    564.600
 17.370    562.472    564.780     -2.308    564.373    564.681    564.373    564.472    564.373
 17.470    586.000    564.550     21.450    564.144    564.451    564.144    564.244    564.144
 17.570    593.650    564.319     29.331    563.913    564.219    563.913    564.013    563.913
 17.670    574.000    564.085      9.915    563.679    563.985    563.679    563.780    563.679
 17.770    581.000    563.850     17.150    563.444    563.749    563.444    563.545    563.444
 17.870    590.000    563.613     26.387    563.206    563.511    563.206    563.308    563.206
 17.970    534.853    563.374    -28.521    562.966    563.271    562.966    563.069    562.966
 18.070    593.315    563.134     30.181    562.724    563.030    562.724    562.828    562.724
 18.170    541.000    562.892    -21.892    562.480    562.788    562.480    562.585    562.480
 18.270    579.786    562.649     17.138    562.234    562.543    562.234    562.339    562.234
 18.370    570.759    562.403      8.356    561.986    562.297    561.986    562.092    561.986
 18.470    577.000    562.156     14.844    561.736    562.049    561.736    561.843    561.736
 18.570    555.000    561.907     -6.907    561.485    561.799    561.485    561.592    561.485
 18.670    539.000    561.656    -22.656    561.231    561.548    561.231    561.339    561.231
 18.770    525.554    561.404    -35.850    560.975    561.295    560.975    561.084    560.975
 18.870    566.000    561.151      4.849    560.718    561.041    560.718    560.828    560.718
 18.970    580.000    560.896     19.104    560.459    560.785    560.459    560.570    560.459
 19.070    531.000    560.639    -29.639    560.198    560.528    560.198    560.310    560.198
 19.170    589.000    560.382     28.618    559.936    560.269    559.936    560.048    559.936
 19.270    562.000    560.123      1.877    559.672    560.010    559.672    559.785    559.672
 19.370    575.441    559.864     15.577    559.406    559.750    559.406    559.520    559.406
 19.470    590.000    559.603     30.397    559.139    559.487    559.139    559.254    559.139
 19.570    574.720    559.342     15.378    558.870    559.224    558.870    558.988    558.870
 19.670    547.000    559.079    -12.079    558.599    558.959    558.599    558.720    558.599
 19.770    506.000    558.814    -52.814    558.328    558.692    558.328    558.449    558.328
 19.870    526.000    558.549    -32.549    558.054    558.427    558.054    558.177    558.054
 19.970    557.000    558.295     -1.295    557.779    558.172    557.779    557.903    557.779
 20.070    551.012    558.038     -7.026    557.503    557.913    557.503    557.628    557.503
 20.170    551.000    557.770     -6.770    557.225    557.644    557.225    557.351    557.225
 20.270    556.000    557.500     -1.500    556.947    557.373    556.947    557.073    556.947
 20.370    528.471    557.229    -28.759    556.666    557.101    556.666    556.794    556.666
 20.470    580.000    556.958     23.042    556.385    556.829    556.385    556.514    556.385
 20.570    551.000    556.686     -5.686    556.102    556.556    556.102    556.232    556.102
 20.670    551.072    556.414     -5.342    555.818    556.282    555.818    555.950    555.818
 20.770    562.000    556.141      5.859    555.533    556.008    555.533    555.666    555.533
 20.870    597.218    555.868     41.351    555.246    555.734    555.246    555.381    555.246
 20.970    523.000    555.594    -32.594    554.959    555.459    554.959    555.094    554.959
 21.070    544.000    555.320    -11.320    554.670    555.183    554.670    554.807    554.670
 21.170    526.000    555.055    -29.055    554.381    554.916    554.381    554.519    554.381
 21.270    520.133    554.865    -34.732    554.090    554.725    554.090    554.230    554.090
 21.370    556.000    554.613      1.387    553.798    554.471    553.798    553.940    553.798
 21.470    595.438    554.341     41.098    553.505    554.198    553.505    553.648    553.505
 21.570    560.000    554.068      5.932    553.212    553.923    553.212    553.356    553.212
 21.670    561.000    553.796      7.204    552.917    553.650    552.917    553.063    552.917
 21.770    557.000    553.524      3.476    552.622    553.376    552.622    552.769    552.622
 21.870    624.000    553.254     70.746    552.325    553.104    552.325    552.475    552.325
 21.970    542.000    552.985    -10.985    552.028    552.834    552.028    552.179    552.028
 22.070    586.000    552.719     33.281    551.730    552.566    551.730    551.883    551.730
 22.170    573.803    552.479     21.323    551.431    552.324    551.431    551.586    551.431
 22.270    576.000    552.289     23.711    551.131    552.132    551.131    551.289    551.131
 22.370    563.225    552.050     11.174    550.831    551.891    550.831    550.990    550.831
 22.470    593.336    551.796     41.540    550.530    551.635    550.530    550.691    550.530
 22.570    547.000    551.547     -4.547    550.228    551.383    550.228    550.392    550.228
 22.670    552.000    551.304      0.696    549.926    551.139    549.926    550.092    549.926
 22.770    498.000    551.064    -53.064    549.623    550.897    549.623    549.791    549.623
 22.870    561.000    550.832     10.168    549.319    550.662    549.319    549.490    549.319
 22.970    545.000    550.609     -5.609    549.015    550.436    549.015    549.188    549.015
 23.070    533.173    550.397    -17.224    548.710    550.222    548.710    548.886    548.710
 23.170    550.747    550.200      0.548    548.405    550.022    548.405    548.584    548.405
 23.270    525.661    550.020    -24.360    548.099    549.840    548.099    548.281    548.099
 23.370    557.000    549.865      7.135    547.793    549.681    547.793    547.977    547.793
 23.470    573.000    549.742     23.258    547.486    549.555    547.486    547.674    547.486
 23.570    573.922    549.655     24.267    547.179    549.465    547.179    547.370    547.179
 23.670    569.000    549.621     19.379    546.872    549.428    546.872    547.066    546.872
 23.770    564.000    549.660     14.340    546.564    549.464    546.564    546.761    546.564
 23.870    527.686    549.803    -22.117    546.255    549.604    546.255    546.457    546.255
 23.970    541.000    550.109     -9.109    545.947    549.906    545.947    546.152    545.947
 24.070    588.000    550.713     37.287    545.638    550.506    545.638    545.847    545.638
 24.170    580.000    551.996     28.004    545.329    551.786    545.329    545.542    545.329
 24.270    603.000    554.946     48.054    545.019    554.735    545.019    545.237    545.019
 24.370    576.544    561.585     14.960    544.710    561.373    544.710    544.932    544.710
 24.470    623.149    574.638     48.511    544.400    574.431    544.400    544.627    544.400
 24.570    635.000    595.383     39.617    544.090    595.186    544.090    544.322    544.090
 24.670    562.000    619.771    -57.771    543.779    619.585    543.779    544.018    543.779
 24.770    636.000    635.872      0.128    543.469    635.693    543.469    543.713    543.469
 24.870    606.510    631.934    -25.423    543.159    631.746    543.159    543.408    543.159
 24.970    622.823    611.144     11.679    542.848    610.935    542.848    543.104    542.848
 25.070    598.620    586.704     11.916    542.537    586.471    542.537    542.801    542.537
 25.170    580.000    567.903     12.097    542.227    567.650    542.227    542.497    542.227
 25.270    583.565    556.662     26.903    541.916    556.393    541.916    542.194    541.916
 25.370    575.096    550.930     24.166    541.605    550.649    541.605    541.892    541.605
 25.470    572.883    548.129     24.754    541.294    547.837    541.294    541.590    541.294
 25.570    607.000    546.608     60.392    540.984    546.306    540.984    541.288    540.984
 25.670    574.000    545.618     28.382    540.673    545.305    540.673    540.988    540.673
 25.770    608.000    544.882     63.118    540.363    544.558    540.363    540.688    540.363
 25.870    572.000    544.297     27.703    540.052    543.961    540.052    540.389    540.052
 25.970    560.000    543.822     16.178    539.742    543.473    539.742    540.091    539.742
 26.070    505.941    543.448    -37.508    539.432    543.086    539.432    539.794    539.432
 26.170    521.000    543.139    -22.139    539.122    542.762    539.122    539.499    539.122
 26.270    545.000    542.867      2.133    538.812    542.474    538.812    539.205    538.812
 26.370    532.000    542.638    -10.638    538.502    542.228    538.502    538.912    538.502
 26.470    530.000    542.458    -12.458    538.193    542.029    538.193    538.622    538.193
 26.570    559.000    542.330     16.670    537.883    541.881    537.883    538.333    537.883
 26.670    582.798    542.259     40.539    537.574    541.786    537.574    538.047    537.574
 26.770    538.261    542.252     -3.992    537.266    541.755    537.266    537.763    537.266
 26.870    554.000    542.339     11.661    536.957    541.815    536.957    537.481    536.957
 26.970    570.000    542.540     27.460    536.649    541.985    536.649    537.204    536.649
 27.070    554.000    542.824     11.176    536.342    542.236    536.342    536.929    536.342
 27.170    547.000    543.259      3.741    536.034    542.633    536.034    536.660    536.034
 27.270    544.000    543.902      0.098    535.727    543.234    535.727    536.395    535.727
 27.370    528.725    544.836    -16.111    535.421    544.120    535.421    536.135    535.421
 27.470    542.000    546.211     -4.211    535.115    545.441    535.115    535.883    535.115
 27.570    574.561    548.423     26.138    534.809    547.592    534.809    535.638    534.809
 27.670    523.000    552.876    -29.876    534.504    551.973    534.504    535.402    534.504
 27.770    554.546    564.351     -9.805    534.199    563.365    534.199    535.178    534.199
 27.870    631.241    594.950     36.290    533.894    593.861    533.894    534.966    533.894
 27.970    708.540    663.450     45.089    533.591    662.230    533.591    534.771    533.591
 28.070    767.000    778.054    -11.054    533.287    776.672    533.287    534.596    533.287
 28.170    889.000    906.139    -17.139    532.985    904.577    532.985    534.446    532.985
 28.270    945.000    969.270    -24.270    532.682    967.527    532.682    534.327    532.682
 28.370    912.293    915.925     -3.633    532.381    913.996    532.381    534.248    532.381
 28.470    826.000    800.950     25.050    532.080    798.779    532.080    534.225    532.080
 28.570    701.395    712.122    -10.728    531.779    709.611    531.779    534.279    531.779
 28.670    723.000    694.568     28.432    531.479    691.586    531.479    534.447    531.479
 28.770    681.000    742.835    -61.835    531.180    739.204    531.180    534.791    531.180
 28.870    790.000    814.941    -24.941    530.882    810.403    530.882    535.407    530.882
 28.970    820.117    849.057    -28.940    530.584    843.212    530.584    536.431    530.584
 29.070    828.858    808.818     20.040    530.287    801.079    530.287    538.038    530.287
 29.170    719.000    726.032     -7.032    529.990    715.625    529.990    540.409    529.990
 29.270    645.000    649.923     -4.923    529.694    635.951    529.694    543.674    529.694
 29.370    617.000    602.788     14.212    529.399    584.397    529.399    547.793    529.399
 29.470    577.000    581.775     -4.775    529.105    558.543    529.105    552.336    529.105
 29.570    603.000    574.795     28.205    528.811    547.394    528.811    556.210    528.811
 29.670    580.815    571.775      9.040    528.519    542.491    528.519    557.800    528.519
 29.770    601.000    567.803     33.197    528.227    539.872    528.227    556.154    528.227
 29.870    542.326    562.232    -19.907    527.936    538.173    527.936    551.993    527.936
 29.970    617.000    556.237     60.763    527.645    536.977    527.645    546.902    527.645
 30.070    598.000    550.888     47.112    527.356    536.153    527.356    542.089    527.356
 30.170    564.000    546.691     17.309    527.067    535.675    527.067    538.080    527.067
 30.270    579.202    543.849     35.352    526.779    535.654    526.779    534.972    526.779
 30.370    497.040    542.700    -45.660    526.492    536.532    526.492    532.656    526.492
 30.470    562.000    544.230     17.770    526.206    539.473    526.206    530.956    526.206
 30.570    556.000    550.409      5.591    525.921    546.623    525.921    529.694    525.921
 30.670    553.000    563.416    -10.416    525.637    560.303    525.637    528.726    525.637
 30.770    631.683    583.038     48.644    525.354    580.405    525.354    527.949    525.354
 30.870    636.000    603.383     32.617    525.071    601.106    525.071    527.296    525.071
 30.970    624.000    612.633     11.367    524.790    610.640    524.790    526.727    524.790
 31.070    628.000    602.990     25.010    524.510    601.237    524.510    526.216    524.510
 31.170    599.000    581.677     17.323    524.230    580.129    524.230    525.749    524.230
 31.270    568.845    560.499      8.345    523.952    559.120    523.952    525.315    523.952
 31.370    545.325    545.586     -0.261    523.675    544.345    523.675    524.907    523.675
 31.470    536.000    537.257     -1.257    523.398    536.131    523.398    524.520    523.398
 31.570    504.000    533.236    -29.236    523.123    532.205    523.123    524.151    523.123
 31.670    543.117    531.326     11.791    522.849    530.377    522.849    523.796    522.849
 31.770    575.000    530.295     44.705    522.575    529.416    522.575    523.453    522.575
 31.870    558.000    529.635     28.365    522.303    528.816    522.303    523.120    522.303
 31.970    536.248    529.170      7.078    522.032    528.404    522.032    522.796    522.032
 32.070    530.000    528.844      1.156    521.762    528.125    521.762    522.480    521.762
 32.170    530.000    528.636      1.364    521.493    527.958    521.493    522.170    521.493
 32.270    513.000    528.537    -15.537    521.225    527.896    521.225    521.866    521.225
 32.370    532.000    528.549      3.451    520.959    527.940    520.959    521.567    520.959
 32.470    565.000    528.680     36.320    520.693    528.100    520.693    521.272    520.693
 32.570    494.415    528.948    -34.532    520.429    528.393    520.429    520.982    520.429
 32.670    521.183    529.377     -8.194    520.166    528.846    520.166    520.696    520.166
 32.770    535.000    530.008      4.992    519.904    529.498    519.904    520.413    519.904
 32.870    515.000    530.896    -15.896    519.643    530.405    519.643    520.133    519.643
 32.970    517.000    532.126    -15.126    519.383    531.652    519.383    519.856    519.383
 33.070    515.000    533.829    -18.829    519.125    533.370    519.125    519.582    519.125
 33.170    500.000    536.242    -36.242    518.868    535.797    518.868    519.311    518.868
 33.270    542.307    539.917      2.390    518.612    539.484    518.612    519.042    518.612
 33.370    507.000    546.352    -39.352    518.357    545.930    518.357    518.775    518.357
 33.470    596.000    559.453     36.547    518.103    559.039    518.103    518.511    518.103
 33.570    626.000    587.605     38.395    517.851    587.196    517.851    518.249    517.851
 33.670    625.000    643.926    -18.926    517.600    643.515    517.600    517.989    517.600
 33.770    701.676    740.117    -38.441    517.350    739.698    517.350    517.731    517.350
 33.870    891.000    872.114     18.886    517.102    871.685    517.102    517.475    517.102
 33.970    993.000   1004.090    -11.090    516.854   1003.657    516.854    517.221    516.854
 34.070   1068.000   1068.649     -0.649    516.608   1068.231    516.608    516.969    516.608
 34.170    966.360   1020.159    -53.799    516.364   1019.774    516.364    516.719    516.364
 34.270    926.000    894.362     31.638    516.121    894.008    516.121    516.470    516.121
 34.370    771.000    759.053     11.947    515.879    758.715    515.879    516.223    515.879
 34.470    609.644    655.687    -46.043    515.638    655.355    515.638    515.978    515.638
 34.570    617.393    592.710     24.683    515.399    592.379    515.399    515.735    515.399
 34.670    574.000    560.086     13.914    515.161    559.756    515.161    515.493    515.161
 34.770    546.379    544.457      1.921    514.924    544.128    514.924    515.254    514.924
 34.870    552.000    536.618     15.382    514.689    536.291    514.689    515.015    514.689
 34.970    529.000    532.033     -3.033    514.455    531.709    514.455    514.779    514.455
 35.070    580.000    528.893     51.107    514.223    528.572    514.223    514.544    514.223
 35.170    507.000    526.531    -19.531    513.991    526.211    513.991    514.310    513.991
 35.270    533.000    524.667      8.333    513.762    524.349    513.762    514.079    513.762
 35.370    489.000    523.155    -34.155    513.533    522.839    513.533    513.849    513.533
 35.470    553.000    521.903     31.097    513.306    521.589    513.306    513.620    513.306
 35.570    499.519    520.848    -21.328    513.081    520.535    513.081    513.393    513.081
 35.670    509.000    519.945    -10.945    512.857    519.633    512.857    513.168    512.857
 35.770    504.000    519.161    -15.161    512.634    518.850    512.634    512.944    512.634
 35.870    544.381    518.473     25.908    512.413    518.163    512.413    512.722    512.413
 35.970    523.000    517.863      5.137    512.193    517.554    512.193    512.502    512.193
 36.070    550.378    517.317     33.061    511.975    517.008    511.975    512.283    511.975
 36.170    517.000    516.826      0.174    511.758    516.518    511.758    512.066    511.758
 36.270    507.333    516.382     -9.048    511.543    516.074    511.543    511.850    511.543
 36.370    510.000    515.979     -5.979    511.329    515.672    511.329    511.636    511.329
 36.470    506.000    515.616     -9.616    511.116    515.308    511.116    511.424    511.116
 36.570    538.000    515.290     22.710    510.905    514.982    510.905    511.213    510.905
 36.670    521.000    515.002      5.998    510.696    514.694    510.696    511.004    510.696
 36.770    515.000    514.758      0.242    510.488    514.450    510.488    510.796    510.488
 36.870    506.000    514.578     -8.578    510.281    514.269    510.281    510.590    510.281
 36.970    484.759    514.510    -29.752    510.076    514.201    510.076    510.386    510.076
 37.070    539.000    514.678     24.322    509.872    514.368    509.872    510.183    509.872
 37.170    548.845    515.314     33.531    509.670    515.003    509.670    509.982    509.670
 37.270    504.869    516.753    -11.884    509.470    516.441    509.470    509.782    509.470
 37.370    573.000    519.276     53.724    509.271    518.963    509.271    509.584    509.271
 37.470    494.000    522.798    -28.798    509.073    522.485    509.073    509.388    509.073
 37.570    536.000    526.517      9.483    508.877    526.204    508.877    509.193    508.877
 37.670    530.000    528.867      1.133    508.683    528.554    508.683    509.000    508.683
 37.770    484.000    528.531    -44.531    508.490    528.219    508.490    508.809    508.490
 37.870    501.402    525.843    -24.440    508.299    525.531    508.299    508.619    508.299
 37.970    554.287    522.232     32.056    508.109    521.920    508.109    508.431    508.109
 38.070    530.000    518.800     11.200    507.921    518.487    507.921    508.244    507.921
 38.170    507.000    515.983     -8.983    507.734    515.667    507.734    508.059    507.734
 38.270    498.000    513.882    -15.882    507.549    513.561    507.549    507.876    507.549
 38.370    484.000    512.425    -28.425    507.365    512.100    507.365    507.695    507.365
 38.470    510.000    511.454     -1.454    507.183    511.125    507.183    507.515    507.183
 38.570    547.727    510.809     36.918    507.003    510.477    507.003    507.337    507.003
 38.670    483.000    510.365    -27.365    506.824    510.029    506.824    507.160    506.824
 38.770    499.759    510.034    -10.275    506.646    509.696    506.646    506.985    506.646
 38.870    520.000    509.764     10.236    506.471    509.423    506.471    506.812    506.471
 38.970    534.354    509.528     24.826    506.296    509.185    506.296    506.640    506.296
 39.070    464.742    509.314    -44.572    506.124    508.968    506.124    506.470    506.124
 39.170    475.276    509.115    -33.839    505.953    508.766    505.953    506.302    505.953
 39.270    508.000    508.930     -0.930    505.783    508.577    505.783    506.136    505.783
 39.370    512.000    508.755      3.245    505.616    508.399    505.616    505.971    505.616
 39.470    514.000    508.589      5.411    505.449    508.231    505.449    505.808    505.449
 39.570    508.000    508.433     -0.433    505.285    508.071    505.285    505.647    505.285
 39.670    499.972    508.285     -8.313    505.122    507.920    505.122    505.487    505.122
 39.770    518.000    508.145      9.855    504.960    507.776    504.960    505.329    504.960
 39.870    532.000    508.013     23.987    504.800    507.641    504.800    505.173    504.800
 39.970    527.070    507.889     19.181    504.642    507.513    504.642    505.018    504.642
 40.070    528.008    507.773     20.235    504.485    507.394    504.485    504.865    504.485
 40.170    536.291    507.667     28.624    504.330    507.283    504.330    504.714    504.330
 40.270    488.000    507.569    -19.569    504.177    507.182    504.177    504.565    504.177
 40.370    508.000    507.482      0.518    504.025    507.090    504.025    504.417    504.025
 40.470    449.000    507.406    -58.406    503.875    507.010    503.875    504.272    503.875
 40.570    487.000    507.343    -20.343    503.726    506.943    503.726    504.128    503.726
 40.670    520.000    507.294     12.706    503.579    506.889    503.579    503.985    503.579
 40.770    526.000    507.262     18.738    503.434    506.852    503.434    503.845    503.434
 40.870    488.000    507.249    -19.249    503.290    506.834    503.290    503.706    503.290
 40.970    537.000    507.259     29.741    503.148    506.839    503.148    503.569    503.148
 41.070    478.000    507.297    -29.297    503.008    506.872    503.008    503.434    503.008
 41.170    546.571    507.369     39.203    502.869    506.938    502.869    503.300    502.869
 41.270    498.000    507.483     -9.483    502.732    507.047    502.732    503.169    502.732
 41.370    516.000    507.651      8.349    502.596    507.209    502.596    503.039    502.596
 41.470    485.777    507.889    -22.112    502.462    507.441    502.462    502.911    502.462
 41.570    522.000    508.223     13.777    502.330    507.769    502.330    502.785    502.330
 41.670    481.000    508.699    -27.699    502.199    508.239    502.199    502.660    502.199
 41.770    548.000    509.420     38.580    502.070    508.954    502.070    502.538    502.070
 41.870    529.088    510.636     18.452    501.942    510.163    501.942    502.417    501.942
 41.970    541.493    512.911     28.582    501.816    512.433    501.816    502.298    501.816
 42.070    481.498    517.369    -35.871    501.692    516.885    501.692    502.181    501.692
 42.170    560.641    525.787     34.854    501.569    525.299    501.569    502.066    501.569
 42.270    485.000    540.180    -55.180    501.448    539.691    501.448    501.953    501.448
 42.370    604.239    561.575     42.664    501.329    561.087    501.329    501.842    501.329
 42.470    576.000    588.187    -12.187    501.211    587.705    501.211    501.733    501.211
 42.570    606.404    613.838     -7.434    501.095    613.361    501.095    501.625    501.095
 42.670    529.000    628.499    -99.499    500.980    628.023    500.980    501.520    500.980
 42.770    567.000    624.518    -57.518    500.867    624.034    500.867    501.416    500.867
 42.870    596.907    604.226     -7.319    500.756    603.724    500.756    501.315    500.756
 42.970    589.638    577.167     12.470    500.646    576.641    500.646    501.215    500.646
 43.070    573.962    552.073     21.889    500.538    551.522    500.538    501.118    500.538
 43.170    540.000    533.278      6.722    500.431    532.706    500.431    501.023    500.431
 43.270    498.910    521.268    -22.358    500.326    520.676    500.326    500.929    500.326
 43.370    519.000    514.459      4.541    500.223    513.851    500.223    500.838    500.223
 43.470    496.000    510.856    -14.856    500.122    510.233    500.122    500.749    500.122
 43.570    471.329    508.934    -37.605    500.021    508.296    500.021    500.662    500.021
 43.670    499.000    507.813     -8.813    499.923    507.161    499.923    500.577    499.923
 43.770    548.393    507.071     41.321    499.826    506.405    499.826    500.495    499.826
 43.870    502.000    506.529     -4.529    499.731    505.848    499.731    500.414    499.731
 43.970    492.000    506.111    -14.111    499.637    505.413    499.637    500.336    499.637
 44.070    510.000    505.780      4.220    499.545    505.065    499.545    500.261    499.545
 44.170    490.000    505.514    -15.514    499.455    504.783    499.455    500.187    499.455
 44.270    462.000    505.301    -43.301    499.366    504.551    499.366    500.117    499.366
 44.370    467.443    505.129    -37.687    499.279    504.360    499.279    500.048    499.279
 44.470    514.000    504.992      9.008    499.193    504.203    499.193    499.982    499.193
 44.570    511.776    504.885      6.891    499.109    504.075    499.109    499.919    499.109
 44.670    496.000    504.803     -8.803    499.026    503.971    499.026    499.859    499.026
 44.770    516.000    504.744     11.256    498.946    503.889    498.946    499.801    498.946
 44.870    494.000    504.706    -10.706    498.866    503.826    498.866    499.747    498.866
 44.970    491.047    504.687    -13.640    498.788    503.781    498.788    499.695    498.788
 45.070    490.646    504.686    -14.041    498.712    503.752    498.712    499.647    498.712
 45.170    471.382    504.703    -33.321    498.638    503.739    498.638    499.601    498.638
 45.270    532.302    504.737     27.565    498.565    503.742    498.565    499.559    498.565
 45.370    484.000    504.789    -20.789    498.493    503.761    498.493    499.521    498.493
 45.470    528.478    504.858     23.620    498.423    503.795    498.423    499.486    498.423
 45.570    473.014    504.946    -31.932    498.355    503.845    498.355    499.456    498.355
 45.670    547.750    505.054     42.696    498.288    503.912    498.288    499.429    498.288
 45.770    532.000    505.182     26.818    498.223    503.997    498.223    499.408    498.223
 45.870    461.557    505.334    -43.777    498.159    504.102    498.159    499.390    498.159
 45.970    498.653    505.510     -6.858    498.097    504.229    498.097    499.378    498.097
 46.070    497.273    505.715     -8.442    498.036    504.379    498.036    499.371    498.036
 46.170    522.000    505.952     16.048    497.977    504.558    497.977    499.371    497.977
 46.270    560.000    506.225     53.775    497.920    504.767    497.920    499.376    497.920
 46.370    550.000    506.540     43.460    497.864    505.014    497.864    499.389    497.864
 46.470    555.000    506.906     48.094    497.809    505.306    497.809    499.409    497.809
 46.570    488.342    507.334    -18.992    497.756    505.651    497.756    499.438    497.756
 46.670    500.000    507.838     -7.838    497.705    506.066    497.705    499.476    497.705
 46.770    526.446    508.447     17.999    497.655    506.576    497.655    499.524    497.655
 46.870    516.000    509.218      6.782    497.607    507.238    497.607    499.584    497.607
 46.970    549.000    510.276     38.724    497.560    508.175    497.560    499.658    497.560
 47.070    497.000    511.892    -14.892    497.514    509.657    497.514    499.746    497.514
 47.170    516.000    514.588      1.412    497.470    512.203    497.470    499.851    497.470
 47.270    553.806    519.206     34.600    497.428    516.650    497.428    499.975    497.428
 47.370    509.830    526.801    -16.971    497.387    524.052    497.387    500.122    497.387
 47.470    531.000    538.219     -7.219    497.348    535.248    497.348    500.296    497.348
 47.570    526.453    553.364    -26.912    497.310    550.141    497.310    500.500    497.310
 47.670    529.981    570.410    -40.429    497.273    566.897    497.273    500.741    497.273
 47.770    565.000    585.387    -20.387    497.238    581.544    497.238    501.026    497.238
 47.870    639.362    592.952     46.410    497.205    588.734    497.205    501.365    497.205
 47.970    630.000    589.943     40.057    497.173    585.293    497.173    501.770    497.173
 48.070    591.000    578.520     12.480    497.142    573.358    497.142    502.260    497.142
 48.170    560.000    563.899     -3.899    497.113    558.116    497.113    502.864    497.113
 48.270    557.000    550.589      6.411    497.085    544.028    497.085    503.625    497.085
 48.370    561.000    541.032     19.968    497.059    533.462    497.059    504.615    497.059
 48.470    519.000    535.844    -16.844    497.034    526.921    497.034    505.948    497.034
 48.570    529.000    534.572     -5.572    497.011    523.778    497.011    507.798    497.011
 48.670    538.000    536.488      1.512    496.989    523.055    496.989    510.417    496.989
 48.770    543.000    541.100      1.900    496.968    523.929    496.968    514.134    496.968
 48.870    549.000    548.310      0.690    496.949    525.920    496.949    519.334    496.949
 48.970    526.839    558.343    -31.503    496.931    528.878    496.931    526.391    496.931
 49.070    565.000    571.614     -6.614    496.915    532.963    496.915    535.559    496.915
 49.170    580.000    588.743     -8.743    496.900    538.824    496.900    546.811    496.900
 49.270    636.000    610.981     25.019    496.886    548.250    496.886    559.606    496.886
 49.370    651.000    641.480      9.520    496.874    565.745    496.874    572.592    496.874
 49.470    665.000    687.847    -22.847    496.863    601.297    496.863    583.385    496.863
 49.570    753.795    765.752    -11.957    496.854    673.523    496.854    589.034    496.854
 49.670    954.000    900.879     53.121    496.846    810.038    496.846    587.605    496.846
 49.770   1108.000   1122.831    -14.831    496.839   1039.902    496.839    579.644    496.839
 49.870   1484.000   1446.212     37.788    496.834   1375.178    496.834    567.704    496.834
 49.970   1841.000   1844.903     -3.903    496.830   1786.948    496.830    554.606    496.830
 50.070   2222.000   2236.068    -14.068    496.827   2190.429    496.827    542.323    496.827
 50.170   2527.000   2493.734     33.266    496.826   2458.652    496.826    531.859    496.826
 50.270   2562.603   2509.248     53.355    496.826   2482.618    496.826    523.528    496.826
 50.370   2319.000   2271.957     47.043    496.827   2251.716    496.827    517.231    496.827
 50.470   1948.000   1879.758     68.242    496.830   1864.131    496.830    512.653    496.830
 50.570   1460.000   1463.306     -3.306    496.834   1450.913    496.834    509.406    496.834
 50.670   1018.000   1116.908    -98.908    496.839   1106.762    496.839    507.123    496.839
 50.770    825.019    878.006    -52.987    496.846    869.443    496.846    505.503    496.846
 50.870    706.000    738.442    -32.442    496.854    731.034    496.854    504.326    496.854
 50.970    664.547    667.931     -3.384    496.863    661.398    496.863    503.443    496.863
 51.070    636.325    634.464      1.861    496.873    628.618    496.873    502.759    496.873
 51.170    581.000    615.131    -34.131    496.885    609.836    496.885    502.214    496.885
 51.270    601.000    598.650      2.350    496.898    593.806    496.898    501.770    496.898
 51.370    574.000    582.385     -8.385    496.912    577.916    496.912    501.404    496.912
 51.470    589.000    567.379     21.621    496.927    563.224    496.927    501.100    496.927
 51.570    611.000    555.024     55.976    496.944    551.134    496.944    500.846    496.944
 51.670    557.466    545.936     11.529    496.962    542.273    496.962    500.633    496.962
 51.770    538.000    539.935     -1.935    496.981    536.466    496.981    500.455    496.981
 51.870    525.000    536.394    -11.394    497.001    533.091    497.001    500.307    497.001
 51.970    560.255    534.615     25.640    497.023    531.455    497.023    500.185    497.023
 52.070    514.939    534.068    -19.129    497.046    531.030    497.046    500.085    497.046
 52.170    588.000    534.462     53.538    497.069    531.530    497.069    500.004    497.069
 52.270    552.932    535.747     17.185    497.095    532.903    497.095    499.940    497.095
 52.370    518.621    538.138    -19.517    497.121    535.369    497.121    499.891    497.121
 52.470    566.957    542.275     24.681    497.148    539.569    497.148    499.856    497.148
 52.570    568.578    549.579     18.999    497.177    546.923    497.177    499.833    497.177
 52.670    577.000    562.787     14.213    497.207    560.172    497.207    499.822    497.207
 52.770    555.758    586.474    -30.717    497.238    583.890    497.238    499.820    497.238
 52.870    606.000    627.011    -21.011    497.270    624.449    497.270    499.829    497.270
 52.970    681.000    691.241    -10.241    497.303    688.693    497.303    499.846    497.303
 53.070    802.836    783.450     19.386    497.338    780.909    497.338    499.871    497.338
 53.170    941.000    901.103     39.897    497.373    898.564    497.373    499.905    497.373
 53.270   1017.000   1030.769    -13.769    497.410   1028.228    497.410    499.947    497.410
 53.370   1124.000   1146.208    -22.208    497.447   1143.663    497.447    499.996    497.447
 53.470   1174.000   1213.037    -39.037    497.486   1210.487    497.486    500.052    497.486
 53.570   1199.000   1205.999     -6.999    497.526   1203.438    497.526    500.116    497.526
 53.670   1073.708   1128.279    -54.571    497.567   1125.696    497.567    500.187    497.567
 53.770    980.380   1008.524    -28.144    497.609   1005.905    497.609    500.265    497.609
 53.870    860.000    880.269    -20.269    497.652    877.603    497.652    500.350    497.652
 53.970    733.000    767.387    -34.387    497.696    764.666    497.696    500.442    497.696
 54.070    693.000    681.066     11.934    497.741    678.282    497.741    500.543    497.741
 54.170    576.655    622.266    -45.611    497.788    619.414    497.788    500.650    497.788
 54.270    614.000    585.962     28.038    497.835    583.038    497.835    500.766    497.835
 54.370    556.725    565.252     -8.527    497.883    562.250    497.883    500.890    497.883
 54.470    636.000    554.064     81.936    497.932    550.976    497.932    501.023    497.932
 54.570    566.000    548.188     17.812    497.983    545.008    497.983    501.165    497.983
 54.670    564.843    545.168     19.674    498.034    541.888    498.034    501.316    498.034
 54.770    510.241    543.750    -33.509    498.086    540.359    498.086    501.478    498.086
 54.870    589.063    543.354     45.709    498.139    539.844    498.139    501.651    498.139
 54.970    557.000    543.739     13.261    498.194    540.098    498.194    501.836    498.194
 55.070    577.000    544.816     32.184    498.249    541.033    498.249    502.033    498.249
 55.170    585.000    546.575     38.425    498.305    542.636    498.305    502.244    498.305
 55.270    590.000    549.055     40.945    498.362    544.946    498.362    502.471    498.362
 55.370    585.619    552.350     33.270    498.420    548.056    498.420    502.713    498.420
 55.470    582.000    556.632     25.368    498.479    552.137    498.479    502.974    498.479
 55.570    557.000    562.234     -5.234    498.539    557.518    498.539    503.255    498.539
 55.670    576.194    569.846      6.348    498.599    564.887    498.599    503.558    498.599
 55.770    569.035    580.956    -11.921    498.661    575.730    498.661    503.885    498.661
 55.870    611.000    598.687     12.313    498.723    593.168    498.723    504.240    498.723
 55.970    635.128    629.093      6.035    498.787    623.249    498.787    504.625    498.787
 56.070    641.000    682.628    -41.628    498.851    676.421    498.851    505.045    498.851
 56.170    739.845    774.823    -34.977    498.916    768.212    498.916    505.504    498.916
 56.270    924.089    924.557     -0.468    498.982    917.494    498.982    506.007    498.982
 56.370   1175.350   1148.385     26.965    499.049   1140.820    499.049    506.561    499.049
 56.470   1362.000   1450.979    -88.979    499.117   1442.858    499.117    507.174    499.117
 56.570   1788.000   1814.329    -26.329    499.185   1805.601    499.185    507.853    499.185
 56.670   2235.923   2190.001     45.922    499.254   2180.610    499.254    508.610    499.254
 56.770   2430.086   2499.498    -69.412    499.324   2489.384    499.324    509.459    499.324
 56.870   2654.000   2653.330      0.670    499.395   2642.412    499.395    510.416    499.395
 56.970   2558.765   2597.874    -39.110    499.467   2586.027    499.467    511.500    499.467
 57.070   2294.005   2355.013    -61.007    499.539   2342.052    499.539    512.739    499.539
 57.170   2055.606   2003.860     51.746    499.612   1989.552    499.612    514.169    499.612
 57.270   1636.000   1631.307      4.693    499.686   1615.375    499.686    515.842    499.686
 57.370   1299.000   1300.665     -1.665    499.761   1282.767    499.761    517.837    499.761
 57.470    989.723   1043.890    -54.167    499.837   1023.581    499.837    520.274    499.837
 57.570    956.000    866.165     89.835    499.913    842.818    499.913    523.344    499.913
 57.670    794.000    755.924     38.076    499.990    728.623    499.990    527.340    499.990
 57.770    770.000    695.604     74.396    500.067    662.996    500.067    532.701    500.067
 57.870    697.000    669.508     27.492    500.146    629.621    500.146    540.043    500.146
 57.970    690.000    667.490     22.510    500.224    617.540    500.224    550.173    500.224
 58.070    718.000    685.292     32.708    500.304    621.528    500.304    564.057    500.304
 58.170    701.000    722.993    -21.993    500.384    640.638    500.384    582.717    500.384
 58.270    747.000    782.702    -35.702    500.465    676.085    500.465    607.048    500.465
 58.370    821.000    866.126    -45.126    500.547    729.064    500.547    637.562    500.547
 58.470    948.963    972.342    -23.379    500.629    798.852    500.629    674.062    500.629
 58.570   1100.262   1096.008      4.254    500.712    881.427    500.712    715.231    500.712
 58.670   1164.000   1226.592    -62.592    500.796    969.217    500.796    758.110    500.796
 58.770   1357.000   1349.439      7.561    500.880   1052.711    500.880    797.557    500.880
 58.870   1469.000   1448.914     20.086    500.965   1123.459    500.965    826.385    500.965
 58.970   1439.074   1511.088    -72.014    501.050   1174.666    501.050    837.457    501.050
 59.070   1592.000   1526.043     65.957    501.136   1199.626    501.136    827.559    501.136
 59.170   1492.980   1492.325      0.655    501.223   1193.924    501.223    799.644    501.223
 59.270   1479.194   1420.524     58.670    501.310   1161.111    501.310    760.747    501.310
 59.370   1404.000   1330.075     73.925    501.397   1113.385    501.397    718.102    501.397
 59.470   1316.000   1241.514     74.486    501.485   1066.031    501.485    676.959    501.485
 59.570   1138.121   1172.337    -34.216    501.574   1033.491    501.574    640.376    501.574
 59.670   1177.000   1137.541     39.459    501.663   1029.377    501.663    609.740    501.663
 59.770   1202.000   1148.710     53.290    501.753   1065.028    501.753    585.295    501.753
 59.870   1296.000   1209.152     86.848    501.843   1144.240    501.843    566.559    501.843
 59.970   1239.703   1309.154    -69.451    501.934   1258.190    501.934    552.650    501.934
 60.070   1473.000   1424.647     48.353    502.025   1383.837    502.025    542.548    502.025
 60.170   1556.489   1520.024     36.466    502.117   1486.558    502.117    535.283    502.117
 60.270   1558.000   1557.643      0.357    502.209   1529.535    502.209    530.041    502.209
 60.370   1512.000   1515.570     -3.570    502.302   1491.451    502.302    526.198    502.302
 60.470   1495.000   1400.813     94.187    502.395   1379.740    502.395    523.310    502.395
 60.570   1251.965   1242.424      9.540    502.488   1223.731    502.488    521.084    502.488
 60.670   1094.870   1074.026     20.844    502.582   1057.225    502.582    519.331    502.582
 60.770    929.000    921.878      7.122    502.676    906.596    502.676    517.935    502.676
 60.870    738.000    800.827    -62.827    502.771    786.762    502.771    516.827    502.771
 60.970    709.000    715.095     -6.095    502.866    701.990    502.866    515.966    502.866
 61.070    682.000    661.798     20.202    502.961    649.425    502.961    515.327    502.961
 61.170    667.000    635.393     31.607    503.057    623.547    503.057    514.890    503.057
 61.270    667.000    631.415     35.585    503.153    619.908    503.153    514.639    503.153
 61.370    600.763    648.538    -47.775    503.250    637.204    503.250    514.551    503.250
 61.470    668.327    688.748    -20.421    503.347    677.450    503.347    514.594    503.347
 61.570    758.422    755.799      2.623    503.444    744.450    503.444    514.719    503.444
 61.670    859.000    852.341      6.659    503.542    840.927    503.542    514.852    503.542
 61.770   1012.000    976.416     35.584    503.639    965.019    503.639    514.901    503.639
 61.870   1122.000   1118.396      3.604    503.738   1107.194    503.738    514.776    503.738
 61.970   1234.000   1259.462    -25.462    503.836   1248.688    503.836    514.428    503.836
 62.070   1435.955   1372.822     63.133    503.935   1362.701    503.935    513.874    503.935
 62.170   1476.018   1430.073     45.945    504.034   1420.762    504.034    513.187    504.034
 62.270   1371.000   1414.009    -43.009    504.133   1405.575    504.133    512.450    504.133
 62.370   1281.353   1329.328    -47.974    504.232   1321.758    504.232    511.731    504.232
 62.470   1178.000   1199.283    -21.283    504.332   1192.507    504.332    511.075    504.332
 62.570   1036.000   1052.653    -16.653    504.432   1046.573    504.432    510.505    504.432
 62.670    879.000    913.381    -34.381    504.532    907.891    504.532    510.029    504.532
 62.770    845.749    796.463     49.286    504.632    791.464    504.632    509.644    504.632
 62.870    666.880    707.841    -40.961    504.733    703.243    504.733    509.342    504.733
 62.970    595.563    646.453    -50.889    504.834    642.183    504.834    509.110    504.834
 63.070    541.000    607.244    -66.244    504.935    603.244    504.935    508.937    504.935
 63.170    584.829    584.006      0.823    505.036    580.232    505.036    508.809    505.036
 63.270    578.000    571.297      6.703    505.137    567.715    505.137    508.716    505.137
 63.370    555.791    565.310     -9.518    505.238    561.892    505.238    508.650    505.238
 63.470    517.962    563.996    -46.034    505.340    560.723    505.340    508.605    505.340
 63.570    542.700    566.860    -24.160    505.441    563.715    505.441    508.576    505.441
 63.670    588.000    574.686     13.314    505.543    571.654    505.543    508.561    505.543
 63.770    616.000    589.262     26.738    505.645    586.330    505.645    508.556    505.645
 63.870    630.000    613.008     16.992    505.747    610.163    505.747    508.561    505.747
 63.970    629.602    648.352    -18.750    505.849    645.582    505.849    508.574    505.849
 64.070    714.000    696.821     17.179    505.951    694.115    505.951    508.594    505.951
 64.170    758.000    757.943      0.057    506.053    755.292    506.053    508.620    506.053
 64.270    880.000    828.228     51.772    506.155    825.625    506.155    508.653    506.155
 64.370    921.629    900.509     21.120    506.257    897.953    506.257    508.691    506.257
 64.470    956.000    964.189     -8.189    506.359    961.683    506.359    508.734    506.359
 64.570   1084.000   1007.476     76.524    506.462   1005.026    506.462    508.781    506.462
 64.670   1032.000   1021.984     10.016    506.564   1019.599    506.564    508.833    506.564
 64.770   1051.000   1006.494     44.506    506.666   1004.179    506.666    508.889    506.666
 64.870    964.236    966.464     -2.229    506.768    964.221    506.768    508.948    506.768
 64.970    953.000    911.066     41.934    506.871    908.890    506.871    509.010    506.871
 65.070    880.302    850.160     30.142    506.973    848.045    506.973    509.076    506.973
 65.170    736.391    791.645    -55.254    507.075    789.582    507.075    509.145    507.075
 65.270    727.069    739.998    -12.929    507.177    737.977    507.177    509.217    507.177
 65.370    718.000    696.557     21.443    507.279    694.569    507.279    509.291    507.279
 65.470    664.000    660.946      3.054    507.381    658.984    507.381    509.368    507.381
 65.570    644.000    632.354     11.646    507.483    630.412    507.483    509.448    507.483
 65.670    642.403    609.960     32.443    507.584    608.033    507.584    509.529    507.584
 65.770    600.007    592.927      7.080    507.686    591.012    507.686    509.614    507.686
 65.870    592.000    580.423     11.577    507.788    578.518    507.788    509.700    507.788
 65.970    547.000    571.677    -24.677    507.889    569.781    507.889    509.788    507.889
 66.070    562.607    566.000     -3.393    507.990    564.112    507.990    509.879    507.990
 66.170    551.000    562.793    -11.793    508.091    560.913    508.091    509.971    508.091
 66.270    534.000    561.564    -27.564    508.192    559.690    508.192    510.066    508.192
 66.370    542.000    561.949    -19.949    508.293    560.080    508.293    510.162    508.293
 66.470    593.000    563.758     29.242    508.394    561.891    508.394    510.261    508.394
 66.570    558.000    567.032     -9.032    508.494    565.165    508.494    510.361    508.494
 66.670    558.000    572.159    -14.159    508.594    570.290    508.594    510.463    508.594
 66.770    603.634    580.077     23.557    508.694    578.204    508.694    510.568    508.694
 66.870    583.000    592.610     -9.610    508.794    590.730    508.794    510.674    508.794
 66.970    592.000    612.933    -20.933    508.894    611.042    508.894    510.782    508.894
 67.070    622.000    646.056    -24.056    508.993    644.152    508.993    510.893    508.993
 67.170    668.000    699.106    -31.106    509.092    697.184    509.092    511.005    509.092
 67.270    777.939    781.007     -3.068    509.191    779.064    509.191    511.120    509.191
 67.370    932.328    901.181     31.147    509.290    899.215    509.290    511.237    509.290
 67.470   1092.954   1067.043     25.911    509.388   1065.054    509.388    511.356    509.388
 67.570   1325.379   1280.545     44.833    509.486   1278.538    509.486    511.478    509.486
 67.670   1513.000   1534.552    -21.552    509.583   1532.534    509.583    511.602    509.583
 67.770   1868.272   1810.093     58.179    509.681   1808.076    509.681    511.730    509.681
 67.870   2104.000   2075.520     28.480    509.778   2073.518    509.778    511.859    509.778
 67.970   2372.670   2288.992     83.678    509.875   2287.016    509.875    511.992    509.875
 68.070   2441.000   2407.253     33.747    509.971   2405.307    509.971    512.129    509.971
 68.170   2342.595   2401.982    -59.387    510.067   2400.055    510.067    512.269    510.067
 68.270   2242.566   2274.621    -32.056    510.163   2272.685    510.163    512.412    510.163
 68.370   2083.000   2055.483     27.517    510.258   2053.502    510.258    512.560    510.258
 68.470   1823.000   1788.181     34.819    510.353   1786.122    510.353    512.711    510.353
 68.570   1553.000   1513.880     39.120    510.447   1511.718    510.447    512.868    510.447
 68.670   1342.000   1263.182     78.818    510.541   1260.903    510.541    513.030    510.541
 68.770   1070.000   1053.993     16.007    510.635   1051.591    510.635    513.197    510.635
 68.870    899.019    892.563      6.456    510.728    890.035    510.728    513.371    510.728
 68.970    790.000    776.337     13.663    510.821    773.686    510.821    513.551    510.821
 69.070    712.570    697.618     14.952    510.914    694.845    510.914    513.738    510.914
 69.170    658.249    646.951     11.298    511.006    644.057    511.006    513.934    511.006
 69.270    625.000    615.529      9.471    511.097    612.510    511.097    514.139    511.097
 69.370    626.174    596.396     29.778    511.188    593.245    511.188    514.353    511.188
 69.470    587.811    584.689      3.121    511.279    581.398    511.279    514.579    511.279
 69.570    578.000    577.335      0.665    511.369    573.893    511.369    514.817    511.369
 69.670    590.753    572.541     18.212    511.458    568.935    511.458    515.069    511.458
 69.770    570.000    569.332      0.668    511.547    565.546    511.547    515.337    511.547
 69.870    588.643    567.204     21.440    511.636    563.219    511.636    515.623    511.636
 69.970    531.000    565.905    -34.905    511.724    561.702    511.724    515.928    511.724
 70.070    563.000    565.319     -2.319    511.812    560.875    511.812    516.256    511.812
 70.170    609.110    565.413     43.697    511.898    560.701    511.898    516.610    511.898
 70.270    606.000    566.218     39.782    511.985    561.208    511.985    516.994    511.985
 70.370    582.000    567.854     14.146    512.071    562.511    512.071    517.411    512.071
 70.470    559.016    570.584    -11.568    512.156    564.869    512.156    517.867    512.156
 70.570    528.000    574.921    -46.921    512.241    568.786    512.241    518.370    512.241
 70.670    595.000    581.789     13.211    512.325    575.176    512.325    518.929    512.325
 70.770    555.000    592.751    -37.751    512.408    585.592    512.408    519.555    512.408
 70.870    638.180    610.269     27.911    512.491    602.478    512.491    520.263    512.491
 70.970    643.000    637.907      5.093    512.573    629.371    512.573    521.080    512.573
 71.070    647.000    680.352    -33.352    512.655    670.923    512.655    522.040    512.655
 71.170    728.224    743.042    -14.818    512.736    732.512    512.736    523.203    512.736
 71.270    885.000    831.279     53.720    512.816    819.353    512.816    524.655    512.816
 71.370    960.000    948.795     11.205    512.896    935.044    512.896    526.530    512.896
 71.470   1030.000   1095.953    -65.953    512.975   1079.755    512.975    529.025    512.975
 71.570   1240.000   1267.991    -27.991    513.053   1248.453    513.053    532.412    513.053
 71.670   1413.000   1453.779    -40.779    513.131   1429.653    513.131    537.053    513.131
 71.770   1607.000   1635.499    -28.499    513.208   1605.096    513.208    543.395    513.208
 71.870   1810.000   1789.842     20.158    513.284   1750.972    513.284    551.940    513.284
 71.970   1812.732   1891.984    -79.252    513.360   1841.952    513.360    563.198    513.360
 72.070   1964.849   1923.363     41.486    513.435   1859.046    513.435    577.594    513.435
 72.170   1897.652   1880.218     17.435    513.509   1798.253    513.509    595.355    513.509
 72.270   1823.000   1775.694     47.306    513.582   1672.806    513.582    616.389    513.582
 72.370   1702.000   1633.088     68.912    513.655   1506.544    513.655    640.147    513.655
 72.470   1488.993   1476.569     12.425    513.727   1324.765    513.727    665.499    513.727
 72.570   1278.000   1325.258    -47.258    513.798   1148.422    513.798    690.615    513.798
 72.670   1177.000   1191.000    -14.000    513.868    991.932    513.868    712.924    513.868
 72.770   1018.000   1078.387    -60.387    513.938    862.972    513.938    729.342    513.938
 72.870    878.000    986.407   -108.407    514.006    763.401    514.006    737.001    514.006
 72.970    863.371    911.180    -47.809    514.074    690.862    514.074    734.381    514.074
 73.070    859.405    848.557     10.848    514.141    640.638    514.141    722.050    514.141
 73.170    831.742    795.461     36.281    514.208    607.293    514.208    702.366    514.208
 73.270    691.000    749.971    -58.971    514.273    585.821    514.273    678.415    514.273
 73.370    694.693    710.957    -16.264    514.338    572.229    514.338    653.059    514.338
 73.470    723.364    677.767     45.597    514.402    563.676    514.402    628.489    514.402
 73.570    625.000    650.028    -25.028    514.465    558.326    514.465    606.164    514.465
 73.670    626.000    627.478     -1.478    514.527    555.102    514.527    586.904    514.527
 73.770    561.493    609.834    -48.342    514.588    553.419    514.588    571.008    514.588
 73.870    564.000    596.709    -32.709    514.649    552.976    514.649    558.390    514.649
 73.970    585.000    587.579     -2.579    514.708    553.595    514.708    548.705    514.708
 74.070    604.000    581.796     22.204    514.767    555.106    514.767    541.476    514.767
 74.170    588.134    578.620      9.514    514.825    557.281    514.825    536.187    514.825
 74.270    602.000    577.246     24.754    514.881    559.796    514.881    532.362    514.881
 74.370    614.000    576.841     37.159    514.937    562.220    514.937    529.594    514.937
 74.470    632.000    576.587     55.413    514.992    564.051    514.992    527.570    514.992
 74.570    679.000    575.771    103.229    515.047    564.805    515.047    526.057    515.047
 74.670    678.000    573.930    104.070    515.100    564.182    515.100    524.892    515.100
 74.770    608.000    570.967     37.033    515.152    562.193    515.152    523.968    515.152
 74.870    610.000    567.141     42.859    515.203    559.170    515.203    523.213    515.203
 74.970    587.329    562.923     24.406    515.253    555.628    515.253    522.581    515.253
 75.070    623.000    558.846     64.154    515.303    552.132    515.303    522.043    515.303
 75.170    537.862    555.432    -17.570    515.351    549.224    515.351    521.579    515.351
 75.270    570.000    553.172     16.828    515.398    547.409    515.398    521.175    515.398
 75.370    504.765    552.548    -47.783    515.445    547.179    515.445    520.820    515.445
 75.470    546.450    554.054     -7.604    515.490    549.038    515.490    520.508    515.490
 75.570    544.079    558.208    -14.130    515.535    553.506    515.535    520.232    515.535
 75.670    551.000    565.522    -14.522    515.578    561.102    515.578    519.987    515.578
 75.770    599.000    576.420     22.580    515.620    572.253    515.620    519.770    515.620
 75.870    625.374    591.106     34.267    515.662    587.168    515.662    519.575    515.662
 75.970    631.000    609.402     21.598    515.702    605.668    515.702    519.402    515.702
 76.070    621.000    630.586     -9.586    515.741    627.038    515.741    519.246    515.741
 76.170    624.000    653.292    -29.292    515.779    649.914    515.779    519.106    515.779
 76.270    670.000    675.482     -5.482    515.817    672.259    515.817    518.980    515.817
 76.370    677.319    694.543    -17.223    515.853    691.464    515.853    518.867    515.853
 76.470    676.000    707.616    -31.616    515.888    704.674    515.888    518.764    515.888
 76.570    705.000    712.309     -7.309    515.922    709.495    515.922    518.672    515.922
 76.670    727.546    707.620     19.926    515.955    704.929    515.955    518.588    515.955
 76.770    726.000    694.429     31.571    515.986    691.855    515.986    518.511    515.986
 76.870    717.165    675.057     42.108    516.017    672.592    516.017    518.442    516.017
 76.970    614.000    652.338    -38.338    516.047    649.975    516.047    518.379    516.047
 77.070    621.029    628.892     -7.863    516.075    626.624    516.075    518.321    516.075
 77.170    560.326    606.767    -46.440    516.103    604.585    516.103    518.268    516.103
 77.270    528.000    587.326    -59.326    516.129    585.225    516.129    518.219    516.129
 77.370    542.000    571.265    -29.265    516.154    569.237    516.154    518.174    516.154
 77.470    580.165    558.706     21.459    516.178    556.746    516.178    518.133    516.178
 77.570    562.000    549.361     12.639    516.201    547.463    516.201    518.095    516.201
 77.670    517.078    542.704    -25.626    516.222    540.865    516.222    518.060    516.222
 77.770    513.039    538.131    -25.093    516.243    536.346    516.243    518.027    516.243
 77.870    534.484    535.073     -0.590    516.262    533.338    516.262    517.996    516.262
 77.970    525.000    533.057     -8.057    516.281    531.368    516.281    517.968    516.281
 78.070    526.200    531.726     -5.526    516.298    530.081    516.298    517.941    516.298
 78.170    506.878    530.832    -23.954    516.314    529.229    516.314    517.916    516.314
 78.270    529.000    530.200     -1.200    516.328    528.635    516.328    517.892    516.328
 78.370    520.783    529.747     -8.964    516.342    528.218    516.342    517.870    516.342
 78.470    543.000    529.451     13.549    516.354    527.956    516.354    517.849    516.354
 78.570    530.444    529.266      1.178    516.365    527.801    516.365    517.829    516.365
 78.670    550.086    529.181     20.905    516.375    527.745    516.375    517.810    516.375
 78.770    527.000    529.207     -2.207    516.384    527.798    516.384    517.793    516.384
 78.870    506.000    529.362    -23.362    516.392    527.976    516.392    517.776    516.392
 78.970    502.000    529.668    -27.668    516.398    528.303    516.398    517.762    516.398
 79.070    471.000    530.157    -59.157    516.403    528.809    516.403    517.749    516.403
 79.170    515.764    530.860    -15.096    516.407    529.526    516.407    517.739    516.407
 79.270    511.246    531.811    -20.565    516.409    530.486    516.409    517.732    516.409
 79.370    532.878    533.040     -0.162    516.411    531.719    516.411    517.729    516.411
 79.470    510.000    534.578    -24.578    516.411    533.255    516.411    517.731    516.411
 79.570    554.000    536.463     17.537    516.410    535.131    516.410    517.737    516.410
 79.670    581.000    538.752     42.248    516.408    537.404    516.408    517.750    516.408
 79.770    537.014    541.538     -4.523    516.404    540.167    516.404    517.769    516.404
 79.870    528.000    544.971    -16.971    516.399    543.570    516.399    517.794    516.399
 79.970    558.692    549.287      9.405    516.393    547.848    516.393    517.826    516.393
 80.070    566.283    554.825     11.457    516.385    553.344    516.385    517.863    516.385
 80.170    530.550    562.034    -31.484    516.377    560.505    516.377    517.903    516.377
 80.270    573.000    571.415      1.585    516.367    569.837    516.367    517.943    516.367
 80.370    578.000    583.421     -5.421    516.355    581.798    516.355    517.980    516.355
 80.470    549.000    598.340    -49.340    516.343    596.679    516.343    518.009    516.343
 80.570    567.000    616.179    -49.179    516.329    614.494    516.329    518.023    516.329
 80.670    615.000    636.580    -21.580    516.314    634.890    516.314    518.018    516.314
 80.770    658.000    658.776     -0.776    516.297    657.102    516.297    517.991    516.297
 80.870    678.000    681.616     -3.616    516.280    679.979    516.280    517.942    516.280
 80.970    638.000    703.688    -65.688    516.261    702.108    516.261    517.873    516.261
 81.070    732.622    723.521      9.101    516.240    722.011    516.240    517.790    516.240
 81.170    730.000    739.781     -9.781    516.218    738.348    516.218    517.698    516.218
 81.270    754.900    751.392      3.508    516.195    750.037    516.195    517.603    516.195
 81.370    711.808    757.624    -45.816    516.171    756.347    516.171    517.507    516.171
 81.470    768.000    758.182      9.818    516.145    756.976    516.145    517.414    516.145
 81.570    773.000    753.213     19.787    516.118    752.072    516.118    517.326    516.118
 81.670    723.000    743.254    -20.254    516.090    742.170    516.090    517.244    516.090
 81.770    747.000    729.199     17.801    516.060    728.161    516.060    517.167    516.060
 81.870    729.877    712.253     17.624    516.029    711.255    516.029    517.096    516.029
 81.970    668.023    693.772    -25.749    515.997    692.804    515.997    517.031    515.997
 82.070    707.000    674.978     32.022    515.963    674.035    515.963    516.970    515.963
 82.170    648.000    656.744     -8.744    515.928    655.819    515.928    516.912    515.928
 82.270    649.000    639.545      9.455    515.892    638.635    515.892    516.858    515.892
 82.370    655.000    623.575     31.425    515.854    622.675    515.854    516.805    515.854
 82.470    577.651    608.919    -31.269    515.815    608.026    515.815    516.754    515.815
 82.570    610.209    595.692     14.517    515.774    594.802    515.774    516.704    515.774
 82.670    585.000    584.057      0.943    515.732    583.169    515.732    516.654    515.732
 82.770    540.062    574.197    -34.135    515.689    573.309    515.689    516.603    515.689
 82.870    569.000    566.272      2.728    515.645    565.382    515.645    516.553    515.645
 82.970    541.000    560.402    -19.402    515.599    559.510    515.599    516.502    515.599
 83.070    583.217    556.656     26.561    515.551    555.761    515.551    516.450    515.551
 83.170    586.484    555.028     31.457    515.503    554.129    515.503    516.398    515.503
 83.270    511.000    555.416    -44.416    515.452    554.512    515.452    516.345    515.452
 83.370    533.000    557.605    -24.605    515.401    556.697    515.401    516.291    515.401
 83.470    566.716    561.254      5.462    515.348    560.341    515.348    516.236    515.348
 83.570    507.000    565.896    -58.896    515.294    564.978    515.294    516.180    515.294
 83.670    537.291    570.954    -33.663    515.238    570.031    515.238    516.123    515.238
 83.770    596.000    575.765     20.235    515.181    574.838    515.181    516.065    515.181
 83.870    572.000    579.636     -7.636    515.123    578.707    515.123    516.006    515.123
 83.970    619.399    581.934     37.465    515.063    581.004    515.063    515.946    515.063
 84.070    594.990    582.214     12.777    515.002    581.285    515.002    515.885    515.002
 84.170    565.000    580.340    -15.340    514.939    579.414    514.939    515.823    514.939
 84.270    606.000    576.522     29.478    514.875    575.598    514.875    515.759    514.875
 84.370    549.000    571.222    -22.222    514.810    570.302    514.810    515.695    514.810
 84.470    589.000    565.019     23.981    514.743    564.103    514.743    515.630    514.743
 84.570    577.851    558.482     19.369    514.675    557.570    514.675    515.564    514.675
 84.670    518.454    552.099    -33.645    514.606    551.189    514.606    515.496    514.606
 84.770    565.000    546.239     18.761    514.535    545.331    514.535    515.428    514.535
 84.870    526.000    541.143    -15.143    514.462    540.236    514.462    515.358    514.462
 84.970    542.000    536.926      5.074    514.388    536.018    514.388    515.287    514.388
 85.070    488.328    533.600    -45.273    514.313    532.691    514.313    515.216    514.313
 85.170    551.000    531.104     19.896    514.237    530.192    514.237    515.143    514.237
 85.270    527.000    529.330     -2.330    514.159    528.415    514.159    515.069    514.159
 85.370    567.578    528.159     39.419    514.079    527.240    514.079    514.994    514.079
 85.470    546.000    527.481     18.519    513.999    526.557    513.999    514.918    513.999
 85.570    527.418    527.212      0.206    513.917    526.283    513.917    514.841    513.917
 85.670    567.331    527.302     40.029    513.833    526.367    513.833    514.763    513.833
 85.770    510.000    527.742    -17.742    513.748    526.801    513.748    514.683    513.748
 85.870    513.000    528.569    -15.569    513.662    527.620    513.662    514.603    513.662
 85.970    548.000    529.860     18.140    513.574    528.903    513.574    514.522    513.574
 86.070    525.744    531.738     -5.993    513.485    530.770    513.485    514.440    513.485
 86.170    519.000    534.357    -15.357    513.394    533.379    513.394    514.356    513.394
 86.270    522.000    537.900    -15.900    513.302    536.910    513.302    514.272    513.302
 86.370    503.425    542.551    -39.125    513.209    541.546    513.209    514.187    513.209
 86.470    531.000    548.472    -17.472    513.114    547.451    513.114    514.101    513.114
 86.570    596.000    555.766     40.234    513.018    554.728    513.018    514.014    513.018
 86.670    578.000    564.440     13.560    512.921    563.381    512.921    513.926    512.921
 86.770    576.162    574.357      1.806    512.822    573.277    512.822    513.837    512.822
 86.870    599.000    585.212     13.788    512.722    584.110    512.722    513.747    512.722
 86.970    562.517    596.513    -33.997    512.620    595.388    512.620    513.656    512.620
 87.070    579.000    607.571    -28.571    512.517    606.424    512.517    513.565    512.517
 87.170    616.000    617.569     -1.569    512.412    616.401    512.412    513.472    512.412
 87.270    647.000    625.600     21.400    512.307    624.414    512.307    513.379    512.307
 87.370    630.000    630.807     -0.807    512.199    629.606    512.199    513.285    512.199
 87.470    635.000    632.599      2.401    512.091    631.387    512.091    513.190    512.091
 87.570    618.817    630.821    -12.005    511.981    629.601    511.981    513.095    511.981
 87.670    640.000    625.798     14.202    511.869    624.573    511.869    512.999    511.869
 87.770    682.000    618.233     63.767    511.757    617.004    511.757    512.903    511.757
 87.870    646.000    609.035     36.965    511.643    607.802    511.643    512.806    511.643
 87.970    564.745    599.166    -34.421    511.527    597.929    511.527    512.708    511.527
 88.070    606.000    589.540     16.460    511.410    588.297    511.410    512.610    511.410
 88.170    596.000    580.948     15.052    511.292    579.697    511.292    512.511    511.292
 88.270    601.000    574.016     26.984    511.173    572.756    511.173    512.413    511.173
 88.370    617.000    569.180     47.820    511.052    567.907    511.052    512.314    511.052
 88.470    629.000    566.669     62.331    510.929    565.382    510.929    512.214    510.929
 88.570    570.000    566.518      3.482    510.806    565.215    510.806    512.115    510.806
 88.670    615.310    568.573     46.737    510.681    567.251    510.681    512.016    510.681
 88.770    583.000    572.510     10.490    510.554    571.169    510.554    511.917    510.554
 88.870    594.000    577.858     16.142    510.427    576.496    510.427    511.818    510.427
 88.970    608.261    584.024     24.237    510.298    582.639    510.298    511.719    510.298
 89.070    574.000    590.321    -16.321    510.167    588.911    510.167    511.621    510.167
 89.170    645.342    596.008     49.334    510.036    594.571    510.036    511.523    510.036
 89.270    569.737    600.355    -30.618    509.903    598.888    509.903    511.427    509.903
 89.370    615.000    602.737     12.263    509.769    601.236    509.769    511.331    509.769
 89.470    571.000    602.753    -31.753    509.633    601.214    509.633    511.236    509.633
 89.570    592.000    600.320     -8.320    509.496    598.737    509.496    511.143    509.496
 89.670    556.613    595.677    -39.064    509.358    594.046    509.358    511.051    509.358
 89.770    575.000    589.308    -14.308    509.218    587.622    509.218    510.962    509.218
 89.870    598.000    581.807     16.193    509.077    580.062    509.077    510.875    509.077
 89.970    614.000    573.775     40.225    508.935    571.966    508.935    510.790    508.935
 90.070    588.000    565.746     22.254    508.792    563.868    508.792    510.709    508.792
 90.170    553.000    558.151     -5.151    508.647    556.200    508.647    510.631    508.647
 90.270    550.112    551.304     -1.191    508.501    549.273    508.501    510.557    508.501
 90.370    586.447    545.395     41.053    508.354    543.280    508.354    510.489    508.354
 90.470    528.346    540.507    -12.162    508.205    538.301    508.205    510.427    508.205
 90.570    553.152    536.635     16.517    508.055    534.328    508.055    510.373    508.055
 90.670    531.517    533.705     -2.188    507.904    531.289    507.904    510.328    507.904
 90.770    558.918    531.611     27.307    507.752    529.072    507.752    510.296    507.752
 90.870    542.027    530.232     11.795    507.598    527.555    507.598    510.278    507.598
 90.970    497.853    529.458    -31.605    507.443    526.622    507.443    510.281    507.443
 91.070    539.134    529.201      9.932    507.287    526.179    507.287    510.309    507.287
 91.170    563.000    529.410     33.590    507.130    526.167    507.130    510.372    507.130
 91.270    536.230    530.073      6.157    506.972    526.565    506.972    510.477    506.972
 91.370    502.000    531.225    -29.225    506.812    527.395    506.812    510.639    506.812
 91.470    570.153    532.944     37.210    506.651    528.717    506.651    510.873    506.651
 91.570    516.000    535.319    -19.319    506.489    530.605    506.489    511.197    506.489
 91.670    548.000    538.591      9.409    506.325    533.276    506.325    511.633    506.325
 91.770    516.988    542.964    -25.976    506.161    536.910    506.161    512.204    506.161
 91.870    551.000    548.658      2.342    505.995    541.702    505.995    512.938    505.995
 91.970    585.000    555.918     29.082    505.828    547.870    505.828    513.858    505.828
 92.070    538.000    564.980    -26.980    505.660    555.627    505.660    514.992    505.660
 92.170    579.000    576.044      2.956    505.491    565.148    505.491    516.359    505.491
 92.270    544.000    589.240    -45.240    505.320    576.551    505.320    517.975    505.320
 92.370    597.000    604.602     -7.602    505.149    589.864    505.149    519.847    505.149
 92.470    637.000    622.042     14.958    504.976    605.002    504.976    521.968    504.976
 92.570    636.000    641.325     -5.325    504.802    621.754    504.802    524.319    504.802
 92.670    651.000    662.059    -11.059    504.627    639.762    504.627    526.863    504.627
 92.770    695.543    683.688     11.854    504.451    658.530    504.451    529.541    504.451
 92.870    747.000    705.509     41.491    504.274    677.436    504.274    532.273    504.274
 92.970    722.811    726.722     -3.911    504.096    695.790    504.096    534.950    504.096
 93.070    738.631    746.532     -7.900    503.917    712.929    503.917    537.438    503.917
 93.170    709.682    764.284    -54.602    503.736    728.357    503.736    539.580    503.736
 93.270    722.000    779.575    -57.575    503.555    741.839    503.555    541.209    503.555
 93.370    785.000    792.283     -7.283    503.372    753.403    503.372    542.172    503.372
 93.470    836.000    802.534     33.466    503.188    763.282    503.188    542.361    503.188
 93.570    866.000    810.619     55.381    503.004    771.806    503.004    541.740    503.004
 93.670    838.000    816.935     21.065    502.818    779.322    502.818    540.357    502.818
 93.770    845.000    821.968     23.032    502.631    786.200    502.631    538.328    502.631
 93.870    788.000    826.313    -38.313    502.443    792.879    502.443    535.809    502.443
 93.970    881.000    830.657     50.343    502.255    799.877    502.255    532.968    502.255
 94.070    830.000    835.688     -5.688    502.065    807.729    502.065    529.959    502.065
 94.170    887.321    841.925     45.397    501.874    816.824    501.874    526.914    501.874
 94.270    898.000    849.544     48.456    501.682    827.232    501.682    523.935    501.682
 94.370    834.000    858.266    -24.266    501.490    838.598    501.490    521.102    501.490
 94.470    865.000    867.329     -2.329    501.296    850.103    501.296    518.469    501.296
 94.570    890.718    875.549     15.169    501.101    860.531    501.101    516.071    501.101
 94.670    869.966    881.458    -11.492    500.906    868.396    500.906    513.925    500.906
 94.770    940.000    883.522     56.478    500.709    872.159    500.709    512.037    500.709
 94.870    883.521    880.429      3.092    500.512    870.517    500.512    510.397    500.512
 94.970    872.228    871.404      0.824    500.313    862.708    500.313    508.991    500.313
 95.070    865.000    856.414      8.586    500.114    848.723    500.114    507.795    500.114
 95.170    915.000    836.196     78.804    499.914    829.322    499.914    506.785    499.914
 95.270    773.720    812.090    -38.369    499.713    805.870    499.713    505.936    499.713
 95.370    813.000    785.803     27.197    499.511    780.100    499.511    505.220    499.511
 95.470    758.907    759.188     -0.281    499.309    753.889    499.309    504.617    499.309
 95.570    773.236    734.088     39.147    499.105    729.099    499.105    504.103    499.105
 95.670    696.859    712.236    -15.377    498.901    707.482    498.901    503.662    498.901
 95.770    699.000    695.185      3.815    498.696    690.606    498.696    503.278    498.696
 95.870    711.000    684.342     26.658    498.490    679.890    498.490    502.939    498.490
 95.970    670.000    680.877    -10.877    498.283    676.513    498.283    502.637    498.283
 96.070    649.229    685.761    -36.532    498.075    681.455    498.075    502.364    498.075
 96.170    661.267    699.773    -38.506    497.867    695.499    497.867    502.115    497.867
 96.270    688.109    723.478    -35.369    497.658    719.214    497.658    501.885    497.658
 96.370    770.784    757.185     13.599    497.448    752.914    497.448    501.672    497.448
 96.470    842.926    800.880     42.046    497.238    796.585    497.238    501.474    497.238
 96.570    886.151    854.134     32.017    497.027    849.801    497.027    501.289    497.027
 96.670    936.000    916.015     19.985    496.815    911.631    496.815    501.117    496.815
 96.770   1003.410    984.984     18.426    496.602    980.538    496.602    500.957    496.602
 96.870   1054.000   1058.855     -4.855    496.389   1054.336    496.389    500.810    496.389
 96.970   1176.546   1134.773     41.773    496.175   1130.171    496.175    500.674    496.175
 97.070   1197.081   1209.254    -12.173    495.960   1204.560    495.960    500.551    495.960
 97.170   1280.521   1278.302      2.220    495.745   1273.507    495.745    500.440    495.745
 97.270   1384.000   1337.641     46.359    495.529   1332.736    495.529    500.343    495.529
 97.370   1343.000   1383.123    -40.123    495.313   1378.099    495.313    500.260    495.313
 97.470   1374.000   1411.306    -37.306    495.096   1406.150    495.096    500.192    495.096
 97.570   1431.000   1420.079     10.921    494.878   1414.776    494.878    500.141    494.878
 97.670   1387.798   1409.083    -21.285    494.660   1403.616    494.660    500.108    494.660
 97.770   1386.000   1379.735      6.265    494.442   1374.082    494.442    500.097    494.442
 97.870   1390.971   1334.854     56.117    494.222   1328.987    494.222    500.109    494.222
 97.970   1256.000   1278.101    -22.101    494.003   1271.987    494.003    500.150    494.003
 98.070   1235.000   1213.475     21.525    493.782   1207.078    493.782    500.224    493.782
 98.170   1143.678   1144.948     -1.270    493.562   1138.223    493.562    500.338    493.562
 98.270   1079.000   1076.233      2.767    493.341   1069.124    493.341    500.503    493.341
 98.370   1069.061   1010.644     58.416    493.119   1003.082    493.119    500.732    493.119
 98.470    996.000    951.022     44.978    492.897    942.925    492.897    501.042    492.897
 98.570    903.000    899.717      3.283    492.675    890.980    492.675    501.452    492.675
 98.670    816.000    858.605    -42.605    492.452    849.099    492.452    501.991    492.452
 98.770    769.000    829.128    -60.128    492.229    818.689    492.229    502.691    492.229
 98.870    805.000    812.359     -7.359    492.005    800.783    492.005    503.595    492.005
 98.970    771.000    809.070    -38.070    491.781    796.105    491.781    504.751    491.781
 99.070    836.000    819.790     16.210    491.557    805.126    491.557    506.217    491.557
 99.170    905.000    844.837     60.163    491.332    828.099    491.332    508.058    491.332
 99.270    908.000    884.316     23.684    491.107    865.057    491.107    510.348    491.107
 99.370    881.000    938.079    -57.079    490.882    915.776    490.882    513.161    490.882
 99.470   1025.000   1005.647     19.353    490.657    979.700    490.657    516.578    490.657
 99.570   1094.000   1086.170      7.830    490.431   1055.903    490.431    520.672    490.431
 99.670   1170.000   1178.277     -8.277    490.205   1142.948    490.205    525.510    490.205
 99.770   1280.000   1280.004     -0.004    489.979   1238.820    489.979    531.145    489.979
 99.870   1380.000   1388.743     -8.743    489.753   1340.881    489.753    537.607    489.753
 99.970   1548.000   1501.225     46.775    489.526   1445.858    489.526    544.900    489.526
100.070   1541.000   1613.581    -72.581    489.300   1549.916    489.300    552.989    489.300
100.170   1719.000   1721.531     -2.531    489.073   1648.849    489.073    561.801    489.073
100.270   1854.000   1820.698     33.302    488.846   1738.400    488.846    571.213    488.846
100.370   1964.000   1906.987     57.013    488.619   1814.653    488.619    581.049    488.619
100.470   2065.269   1976.920     88.349    488.392   1874.361    488.392    591.071    488.392
100.570   2047.000   2027.785     19.215    488.165   1915.113    488.165    600.981    488.165
100.670   2143.000   2057.638     85.362    487.938   1935.327    487.938    610.414    487.938
100.770   2052.002   2065.267    -13.265    487.711   1934.213    487.711    618.947    487.711
100.870   2008.000   2050.312    -42.312    487.483   1911.870    487.483    626.122    487.483
100.970   2070.000   2013.526     56.474    487.256   1869.505    487.256    631.481    487.256
101.070   2018.000   1957.029     60.971    487.029   1809.631    487.029    634.634    487.029
101.170   1954.680   1884.325     70.356    486.802   1736.011    486.802    635.321    486.802
101.270   1837.000   1799.980     37.020    486.575   1653.284    486.575    633.470    486.575
101.370   1702.000   1709.067     -7.067    486.348   1566.395    486.348    629.209    486.348
101.470   1666.000   1616.574     49.426    486.122   1480.027    486.122    622.843    486.122
101.570   1497.455   1526.927    -29.472    485.895   1398.192    485.895    614.789    485.895
101.670   1448.000   1443.683      4.317    485.668   1323.983    485.668    605.512    485.668
101.770   1353.633   1369.371    -15.738    485.442   1259.477    485.442    595.464    485.442
101.870   1290.000   1305.442    -15.442    485.216   1205.721    485.216    585.051    485.216
101.970   1319.565   1252.305     67.260    484.990   1162.777    484.990    574.620    484.990
102.070   1235.000   1209.417     25.583    484.765   1129.821    484.765    564.452    484.765
102.170   1197.591   1175.415     22.176    484.539   1105.273    484.539    554.765    484.539
102.270   1089.000   1148.297    -59.297    484.314   1086.970    484.314    545.720    484.314
102.370   1097.471   1125.646    -28.174    484.090   1072.387    484.090    537.425    484.090
102.470   1125.000   1104.897     20.103    483.865   1058.898    483.865    529.941    483.865
102.570   1078.000   1083.657     -5.657    483.641   1044.085    483.641    523.290    483.641
102.670   1119.000   1060.008     58.992    483.418   1026.043    483.418    517.462    483.418
102.770   1027.000   1032.739     -5.739    483.195   1003.597    483.195    512.417    483.195
102.870   1027.712   1001.423     26.289    482.972    976.376    482.972    508.099    482.972
102.970    945.110    966.331    -21.221    482.750    944.722    482.750    504.438    482.750
103.070    877.127    928.240    -51.113    482.528    909.487    482.528    501.358    482.528
103.170    904.608    888.215     16.394    482.306    871.815    482.306    498.780    482.306
103.270    870.005    847.423     22.582    482.086    832.948    482.086    496.630    482.086
103.370    849.684    807.009     42.675    481.865    794.103    481.865    494.835    481.865
103.470    752.303    768.005    -15.703    481.646    756.374    481.646    493.334    481.646
103.570    725.000    731.277     -6.277    481.427    720.683    481.427    492.071    481.427
103.670    731.316    697.490     33.826    481.208    687.744    481.208    490.999    481.208
103.770    648.779    667.098    -18.319    480.990    658.048    480.990    490.078    480.990
103.870    623.971    640.343    -16.372    480.773    631.869    480.773    489.278    480.773
103.970    655.000    617.275     37.725    480.557    609.285    480.557    488.574    480.557
104.070    582.702    597.783    -15.081    480.341    590.201    480.341    487.944    480.341
104.170    630.000    581.631     48.369    480.126    574.399    480.126    487.374    480.126
104.270    580.000    568.497     11.503    479.912    561.568    479.912    486.853    479.912
104.370    568.000    558.017      9.983    479.698    551.354    479.698    486.371    479.698
104.470    576.000    549.819     26.181    479.486    543.390    479.486    485.921    479.486
104.570    561.000    543.531     17.469    479.274    537.310    479.274    485.499    479.274
104.670    516.000    538.839    -22.839    479.063    532.804    479.063    485.101    479.063
104.770    552.000    535.461     16.539    478.853    529.591    478.853    484.723    478.853
104.870    545.313    533.166     12.148    478.644    527.445    478.644    484.363    478.644
104.970    561.749    531.781     29.967    478.436    526.195    478.436    484.020    478.436
105.070    521.000    531.189    -10.189    478.229    525.723    478.229    483.692    478.229
105.170    560.782    531.320     29.461    478.023    525.961    478.023    483.377    478.023
105.270    548.000    532.150     15.850    477.818    526.885    477.818    483.075    477.818
105.370    578.873    533.694     45.180    477.614    528.514    477.614    482.785    477.614
105.470    558.000    536.002     21.998    477.411    530.897    477.411    482.506    477.411
105.570    556.000    539.153     16.847    477.209    534.113    477.209    482.238    477.209
105.670    537.000    543.240     -6.240    477.009    538.255    477.009    481.979    477.009
105.770    564.480    548.361     16.119    476.809    543.423    476.809    481.730    476.809
105.870    556.000    554.602      1.398    476.611    549.703    476.611    481.490    476.611
105.970    557.000    562.028     -5.028    476.414    557.160    476.414    481.259    476.414
106.070    566.000    570.663     -4.663    476.218    565.819    476.218    481.036    476.218
106.170    545.000    580.480    -35.480    476.024    575.652    476.024    480.822    476.024
106.270    619.173    591.390     27.782    475.831    586.574    475.831    480.615    475.831
106.370    563.375    603.242    -39.866    475.639    598.429    475.639    480.416    475.639
106.470    610.000    615.812     -5.812    475.449    610.997    475.449    480.224    475.449
106.570    586.457    628.813    -42.356    475.260    623.990    475.260    480.040    475.260
106.670    562.000    641.897    -79.897    475.072    637.062    475.072    479.864    475.072
106.770    651.000    654.670     -3.670    474.886    649.817    474.886    479.694    474.886
106.870    650.000    666.708    -16.708    474.702    661.831    474.702    479.532    474.702
106.970    686.000    677.580      8.420    474.519    672.675    474.519    479.377    474.519
107.070    615.000    686.895    -71.895    474.337    681.957    474.337    479.230    474.337
107.170    684.000    694.342    -10.342    474.158    689.367    474.158    479.090    474.158
107.270    683.028    699.747    -16.719    473.979    694.729    473.979    478.957    473.979
107.370    663.000    703.108    -40.108    473.803    698.042    473.803    478.831    473.803
107.470    743.484    704.607     38.877    473.628    699.488    473.628    478.713    473.628
107.570    714.000    704.579      9.421    473.455    699.401    473.455    478.603    473.455
107.670    692.298    703.456    -11.158    473.283    698.214    473.283    478.501    473.283
107.770    686.812    701.705    -14.893    473.114    696.391    473.114    478.406    473.114
107.870    690.000    699.763     -9.763    472.946    694.372    472.946    478.320    472.946
107.970    671.000    697.997    -26.997    472.780    692.522    472.780    478.242    472.780
108.070    628.000    696.669    -68.669    472.616    691.103    472.616    478.173    472.616
108.170    703.000    695.923      7.077    472.454    690.259    472.454    478.113    472.454
108.270    691.075    695.772     -4.696    472.294    690.002    472.294    478.062    472.294
108.370    697.000    696.101      0.899    472.135    690.217    472.135    478.021    472.135
108.470    686.000    696.675    -10.675    471.979    690.671    471.979    477.989    471.979
108.570    672.572    697.162    -24.590    471.825    691.027    471.825    477.969    471.825
108.670    718.000    697.159     20.841    471.673    690.885    471.673    477.958    471.673
108.770    676.000    696.241    -20.241    471.523    689.819    471.523    477.960    471.523
108.870    650.000    694.020    -44.020    471.375    687.439    471.375    477.973    471.375
108.970    722.473    690.198     32.275    471.230    683.448    471.230    477.998    471.230
109.070    719.000    684.620     34.380    471.086    677.690    471.086    478.037    471.086
109.170    695.000    677.293     17.707    470.945    670.170    470.945    478.089    470.945
109.270    713.237    668.370     44.867    470.806    661.042    470.806    478.156    470.806
109.370    622.000    658.121    -36.121    470.670    650.574    470.670    478.239    470.670
109.470    641.000    646.888     -5.888    470.536    639.108    470.536    478.338    470.536
109.570    652.000    635.040     16.960    470.404    627.010    470.404    478.454    470.404
109.670    632.000    622.945      9.055    470.274    614.650    470.274    478.589    470.274
109.770    656.000    610.948     45.052    470.148    602.368    470.148    478.744    470.148
109.870    641.354    599.354     42.000    470.023    590.471    470.023    478.922    470.023
109.970    625.000    588.422     36.578    469.901    579.214    469.901    479.123    469.901
110.070    605.000    578.357     26.643    469.782    568.800    469.782    479.350    469.782
110.170    616.000    569.285     46.715    469.665    559.354    469.665    479.606    469.665
110.270    571.000    561.329      9.671    469.551    550.999    469.551    479.889    469.551
110.370    584.000    554.562     29.438    469.440    543.794    469.440    480.214    469.440
110.470    553.000    548.963      4.037    469.332    537.717    469.332    480.581    469.332
110.570    548.668    544.494      4.174    469.226    532.726    469.226    480.996    469.226
110.670    532.625    541.094     -8.469    469.123    528.750    469.123    481.467    469.123
110.770    531.000    538.683     -7.683    469.022    525.700    469.022    482.005    469.022
110.870    530.000    537.173     -7.173    468.925    523.475    468.925    482.620    468.925
110.970    556.000    536.472     19.528    468.831    521.969    468.831    483.330    468.831
111.070    509.000    536.493    -27.493    468.739    521.077    468.739    484.151    468.739
111.170    558.018    537.161     20.857    468.651    520.698    468.651    485.108    468.651
111.270    493.105    538.410    -45.304    468.565    520.743    468.565    486.226    468.565
111.370    528.000    540.191    -12.191    468.483    521.129    468.483    487.538    468.483
111.470    567.000    542.466     24.534    468.404    521.787    468.404    489.075    468.404
111.570    515.000    545.238    -30.238    468.328    522.657    468.328    490.900    468.328
111.670    545.000    548.505     -3.505    468.255    523.694    468.255    493.057    468.255
111.770    587.000    552.288     34.712    468.185    524.859    468.185    495.604    468.185
111.870    514.685    556.628    -41.942    468.119    526.128    468.119    498.608    468.119
111.970    548.000    561.584    -13.584    468.056    527.487    468.056    502.143    468.056
112.070    549.000    567.232    -18.232    467.996    528.932    467.996    506.286    467.996
112.170    587.945    573.662     14.283    467.940    530.469    467.940    511.121    467.940
112.270    536.157    580.975    -44.818    467.887    532.115    467.887    516.735    467.887
112.370    550.000    589.281    -39.281    467.837    533.894    467.837    523.212    467.837
112.470    575.985    598.696    -22.711    467.792    535.838    467.792    530.637    467.792
112.570    609.000    609.337     -0.337    467.749    537.989    467.749    539.084    467.749
112.670    603.000    621.322    -18.322    467.710    540.399    467.710    548.619    467.710
112.770    622.000    634.765    -12.765    467.675    543.133    467.675    559.292    467.675
112.870    609.266    649.781    -40.515    467.644    546.275    467.644    571.133    467.644
112.970    647.873    666.484    -18.612    467.616    549.935    467.616    584.148    467.616
113.070    698.000    684.993     13.007    467.592    554.255    467.592    598.311    467.592
113.170    661.465    705.436    -43.971    467.572    559.422    467.572    613.566    467.572
113.270    735.267    727.964      7.303    467.556    565.682    467.556    629.815    467.556
113.370    792.263    752.758     39.505    467.544    573.356    467.544    646.920    467.544
113.470    804.974    780.052     24.922    467.535    582.860    467.535    664.698    467.535
113.570    824.000    810.148     13.852    467.531    594.730    467.531    682.916    467.531
113.670    860.000    843.441     16.559    467.530    609.644    467.530    701.289    467.530
113.770    897.675    880.444     17.231    467.534    628.453    467.534    719.480    467.534
113.870    962.411    921.811     40.600    467.542    652.204    467.542    737.097    467.542
113.970    993.000    968.372     24.628    467.554    682.166    467.554    753.698    467.554
114.070   1019.000   1021.158     -2.158    467.570    719.851    467.570    768.803    467.570
114.170   1074.084   1081.432     -7.348    467.591    767.023    467.591    781.911    467.591
114.270   1134.000   1150.720    -16.720    467.615    825.698    467.615    792.531    467.615
114.370   1211.000   1230.831    -19.831    467.645    898.125    467.645    800.222    467.645
114.470   1300.000   1323.864    -23.864    467.678    986.750    467.678    804.638    467.678
114.570   1415.000   1432.188    -17.188    467.716   1094.151    467.716    805.571    467.716
114.670   1534.343   1558.379    -24.037    467.759   1222.947    467.759    802.975    467.759
114.770   1734.453   1705.112     29.341    467.806   1375.684    467.806    796.979    467.806
114.870   1899.841   1874.993     24.848    467.857   1554.690    467.857    787.863    467.857
114.970   2102.000   2070.361     31.639    467.913   1761.905    467.913    776.026    467.913
115.070   2285.166   2293.059     -7.893    467.974   1998.700    467.974    761.939    467.974
115.170   2583.000   2544.197     38.803    468.040   2265.687    468.040    746.104    468.040
115.270   2898.000   2823.935     74.065    468.110   2562.532    468.110    729.015    468.110
115.370   3060.000   3131.286    -71.286    468.185   2887.787    468.185    711.135    468.185
115.470   3471.000   3463.970      7.030    468.265   3238.755    468.265    692.882    468.265
115.570   3713.000   3818.307   -105.307    468.350   3611.395    468.350    674.621    468.350
115.670   4186.000   4189.183     -3.183    468.440   4000.283    468.440    656.664    468.440
115.770   4558.647   4570.066    -11.419    468.535   4398.628    468.535    639.269    468.535
115.870   4816.466   4953.090   -136.624    468.635   4798.362    468.635    622.645    468.635
115.970   5215.000   5329.216   -114.216    468.740   5190.284    468.740    606.953    468.740
116.070   5564.000   5688.454   -124.454    468.851   5564.291    468.851    592.310    468.851
116.170   5930.000   6020.179    -90.179    468.966   5909.680    468.966    578.792    468.966
116.270   6274.000   6313.545    -39.545    469.087   6215.566    469.087    566.441    469.087
116.370   6629.330   6558.025     71.305    469.213   6471.414    469.213    555.265    469.213
116.470   6845.000   6744.084    100.916    469.345   6667.703    469.345    545.247    469.345
116.570   6946.325   6863.931     82.394    469.481   6796.681    469.481    536.347    469.481
116.670   7187.000   6912.262    274.738    469.624   6853.100    469.624    528.506    469.624
116.770   6933.000   6886.835     46.165    469.772   6834.781    469.772    521.653    469.772
116.870   6730.000   6788.711    -58.711    469.925   6742.863    469.925    515.709    469.925
116.970   6697.000   6622.122     74.878    470.084   6581.657    470.084    510.589    470.084
117.070   6374.000   6393.970    -19.970    470.249   6358.146    470.249    506.207    470.249
117.170   6144.000   6113.116     30.884    470.419   6081.274    470.419    502.478    470.419
117.270   5732.076   5789.639    -57.563    470.595   5761.199    470.595    499.320    470.595
117.370   5381.032   5434.174    -53.142    470.777   5408.630    470.777    496.658    470.777
117.470   4916.000   5057.247   -141.247    470.965   5034.165    470.965    494.422    470.965
117.570   4558.000   4668.909   -110.909    471.159   4647.916    471.159    492.548    471.159
117.670   4234.926   4278.390    -43.463    471.359   4259.172    471.359    490.982    471.359
117.770   4101.000   3893.853    207.147    471.565   3876.145    471.565    489.674    471.565
117.870   3563.387   3522.236     41.151    471.777   3505.818    471.777    488.583    471.777
117.970   3243.000   3169.163     73.837    471.995   3153.851    471.995    487.673    471.995
118.070   2882.000   2838.919     43.081    472.219   2824.561    472.219    486.914    472.219
118.170   2550.110   2534.493     15.616    472.450   2520.966    472.450    486.282    472.450
118.270   2222.000   2257.670    -35.670    472.686   2244.871    472.686    485.755    472.686
118.370   2020.000   2009.156     10.844    472.930   1997.002    472.930    485.318    472.930
118.470   1772.000   1788.739    -16.739    473.179   1777.161    473.179    484.956    473.179
118.570   1636.779   1595.449     41.329    473.436   1584.392    473.436    484.660    473.436
118.670   1398.000   1427.739    -29.739    473.698   1417.154    473.698    484.419    473.698
118.770   1255.000   1283.642    -28.642    473.967   1273.491    473.967    484.228    473.967
118.870   1117.000   1160.936    -43.936    474.243   1151.184    474.243    484.080    474.243
118.970   1098.000   1057.276     40.724    474.526   1047.895    474.526    483.972    474.526
119.070    989.000    970.314     18.686    474.815    961.279    474.815    483.899    474.815
119.170    893.000    897.788     -4.788    475.112    889.076    475.112    483.859    475.112
119.270    813.435    837.592    -24.156    475.415    829.182    475.415    483.849    475.415
119.370    786.000    787.811     -1.811    475.725    779.684    475.725    483.869    475.725
119.470    740.000    746.751     -6.751    476.042    738.888    476.042    483.916    476.042
119.570    708.000    712.940     -4.940    476.366    705.323    476.366    483.990    476.366
119.670    625.000    685.123    -60.123    476.697    677.735    476.697    484.089    476.697
119.770    671.106    662.247      8.859    477.035    655.070    477.035    484.214    477.035
119.870    631.000    643.439    -12.439    477.381    636.457    477.381    484.363    477.381
119.970    592.679    627.986    -35.306    477.733    621.182    477.733    484.538    477.733
120.070    596.000    615.310    -19.310    478.094    608.668    478.094    484.737    478.094
120.170    586.151    604.949    -18.798    478.461    598.450    478.461    484.961    478.461
120.270    583.418    596.533    -13.115    478.836    590.161    478.836    485.210    478.836
120.370    576.869    589.771    -12.902    479.219    583.506    479.219    485.485    479.219
120.470    636.000    584.433     51.567    479.609    578.258    479.609    485.786    479.609
120.570    572.000    580.339     -8.339    480.006    574.234    480.006    486.114    480.006
120.670    616.980    577.347     39.633    480.412    571.294    480.412    486.468    480.412
120.770    533.000    575.347    -42.347    480.825    569.325    480.825    486.851    480.825
120.870    558.108    574.252    -16.144    481.246    568.241    481.246    487.262    481.246
120.970    591.060    573.990     17.070    481.675    567.970    481.675    487.701    481.675
121.070    566.000    574.504     -8.504    482.112    568.453    482.112    488.170    482.112
121.170    567.000    575.740     -8.740    482.557    569.637    482.557    488.667    482.557
121.270    619.391    577.650     41.741    483.009    571.474    483.009    489.195    483.009
121.370    596.000    580.184     15.816    483.470    573.915    483.470    489.751    483.470
121.470    611.519    583.290     28.229    483.940    576.907    483.940    490.336    483.940
121.570    575.000    586.910    -11.910    484.417    580.394    484.417    490.949    484.417
121.670    525.000    590.980    -65.980    484.903    584.312    484.903    491.589    484.903
121.770    638.066    595.427     42.639    485.397    588.590    485.397    492.254    485.397
121.870    596.000    600.169     -4.169    485.900    593.149    485.900    492.943    485.900
121.970    628.000    605.116     22.884    486.411    597.899    486.411    493.653    486.411
122.070    575.000    610.168    -35.168    486.931    602.745    486.931    494.382    486.931
122.170    616.000    615.218      0.782    487.459    607.583    487.459    495.126    487.459
122.270    579.992    620.156    -40.164    487.996    612.305    487.996    495.881    487.996
122.370    649.000    624.864     24.136    488.542    616.798    488.542    496.644    488.542
122.470    609.754    629.226    -19.472    489.096    620.951    489.096    497.410    489.096
122.570    675.198    633.129     42.069    489.660    624.657    489.660    498.173    489.660
122.670    619.000    636.471    -17.471    490.233    627.818    490.233    498.929    490.233
122.770    594.568    639.164    -44.596    490.814    630.352    490.814    499.671    490.814
122.870    608.496    641.143    -32.647    491.405    632.201    491.405    500.393    491.405
122.970    615.878    642.367    -26.489    492.005    633.327    492.005    501.091    492.005
123.070    653.000    642.822     10.178    492.614    633.724    492.614    501.759    492.614
123.170    637.001    642.524     -5.523    493.232    633.409    493.232    502.394    493.232
123.270    607.302    641.511    -34.209    493.860    632.424    493.860    502.992    493.860
123.370    618.000    639.842    -21.842    494.497    630.831    494.497    503.554    494.497
123.470    590.000    637.593    -47.593    495.143    628.701    495.143    504.079    495.143
123.570    643.628    634.846      8.781    495.800    626.117    495.800    504.570    495.800
123.670    674.275    631.690     42.585    496.465    623.164    496.465    505.031    496.465
123.770    618.000    628.213    -10.213    497.141    619.925    497.141    505.466    497.141
123.870    661.000    624.502     36.498    497.826    616.481    497.826    505.880    497.826
123.970    661.000    620.636     40.364    498.521    612.907    498.521    506.280    498.521
124.070    622.992    616.688      6.303    499.226    609.271    499.226    506.672    499.226
124.170    614.000    612.722      1.278    499.941    605.628    499.941    507.059    499.941
124.270    602.000    608.787     -6.787    500.666    602.026    500.666    507.449    500.666
124.370    611.000    604.925      6.075    501.402    598.500    501.402    507.845    501.402
124.470    579.300    601.164    -21.865    502.147    595.076    502.147    508.251    502.147
124.570    614.000    597.524     16.476    502.903    591.767    502.903    508.672    502.903
124.670    586.534    594.012     -7.479    503.669    588.582    503.669    509.111    503.669
124.770    601.000    590.633     10.367    504.445    585.518    504.445    509.570    504.445
124.870    578.000    587.382     -9.382    505.232    582.571    505.232    510.051    505.232
124.970    603.000    584.255     18.745    506.029    579.734    506.029    510.557    506.029
