neutron_powder_diffraction_0070
R_wp: 5.034
Temperature (K): 745.416
Counts: 83799.00
Wavelength (Ã…): 2.52098
COMMENTS
Test file for demonstrating the .xyy file format in Reel1.0
END OF HEADER
   tth       Y_obs     Y_calc      Y_res    Background    Phase_1_Nuc    Phase_1_Mag    Phase_2_Nuc    Phase_2_Mag
  9.970    641.866    607.728     34.139    606.723    607.727    606.723    606.723    606.723
 10.070    559.075    608.816    -49.741    607.733    608.816    607.733    607.733    607.733
 10.170    663.000    609.899     53.101    608.725    609.898    608.725    608.725    608.725
 10.270    700.000    610.977     89.023    609.701    610.977    609.701    609.701    609.701
 10.370    657.000    612.055     44.945    610.660    612.055    610.660    610.660    610.660
 10.470    609.641    613.136     -3.495    611.601    613.135    611.601    611.601    611.601
 10.570    615.299    614.224      1.076    612.527    614.223    612.527    612.527    612.527
 10.670    683.000    615.325     67.675    613.435    615.324    613.435    613.435    613.435
 10.770    598.369    616.450    -18.081    614.327    616.449    614.327    614.327    614.327
 10.870    660.000    617.607     42.393    615.203    617.606    615.203    615.203    615.203
 10.970    686.000    618.828     67.172    616.063    618.827    616.063    616.063    616.063
 11.070    701.000    620.244     80.756    616.906    620.242    616.906    616.906    616.906
 11.170    649.000    621.623     27.377    617.734    621.621    617.734    617.734    617.734
 11.270    569.987    623.128    -53.141    618.546    623.125    618.546    618.546    618.546
 11.370    623.787    624.841     -1.054    619.342    624.838    619.342    619.342    619.342
 11.470    658.382    626.898     31.484    620.122    626.894    620.122    620.122    620.122
 11.570    670.000    629.613     40.387    620.888    629.608    620.888    620.888    620.888
 11.670    571.018    633.798    -62.780    621.637    633.791    621.637    621.637    621.637
 11.770    688.000    641.313     46.687    622.372    641.302    622.372    622.372    622.372
 11.870    603.093    655.455    -52.362    623.091    655.437    623.091    623.091    623.091
 11.970    643.571    679.976    -36.404    623.795    679.945    623.795    623.795    623.795
 12.070    665.062    715.611    -50.550    624.485    715.560    624.485    624.485    624.485
 12.170    682.716    754.528    -71.812    625.159    754.456    625.159    625.159    625.159
 12.270    798.516    777.102     21.415    625.819    777.017    625.819    625.819    625.819
 12.370    747.000    766.815    -19.815    626.465    766.736    626.465    626.465    626.465
 12.470    753.000    732.946     20.054    627.096    732.887    627.096    627.096    627.096
 12.570    691.000    696.183     -5.183    627.713    696.145    627.713    627.713    627.713
 12.670    666.000    668.646     -2.646    628.315    668.623    628.315    628.315    628.315
 12.770    698.953    652.225     46.728    628.904    652.212    628.904    628.904    628.904
 12.870    685.324    643.866     41.458    629.478    643.858    629.478    629.478    629.478
 12.970    631.000    639.942     -8.942    630.039    639.937    630.039    630.039    630.039
 13.070    603.000    638.076    -35.076    630.586    638.072    630.586    630.586    630.586
 13.170    612.000    637.118    -25.118    631.119    637.115    631.119    631.119    631.119
 13.270    610.448    636.603    -26.155    631.638    636.601    631.638    631.638    631.638
 13.370    624.367    636.344    -11.977    632.145    636.342    632.145    632.145    632.145
 13.470    680.603    636.252     44.351    632.638    636.250    632.638    632.638    632.638
 13.570    582.000    636.293    -54.293    633.117    636.292    633.117    633.117    633.117
 13.670    610.000    636.401    -26.401    633.584    636.400    633.584    633.584    633.584
 13.770    622.000    636.559    -14.559    634.038    636.558    634.038    634.038    634.038
 13.870    683.899    636.757     47.143    634.479    636.756    634.479    634.479    634.479
 13.970    600.308    636.983    -36.675    634.907    636.982    634.907    634.907    634.907
 14.070    634.000    637.230     -3.230    635.322    637.229    635.322    635.322    635.322
 14.170    622.000    637.490    -15.490    635.725    637.490    635.725    635.725    635.725
 14.270    616.442    637.760    -21.317    636.115    637.759    636.115    636.115    636.115
 14.370    618.123    638.034    -19.910    636.493    638.033    636.493    636.493    636.493
 14.470    605.000    638.310    -33.310    636.859    638.309    636.859    636.859    636.859
 14.570    589.673    638.586    -48.914    637.213    638.586    637.213    637.213    637.213
 14.670    592.007    638.865    -46.858    637.554    638.864    637.554    637.554    637.554
 14.770    573.409    639.136    -65.727    637.884    639.136    637.884    637.884    637.884
 14.870    593.134    639.402    -46.268    638.202    639.402    638.202    638.202    638.202
 14.970    598.000    639.662    -41.662    638.508    639.662    638.508    638.508    638.508
 15.070    626.000    639.918    -13.918    638.802    639.918    638.802    638.802    638.802
 15.170    685.616    640.192     45.424    639.085    640.191    639.085    639.085    639.085
 15.270    667.918    640.490     27.428    639.357    640.490    639.357    639.357    639.357
 15.370    670.491    640.728     29.763    639.617    640.728    639.617    639.617    639.617
 15.470    641.000    640.952      0.048    639.866    640.952    639.866    639.866    639.866
 15.570    583.000    641.171    -58.171    640.104    641.171    640.104    640.104    640.104
 15.670    651.956    641.412     10.543    640.331    641.412    640.331    640.331    640.331
 15.770    604.000    641.650    -37.650    640.547    641.650    640.547    640.547    640.547
 15.870    656.000    641.844     14.156    640.752    641.844    640.752    640.752    640.752
 15.970    614.000    642.025    -28.025    640.947    642.025    640.947    640.947    640.947
 16.070    607.000    642.198    -35.198    641.130    642.198    641.130    641.130    641.130
 16.170    620.029    642.368    -22.339    641.304    642.368    641.304    641.304    641.304
 16.270    658.000    642.524     15.476    641.467    642.524    641.467    641.467    641.467
 16.370    635.305    642.670     -7.365    641.619    642.670    641.619    641.619    641.619
 16.470    689.423    642.806     46.616    641.762    642.806    641.762    641.762    641.762
 16.570    619.616    642.933    -23.317    641.894    642.933    641.894    641.894    641.894
 16.670    640.192    643.056     -2.865    642.016    643.056    642.016    642.016    642.016
 16.770    622.000    643.174    -21.174    642.128    643.174    642.128    642.128    642.128
 16.870    594.000    643.275    -49.275    642.230    643.275    642.230    642.230    642.230
 16.970    598.000    643.366    -45.366    642.323    643.366    642.323    642.323    642.323
 17.070    605.000    643.447    -38.447    642.406    643.447    642.406    642.406    642.406
 17.170    576.000    643.520    -67.520    642.479    643.520    642.479    642.479    642.479
 17.270    645.093    643.586      1.507    642.543    643.586    642.543    642.543    642.543
 17.370    609.152    643.663    -34.511    642.598    643.663    642.598    642.598    642.598
 17.470    619.000    643.728    -24.728    642.643    643.728    642.643    642.643    642.643
 17.570    613.000    643.770    -30.770    642.679    643.770    642.679    642.679    642.679
 17.670    661.000    643.800     17.200    642.706    643.800    642.706    642.706    642.706
 17.770    702.750    643.827     58.923    642.723    643.827    642.723    642.723    642.723
 17.870    617.907    643.881    -25.974    642.732    643.881    642.732    642.732    642.732
 17.970    651.742    643.912      7.829    642.732    643.912    642.732    642.732    642.732
 18.070    580.000    643.911    -63.911    642.724    643.911    642.724    642.724    642.724
 18.170    655.000    643.903     11.097    642.706    643.903    642.706    642.706    642.706
 18.270    623.932    643.888    -19.957    642.680    643.888    642.680    642.680    642.680
 18.370    579.000    643.874    -64.874    642.646    643.874    642.646    642.646    642.646
 18.470    621.680    643.840    -22.160    642.603    643.840    642.603    642.603    642.603
 18.570    695.252    643.799     51.453    642.552    643.799    642.552    642.552    642.552
 18.670    630.260    643.778    -13.518    642.492    643.778    642.492    642.492    642.492
 18.770    606.000    643.762    -37.762    642.425    643.762    642.425    642.425    642.425
 18.870    591.865    643.706    -51.841    642.349    643.706    642.349    642.349    642.349
 18.970    610.000    643.652    -33.652    642.266    643.652    642.266    642.266    642.266
 19.070    638.000    643.574     -5.574    642.174    643.574    642.174    642.174    642.174
 19.170    563.000    643.489    -80.489    642.075    643.489    642.075    642.075    642.075
 19.270    603.000    643.411    -40.411    641.968    643.411    641.968    641.968    641.968
 19.370    620.000    643.321    -23.321    641.853    643.321    641.853    641.853    641.853
 19.470    606.000    643.251    -37.251    641.731    643.251    641.731    641.731    641.731
 19.570    606.000    643.148    -37.148    641.602    643.148    641.602    641.602    641.602
 19.670    603.371    643.030    -39.658    641.465    643.029    641.465    641.465    641.465
 19.770    601.119    642.902    -41.783    641.320    642.902    641.320    641.320    641.320
 19.870    638.473    642.766     -4.294    641.169    642.766    641.169    641.169    641.169
 19.970    620.000    642.624    -22.624    641.010    642.624    641.010    641.010    641.010
 20.070    618.000    642.476    -24.476    640.845    642.476    640.845    640.845    640.845
 20.170    682.460    642.327     40.132    640.672    642.327    640.672    640.672    640.672
 20.270    587.000    642.169    -55.169    640.492    642.169    640.492    640.492    640.492
 20.370    639.017    642.004     -2.988    640.306    642.004    640.306    640.306    640.306
 20.470    674.673    641.835     32.839    640.113    641.835    640.113    640.113    640.113
 20.570    661.000    641.661     19.339    639.913    641.661    639.913    639.913    639.913
 20.670    602.000    641.479    -39.479    639.706    641.479    639.706    639.706    639.706
 20.770    608.000    641.290    -33.290    639.494    641.290    639.494    639.494    639.494
 20.870    621.000    641.095    -20.095    639.274    641.095    639.274    639.274    639.274
 20.970    640.489    640.895     -0.407    639.049    640.895    639.049    639.049    639.049
 21.070    580.000    640.691    -60.691    638.817    640.691    638.817    638.817    638.817
 21.170    608.634    640.483    -31.850    638.578    640.483    638.578    638.578    638.578
 21.270    619.000    640.270    -21.270    638.334    640.270    638.334    638.334    638.334
 21.370    653.000    640.051     12.949    638.084    640.051    638.084    638.084    638.084
 21.470    666.920    639.829     27.091    637.828    639.829    637.828    637.828    637.828
 21.570    650.000    639.603     10.397    637.565    639.603    637.565    637.565    637.565
 21.670    634.005    639.373     -5.368    637.298    639.374    637.298    637.298    637.298
 21.770    602.000    639.142    -37.142    637.024    639.142    637.024    637.024    637.024
 21.870    624.000    638.905    -14.905    636.744    638.906    636.744    636.744    636.744
 21.970    612.000    638.666    -26.666    636.459    638.667    636.459    636.459    636.459
 22.070    611.000    638.425    -27.425    636.169    638.425    636.169    636.169    636.169
 22.170    691.319    638.183     53.136    635.873    638.183    635.873    635.873    635.873
 22.270    609.676    637.939    -28.262    635.572    637.939    635.572    635.572    635.572
 22.370    703.258    637.695     65.563    635.265    637.695    635.265    635.265    635.265
 22.470    625.000    637.452    -12.452    634.953    637.452    634.953    634.953    634.953
 22.570    695.482    637.209     58.274    634.636    637.209    634.636    634.636    634.636
 22.670    627.000    636.968     -9.968    634.314    636.968    634.314    634.314    634.314
 22.770    598.000    636.730    -38.730    633.987    636.730    633.987    633.987    633.987
 22.870    641.641    636.497      5.144    633.655    636.498    633.655    633.655    633.655
 22.970    612.000    636.272    -24.272    633.318    636.273    633.318    633.318    633.318
 23.070    605.996    636.057    -30.061    632.976    636.057    632.976    632.976    632.976
 23.170    636.000    635.852      0.148    632.629    635.853    632.629    632.629    632.629
 23.270    589.000    635.665    -46.665    632.278    635.665    632.278    632.278    632.278
 23.370    597.000    635.497    -38.497    631.922    635.498    631.922    631.922    631.922
 23.470    594.947    635.358    -40.411    631.562    635.358    631.562    631.562    631.562
 23.570    642.000    635.254      6.746    631.197    635.255    631.197    631.197    631.197
 23.670    655.000    635.200     19.800    630.828    635.201    630.828    630.828    630.828
 23.770    680.000    635.213     44.787    630.454    635.215    630.454    630.454    630.454
 23.870    675.248    635.317     39.930    630.076    635.319    630.076    630.076    630.076
 23.970    636.000    635.552      0.448    629.694    635.554    629.694    629.694    629.694
 24.070    586.853    635.995    -49.142    629.308    635.998    629.308    629.308    629.308
 24.170    610.962    636.796    -25.835    628.918    636.800    628.918    628.918    628.918
 24.270    656.000    638.352     17.648    628.523    638.357    628.523    628.523    628.523
 24.370    660.000    641.563     18.437    628.125    641.570    628.125    628.125    628.125
 24.470    632.205    648.103    -15.899    627.723    648.116    627.723    627.723    627.723
 24.570    639.000    660.203    -21.203    627.317    660.224    627.317    627.317    627.317
 24.670    745.893    679.255     66.639    626.907    679.289    626.907    626.907    626.907
 24.770    688.644    703.092    -14.449    626.494    703.144    626.494    626.494    626.494
 24.870    694.021    723.242    -29.221    626.077    723.309    626.077    626.077    626.077
 24.970    730.000    727.504      2.496    625.656    727.574    625.656    625.656    625.656
 25.070    696.000    712.156    -16.156    625.232    712.216    625.232    625.232    625.232
 25.170    695.000    687.573      7.427    624.804    687.615    624.804    624.804    624.804
 25.270    692.000    665.163     26.837    624.373    665.189    624.373    624.373    624.373
 25.370    647.792    649.540     -1.748    623.939    649.556    623.939    623.939    623.939
 25.470    622.000    640.367    -18.367    623.501    640.376    623.501    623.501    623.501
 25.570    589.000    635.465    -46.465    623.060    635.470    623.060    623.060    623.060
 25.670    662.621    632.817     29.804    622.616    632.821    622.616    622.616    622.616
 25.770    629.000    631.219     -2.219    622.169    631.222    622.169    622.169    622.169
 25.870    652.000    630.117     21.883    621.719    630.119    621.719    621.719    621.719
 25.970    666.000    629.287     36.713    621.266    629.288    621.266    621.266    621.266
 26.070    651.143    628.637     22.505    620.810    628.639    620.810    620.810    620.810
 26.170    660.576    628.125     32.450    620.352    628.126    620.352    620.352    620.352
 26.270    693.000    627.727     65.273    619.890    627.727    619.890    619.890    619.890
 26.370    571.741    627.429    -55.688    619.426    627.430    619.426    619.426    619.426
 26.470    562.600    627.229    -64.628    618.959    627.229    618.959    618.959    618.959
 26.570    579.012    627.127    -48.115    618.489    627.127    618.489    618.489    618.489
 26.670    669.000    627.131     41.869    618.017    627.131    618.017    618.017    618.017
 26.770    700.000    627.255     72.745    617.542    627.254    617.542    617.542    617.542
 26.870    555.987    627.519    -71.532    617.065    627.518    617.065    617.065    617.065
 26.970    731.000    627.954    103.046    616.585    627.953    616.585    616.585    616.585
 27.070    585.906    628.601    -42.695    616.103    628.599    616.103    616.103    616.103
 27.170    794.000    629.520    164.480    615.619    629.518    615.619    615.619    615.619
 27.270    648.234    630.798     17.436    615.132    630.796    615.132    615.132    615.132
 27.370    710.000    632.565     77.435    614.644    632.563    614.644    614.644    614.644
 27.470    579.665    635.047    -55.383    614.153    635.044    614.153    614.153    614.153
 27.570    611.464    638.710    -27.247    613.660    638.706    613.660    613.660    613.660
 27.670    628.594    644.667    -16.073    613.165    644.661    613.165    613.165    613.165
 27.770    757.000    655.519    101.481    612.668    655.509    612.668    612.668    612.668
 27.870    799.000    676.405    122.595    612.169    676.389    612.169    612.169    612.169
 27.970    814.000    714.935     99.065    611.668    714.908    611.668    611.668    611.668
 28.070    832.887    777.767     55.120    611.166    777.721    611.166    611.166    611.166
 28.170    953.000    862.897     90.103    610.662    862.829    610.662    610.662    610.662
 28.270   1054.000    949.546    104.454    610.156    949.461    610.156    610.156    610.156
 28.370   1154.000    995.436    158.564    609.648    995.352    609.648    609.648    609.648
 28.470   1096.000    972.272    123.728    609.138    972.211    609.138    609.138    609.138
 28.570    984.124    908.343     75.781    608.628    908.306    608.628    608.628    608.628
 28.670    955.000    851.972    103.028    608.115    851.949    608.115    608.115    608.115
 28.770    930.000    830.838     99.162    607.601    830.819    607.601    607.601    607.601
 28.870    917.802    846.903     70.899    607.086    846.883    607.086    607.086    607.086
 28.970   1037.000    880.254    156.746    606.569    880.233    606.569    606.569    606.569
 29.070    865.136    895.768    -30.631    606.051    895.752    606.051    606.051    606.051
 29.170    854.141    868.879    -14.738    605.532    868.875    605.532    605.532    605.532
 29.270    842.907    811.512     31.395    605.011    811.516    605.011    605.011    605.011
 29.370    924.000    750.172    173.828    604.489    750.179    604.489    604.489    604.489
 29.470    809.000    700.872    108.128    603.966    700.878    603.966    603.966    603.966
 29.570    780.000    667.515    112.485    603.442    667.518    603.442    603.442    603.442
 29.670    722.000    647.377     74.623    602.917    647.378    602.917    602.917    602.917
 29.770    752.000    635.844    116.156    602.391    635.844    602.391    602.391    602.391
 29.870    801.000    629.100    171.900    601.864    629.098    601.864    601.864    601.864
 29.970    580.995    624.846    -43.851    601.336    624.844    601.336    601.336    601.336
 30.070    691.000    621.962     69.038    600.807    621.959    600.807    600.807    600.807
 30.170    764.000    619.983    144.017    600.278    619.980    600.278    600.278    600.278
 30.270    695.000    618.792     76.208    599.747    618.788    599.747    599.747    599.747
 30.370    681.000    618.528     62.472    599.216    618.523    599.216    599.216    599.216
 30.470    672.000    619.638     52.362    598.684    619.631    598.684    598.684    598.684
 30.570    685.929    622.915     63.014    598.152    622.905    598.152    598.152    598.152
 30.670    657.000    629.350     27.650    597.619    629.333    597.619    597.619    597.619
 30.770    663.013    639.610     23.403    597.085    639.585    597.085    597.085    597.085
 30.870    606.775    653.108    -46.333    596.551    653.073    596.551    596.551    596.551
 30.970    775.000    666.715    108.285    596.016    666.671    596.016    596.016    596.016
 31.070    731.000    674.315     56.685    595.481    674.267    595.481    595.481    595.481
 31.170    690.415    670.901     19.515    594.945    670.857    594.945    594.945    594.945
 31.270    743.000    658.327     84.673    594.409    658.293    594.409    594.409    594.409
 31.370    696.000    642.779     53.221    593.873    642.755    593.873    593.873    593.873
 31.470    689.816    629.032     60.785    593.337    629.016    593.337    593.337    593.337
 31.570    632.000    618.910     13.090    592.800    618.900    592.800    592.800    592.800
 31.670    695.000    612.294     82.706    592.263    612.287    592.263    592.263    592.263
 31.770    661.600    608.264     53.336    591.726    608.259    591.726    591.726    591.726
 31.870    638.868    605.844     33.025    591.188    605.840    591.188    591.188    591.188
 31.970    638.000    604.333     33.667    590.651    604.330    590.651    590.651    590.651
 32.070    619.048    603.336     15.712    590.114    603.333    590.114    590.114    590.114
 32.170    605.000    602.660      2.340    589.576    602.657    589.576    589.576    589.576
 32.270    627.000    602.224     24.776    589.039    602.222    589.039    589.039    589.039
 32.370    634.000    601.998     32.002    588.502    601.995    588.502    588.502    588.502
 32.470    590.000    601.976    -11.976    587.964    601.974    587.964    587.964    587.964
 32.570    628.000    602.171     25.829    587.427    602.169    587.427    587.427    587.427
 32.670    575.000    602.609    -27.609    586.890    602.607    586.890    586.890    586.890
 32.770    534.159    603.333    -69.174    586.354    603.331    586.354    586.354    586.354
 32.870    592.000    604.406    -12.406    585.817    604.404    585.817    585.817    585.817
 32.970    620.000    605.922     14.078    585.281    605.919    585.281    585.281    585.281
 33.070    582.000    608.025    -26.025    584.745    608.022    584.745    584.745    584.745
 33.170    625.000    610.954     14.046    584.210    610.950    584.210    584.210    584.210
 33.270    639.000    615.164     23.836    583.675    615.160    583.675    583.675    583.675
 33.370    646.000    621.585     24.415    583.140    621.579    583.140    583.140    583.140
 33.470    607.000    632.089    -25.089    582.606    632.081    582.606    582.606    582.606
 33.570    654.000    650.094      3.906    582.072    650.083    582.072    582.072    582.072
 33.670    681.000    680.849      0.151    581.539    680.833    581.539    581.539    581.539
 33.770    676.710    730.577    -53.867    581.006    730.551    581.006    581.006    581.006
 33.870    767.000    803.653    -36.653    580.474    803.615    580.474    580.474    580.474
 33.970    880.000    897.569    -17.569    579.943    897.520    579.943    579.943    579.943
 34.070   1056.282    996.018     60.263    579.412    995.962    579.412    579.412    579.412
 34.170   1044.000   1065.048    -21.048    578.882   1064.996    578.882    578.882    578.882
 34.270   1044.000   1069.142    -25.142    578.353   1069.105    578.353    578.353    578.353
 34.370    986.000   1005.305    -19.305    577.824   1005.285    577.824    577.824    577.824
 34.470    929.128    906.938     22.190    577.296    906.929    577.296    577.296    577.296
 34.570    739.000    809.992    -70.992    576.769    809.988    576.769    576.769    576.769
 34.670    677.000    732.908    -55.908    576.243    732.906    576.243    576.243    576.243
 34.770    643.000    679.412    -36.412    575.718    679.411    575.718    575.718    575.718
 34.870    638.000    645.612     -7.612    575.193    645.611    575.193    575.193    575.193
 34.970    606.000    625.293    -19.293    574.670    625.291    574.670    574.670    574.670
 35.070    613.000    612.994      0.006    574.147    612.992    574.147    574.147    574.147
 35.170    581.000    605.075    -24.075    573.626    605.073    573.626    573.626    573.626
 35.270    598.000    599.510     -1.510    573.105    599.509    573.105    573.105    573.105
 35.370    651.520    595.290     56.230    572.586    595.289    572.586    572.586    572.586
 35.470    552.000    591.921    -39.921    572.067    591.920    572.067    572.067    572.067
 35.570    534.080    589.142    -55.062    571.550    589.141    571.550    571.550    571.550
 35.670    584.000    586.800     -2.800    571.034    586.799    571.034    571.034    571.034
 35.770    597.000    584.791     12.209    570.519    584.790    570.519    570.519    570.519
 35.870    519.000    583.041    -64.041    570.005    583.040    570.005    570.005    570.005
 35.970    522.285    581.498    -59.213    569.493    581.498    569.493    569.493    569.493
 36.070    559.000    580.122    -21.122    568.981    580.121    568.981    568.981    568.981
 36.170    546.000    578.882    -32.882    568.471    578.881    568.471    568.471    568.471
 36.270    560.000    577.755    -17.755    567.963    577.754    567.963    567.963    567.963
 36.370    530.000    576.723    -46.723    567.455    576.723    567.455    567.455    567.455
 36.470    577.156    575.775      1.381    566.949    575.774    566.949    566.949    566.949
 36.570    515.000    574.899    -59.899    566.444    574.899    566.444    566.444    566.444
 36.670    578.000    574.089      3.911    565.941    574.089    565.941    565.941    565.941
 36.770    548.000    573.337    -25.337    565.439    573.337    565.439    565.439    565.439
 36.870    523.000    572.652    -49.652    564.939    572.652    564.939    564.939    564.939
 36.970    515.971    572.041    -56.070    564.440    572.041    564.440    564.440    564.440
 37.070    562.828    571.529     -8.701    563.942    571.529    563.942    563.942    563.942
 37.170    585.000    571.182     13.818    563.446    571.183    563.446    563.446    563.446
 37.270    560.156    571.134    -10.977    562.952    571.134    562.952    562.952    562.952
 37.370    554.949    571.607    -16.658    562.459    571.608    562.459    562.459    562.459
 37.470    571.351    572.881     -1.530    561.968    572.882    561.968    561.968    561.968
 37.570    514.000    575.153    -61.153    561.478    575.155    561.478    561.478    561.478
 37.670    550.000    578.304    -28.304    560.990    578.307    560.990    560.990    560.990
 37.770    557.000    581.627    -24.627    560.503    581.632    560.503    560.503    560.503
 37.870    528.000    583.754    -55.754    560.019    583.760    560.019    560.019    560.019
 37.970    546.000    583.421    -37.421    559.536    583.428    559.536    559.536    559.536
 38.070    525.549    580.685    -55.135    559.054    580.694    559.054    559.054    559.054
 38.170    576.769    576.746      0.023    558.575    576.757    558.575    558.575    558.575
 38.270    545.000    572.752    -27.752    558.097    572.762    558.097    558.097    558.097
 38.370    547.000    569.317    -22.317    557.621    569.326    557.621    557.621    557.621
 38.470    521.123    566.653    -45.530    557.147    566.660    557.147    557.147    557.147
 38.570    612.792    564.705     48.087    556.674    564.710    556.674    556.674    556.674
 38.670    481.000    563.293    -82.293    556.204    563.297    556.204    556.204    556.204
 38.770    521.000    562.235    -41.235    555.735    562.238    555.735    555.735    555.735
 38.870    537.100    561.398    -24.298    555.268    561.400    555.268    555.268    555.268
 38.970    502.000    560.697    -58.697    554.804    560.698    554.804    554.804    554.804
 39.070    575.000    560.079     14.921    554.341    560.080    554.341    554.341    554.341
 39.170    574.000    559.515     14.485    553.880    559.515    553.880    553.880    553.880
 39.270    552.000    558.986     -6.986    553.420    558.987    553.420    553.420    553.420
 39.370    557.000    558.484     -1.484    552.963    558.485    552.963    552.963    552.963
 39.470    530.000    558.003    -28.003    552.508    558.004    552.508    552.508    552.508
 39.570    547.000    557.540    -10.540    552.055    557.540    552.055    552.055    552.055
 39.670    593.000    557.092     35.908    551.604    557.093    551.604    551.604    551.604
 39.770    611.663    556.659     55.004    551.155    556.660    551.155    551.155    551.155
 39.870    501.085    556.240    -55.155    550.708    556.241    550.708    550.708    550.708
 39.970    552.654    555.835     -3.181    550.263    555.835    550.263    550.263    550.263
 40.070    577.847    555.443     22.404    549.821    555.443    549.821    549.821    549.821
 40.170    571.000    555.064     15.936    549.380    555.065    549.380    549.380    549.380
 40.270    534.000    554.701    -20.701    548.941    554.701    548.941    548.941    548.941
 40.370    549.000    554.352     -5.352    548.505    554.353    548.505    548.505    548.505
 40.470    567.000    554.020     12.980    548.071    554.020    548.071    548.071    548.071
 40.570    544.000    553.706     -9.706    547.639    553.706    547.639    547.639    547.639
 40.670    584.036    553.411     30.625    547.209    553.412    547.209    547.209    547.209
 40.770    514.000    553.139    -39.139    546.781    553.140    546.781    546.781    546.781
 40.870    518.000    552.893    -34.893    546.356    552.894    546.356    546.356    546.356
 40.970    538.000    552.676    -14.676    545.932    552.677    545.932    545.932    545.932
 41.070    490.000    552.494    -62.494    545.511    552.495    545.511    545.511    545.511
 41.170    553.000    552.353      0.647    545.093    552.354    545.093    545.093    545.093
 41.270    551.000    552.261     -1.261    544.676    552.263    544.676    544.676    544.676
 41.370    518.241    552.231    -33.990    544.262    552.232    544.262    544.262    544.262
 41.470    557.353    552.277      5.076    543.850    552.278    543.850    543.850    543.850
 41.570    611.392    552.420     58.972    543.441    552.422    543.441    543.441    543.441
 41.670    552.000    552.693     -0.693    543.034    552.695    543.034    543.034    543.034
 41.770    520.000    553.152    -33.152    542.629    553.155    542.629    542.629    542.629
 41.870    566.000    553.903     12.097    542.226    553.906    542.226    542.226    542.226
 41.970    524.759    555.151    -30.392    541.826    555.155    541.826    541.826    541.826
 42.070    557.000    557.283     -0.283    541.428    557.288    541.428    541.428    541.428
 42.170    540.000    560.950    -20.950    541.033    560.957    541.033    541.033    541.033
 42.270    554.000    567.107    -13.107    540.640    567.117    540.640    540.640    540.640
 42.370    543.000    576.870    -33.870    540.250    576.884    540.250    540.250    540.250
 42.470    518.000    591.135    -73.135    539.861    591.156    539.861    539.861    539.861
 42.570    606.908    609.918     -3.010    539.476    609.948    539.476    539.476    539.476
 42.670    592.000    631.490    -39.490    539.093    631.531    539.093    539.093    539.093
 42.770    621.637    651.451    -29.813    538.712    651.503    538.712    538.712    538.712
 42.870    626.000    662.989    -36.989    538.333    663.050    538.333    538.333    538.333
 42.970    659.658    660.758     -1.100    537.958    660.820    537.958    537.958    537.958
 43.070    607.000    645.773    -38.773    537.584    645.830    537.584    537.584    537.584
 43.170    568.339    624.282    -55.944    537.213    624.328    537.213    537.213    537.213
 43.270    600.000    602.576     -2.576    536.845    602.611    536.845    536.845    536.845
 43.370    579.000    584.296     -5.296    536.479    584.320    536.479    536.479    536.479
 43.470    519.000    570.640    -51.640    536.116    570.657    536.116    536.116    536.116
 43.570    593.927    561.300     32.627    535.755    561.311    535.755    535.755    535.755
 43.670    534.000    555.278    -21.278    535.397    555.285    535.397    535.397    535.397
 43.770    545.000    551.478     -6.478    535.041    551.483    535.041    535.041    535.041
 43.870    567.827    549.023     18.804    534.688    549.027    534.688    534.688    534.688
 43.970    561.000    547.336     13.664    534.337    547.339    534.337    534.337    534.337
 44.070    545.000    546.086     -1.086    533.989    546.089    533.989    533.989    533.989
 44.170    479.000    545.100    -66.100    533.644    545.102    533.644    533.644    533.644
 44.270    541.000    544.286     -3.286    533.301    544.288    533.301    533.301    533.301
 44.370    558.446    543.597     14.849    532.960    543.599    532.960    532.960    532.960
 44.470    485.171    543.005    -57.834    532.623    543.006    532.623    532.623    532.623
 44.570    572.000    542.489     29.511    532.288    542.491    532.288    532.288    532.288
 44.670    570.000    542.038     27.962    531.955    542.039    531.955    531.955    531.955
 44.770    536.037    541.640     -5.603    531.625    541.641    531.625    531.625    531.625
 44.870    558.000    541.289     16.711    531.298    541.290    531.298    531.298    531.298
 44.970    531.644    540.979     -9.335    530.973    540.979    530.973    530.973    530.973
 45.070    524.879    540.706    -15.827    530.651    540.706    530.651    530.651    530.651
 45.170    508.000    540.467    -32.467    530.332    540.467    530.332    530.332    530.332
 45.270    590.000    540.261     49.739    530.015    540.261    530.015    530.015    530.015
 45.370    585.025    540.085     44.940    529.701    540.085    529.701    529.701    529.701
 45.470    548.000    539.939      8.061    529.390    539.939    529.390    529.390    529.390
 45.570    539.000    539.823     -0.823    529.081    539.823    529.081    529.081    529.081
 45.670    605.459    539.738     65.721    528.775    539.738    528.775    528.775    528.775
 45.770    558.000    539.685     18.315    528.472    539.684    528.472    528.472    528.472
 45.870    558.059    539.664     18.395    528.171    539.664    528.171    528.171    528.171
 45.970    509.000    539.678    -30.678    527.873    539.678    527.873    527.873    527.873
 46.070    547.128    539.731      7.397    527.578    539.730    527.578    527.578    527.578
 46.170    544.000    539.825      4.175    527.285    539.824    527.285    527.285    527.285
 46.270    512.143    539.964    -27.822    526.995    539.964    526.995    526.995    526.995
 46.370    520.828    540.156    -19.327    526.708    540.155    526.708    526.708    526.708
 46.470    509.826    540.406    -30.580    526.423    540.405    526.423    526.423    526.423
 46.570    561.000    540.725     20.275    526.141    540.723    526.141    526.141    526.141
 46.670    552.000    541.124     10.876    525.862    541.122    525.862    525.862    525.862
 46.770    544.000    541.622      2.378    525.585    541.620    525.585    525.585    525.585
 46.870    529.000    542.248    -13.248    525.312    542.245    525.312    525.312    525.312
 46.970    564.304    543.049     21.255    525.040    543.047    525.040    525.040    525.040
 47.070    555.000    544.118     10.882    524.772    544.114    524.772    524.772    524.772
 47.170    568.166    545.617     22.549    524.506    545.613    524.506    524.506    524.506
 47.270    535.000    547.827    -12.827    524.243    547.821    524.243    524.243    524.243
 47.370    584.000    551.178     32.822    523.983    551.170    523.983    523.983    523.983
 47.470    586.271    556.235     30.036    523.726    556.223    523.726    523.726    523.726
 47.570    605.000    563.590     41.410    523.471    563.573    523.471    523.471    523.471
 47.670    585.000    573.643     11.357    523.219    573.619    523.219    523.219    523.219
 47.770    583.000    586.267     -3.267    522.969    586.234    522.969    522.969    522.969
 47.870    573.419    600.421    -27.002    522.722    600.379    522.722    522.722    522.722
 47.970    609.269    613.772     -4.503    522.478    613.721    522.478    522.478    522.478
 48.070    618.762    622.846     -4.084    522.237    622.790    522.237    522.237    522.237
 48.170    605.000    624.642    -19.642    521.999    624.587    521.999    521.999    521.999
 48.270    684.097    619.006     65.092    521.763    618.957    521.763    521.763    521.763
 48.370    626.424    608.818     17.606    521.530    608.779    521.530    521.530    521.530
 48.470    583.055    597.695    -14.641    521.299    597.666    521.299    521.299    521.299
 48.570    597.000    588.190      8.810    521.071    588.168    521.071    521.071    521.071
 48.670    578.000    581.547     -3.547    520.846    581.531    520.846    520.846    520.846
 48.770    625.850    578.074     47.775    520.624    578.063    520.624    520.624    520.624
 48.870    561.000    577.553    -16.553    520.405    577.545    520.405    520.405    520.405
 48.970    599.260    579.589     19.672    520.188    579.582    520.188    520.188    520.188
 49.070    592.000    583.886      8.114    519.974    583.880    519.974    519.974    519.974
 49.170    583.000    590.462     -7.462    519.762    590.456    519.762    519.762    519.762
 49.270    640.273    599.886     40.387    519.553    599.880    519.553    519.553    519.553
 49.370    602.826    613.726    -10.900    519.347    613.718    519.347    519.347    519.347
 49.470    661.681    635.369     26.312    519.144    635.356    519.144    519.144    519.144
 49.570    609.000    671.259    -62.259    518.943    671.239    518.943    518.943    518.943
 49.670    789.613    732.128     57.485    518.745    732.095    518.745    518.745    518.745
 49.770    761.000    833.091    -72.091    518.550    833.038    518.550    518.550    518.550
 49.870    888.000    991.000   -103.000    518.357    990.920    518.357    518.357    518.357
 49.970   1163.000   1217.900    -54.900    518.167   1217.790    518.167    518.167    518.167
 50.070   1466.000   1511.205    -45.205    517.980   1511.072    517.980    517.980    517.980
 50.170   1784.000   1842.922    -58.922    517.796   1842.785    517.796    517.796    517.796
 50.270   2231.238   2151.709     79.530    517.614   2151.601    517.614    517.614    517.614
 50.370   2374.000   2349.026     24.974    517.435   2348.990    517.435    517.435    517.435
 50.470   2250.061   2359.697   -109.636    517.258   2359.752    517.258    517.258    517.258
 50.570   2226.292   2179.526     46.766    517.084   2179.652    517.084    517.084    517.084
 50.670   1860.000   1879.709    -19.709    516.913   1879.864    516.913    516.913    516.913
 50.770   1517.000   1550.861    -33.861    516.744   1551.010    516.744    516.744    516.744
 50.870   1266.875   1258.173      8.702    516.579   1258.300    516.579    516.579    516.579
 50.970   1100.043   1032.823     67.220    516.415   1032.921    516.415    516.415    516.415
 51.070    816.000    879.117    -63.117    516.255    879.190    516.255    516.255    516.255
 51.170    719.000    784.878    -65.878    516.097    784.936    516.097    516.097    516.097
 51.270    691.000    731.275    -40.275    515.941    731.324    515.941    515.941    515.941
 51.370    723.247    700.011     23.236    515.789    700.055    515.789    515.789    515.789
 51.470    644.264    677.679    -33.414    515.639    677.718    515.639    515.639    515.639
 51.570    655.000    657.553     -2.553    515.491    657.586    515.491    515.491    515.491
 51.670    663.000    638.284     24.716    515.346    638.312    515.346    515.346    515.346
 51.770    683.844    620.851     62.993    515.204    620.872    515.204    515.204    515.204
 51.870    557.920    606.360    -48.440    515.064    606.375    515.064    515.064    515.064
 51.970    657.991    595.318     62.673    514.927    595.329    514.927    514.927    514.927
 52.070    592.657    587.625      5.031    514.793    587.633    514.793    514.793    514.793
 52.170    570.004    582.803    -12.800    514.661    582.809    514.661    514.661    514.661
 52.270    566.613    580.274    -13.661    514.531    580.278    514.531    514.531    514.531
 52.370    533.880    579.575    -45.695    514.405    579.578    514.405    514.405    514.405
 52.470    613.000    580.490     32.510    514.280    580.493    514.280    514.280    514.280
 52.570    644.000    583.132     60.868    514.159    583.134    514.159    514.159    514.159
 52.670    580.892    588.053     -7.161    514.040    588.055    514.040    514.040    514.040
 52.770    635.000    596.434     38.566    513.923    596.435    513.923    513.923    513.923
 52.870    649.049    610.316     38.734    513.809    610.317    513.809    513.809    513.809
 52.970    601.000    632.773    -31.773    513.698    632.773    513.698    513.698    513.698
 53.070    688.000    667.783     20.217    513.589    667.782    513.589    513.589    513.589
 53.170    756.000    719.562     36.438    513.482    719.560    513.482    513.482    513.482
 53.270    716.239    791.208    -74.968    513.378    791.205    513.378    513.378    513.378
 53.370    914.000    882.785     31.215    513.277    882.782    513.277    513.277    513.277
 53.470   1005.000    989.109     15.891    513.178    989.108    513.178    513.178    513.178
 53.570   1107.000   1097.461      9.539    513.081   1097.463    513.081    513.081    513.081
 53.670   1194.407   1186.362      8.044    512.987   1186.371    512.987    512.987    512.987
 53.770   1198.146   1230.087    -31.941    512.895   1230.105    512.895    512.895    512.895
 53.870   1182.482   1213.012    -30.530    512.806   1213.040    512.806    512.806    512.806
 53.970   1150.000   1141.991      8.009    512.720   1142.025    512.720    512.720    512.720
 54.070   1123.038   1040.271     82.767    512.635   1040.305    512.635    512.635    512.635
 54.170    927.005    932.007     -5.002    512.553    932.038    512.553    512.553    512.553
 54.270    861.000    833.768     27.232    512.474    833.793    512.474    512.474    512.474
 54.370    664.000    753.863    -89.863    512.397    753.883    512.397    512.397    512.397
 54.470    628.888    694.325    -65.437    512.322    694.339    512.322    512.322    512.322
 54.570    720.329    653.167     67.162    512.250    653.177    512.250    512.250    512.250
 54.670    687.000    626.524     60.476    512.180    626.531    512.180    512.180    512.180
 54.770    644.000    610.212     33.788    512.113    610.217    512.113    512.113    512.113
 54.870    587.440    600.725    -13.285    512.048    600.728    512.048    512.048    512.048
 54.970    593.000    595.574     -2.574    511.985    595.576    511.985    511.985    511.985
 55.070    597.241    593.202      4.039    511.925    593.204    511.925    511.925    511.925
 55.170    594.000    592.742      1.258    511.867    592.744    511.867    511.867    511.867
 55.270    605.000    593.766     11.234    511.811    593.768    511.811    511.811    511.811
 55.370    615.000    596.112     18.888    511.757    596.113    511.757    511.757    511.757
 55.470    603.000    599.779      3.221    511.706    599.780    511.706    511.706    511.706
 55.570    588.592    604.903    -16.311    511.657    604.904    511.657    511.657    511.657
 55.670    681.124    611.786     69.339    511.611    611.786    511.611    511.611    511.611
 55.770    626.640    621.005      5.635    511.566    621.004    511.566    511.566    511.566
 55.870    603.000    633.640    -30.640    511.524    633.639    511.524    511.524    511.524
 55.970    656.000    651.660      4.340    511.485    651.657    511.485    511.485    511.485
 56.070    654.000    678.476    -24.476    511.447    678.469    511.447    511.447    511.447
 56.170    690.000    719.570    -29.570    511.412    719.559    511.412    511.412    511.412
 56.270    816.883    782.929     33.954    511.379    782.910    511.379    511.379    511.379
 56.370    831.000    878.778    -47.778    511.348    878.750    511.348    511.348    511.348
 56.470    906.000   1018.105   -112.105    511.319   1018.065    511.319    511.319    511.319
 56.570   1142.000   1209.623    -67.623    511.292   1209.573    511.292    511.292    511.292
 56.670   1553.796   1455.406     98.390    511.268   1455.351    511.268    511.268    511.268
 56.770   1724.000   1745.817    -21.817    511.246   1745.770    511.246    511.246    511.246
 56.870   2063.444   2054.439      9.005    511.226   2054.416    511.226    511.226    511.226
 56.970   2355.000   2334.458     20.542    511.208   2334.482    511.208    511.208    511.208
 57.070   2537.000   2522.864     14.136    511.192   2522.956    511.192    511.192    511.192
 57.170   2736.000   2563.361    172.639    511.178   2563.524    511.178    511.178    511.178
 57.270   2458.000   2441.990     16.010    511.167   2442.201    511.167    511.167    511.167
 57.370   2111.000   2198.626    -87.626    511.157   2198.850    511.157    511.157    511.157
 57.470   1884.000   1898.178    -14.178    511.150   1898.388    511.150    511.150    511.150
 57.570   1586.000   1597.109    -11.109    511.144   1597.287    511.144    511.144    511.144
 57.670   1314.000   1331.337    -17.337    511.141   1331.477    511.141    511.141    511.141
 57.770   1070.000   1117.877    -47.877    511.140   1117.980    511.140    511.140    511.140
 57.870    881.000    959.800    -78.800    511.140    959.871    511.140    511.140    511.140
 57.970    907.684    851.488     56.196    511.143    851.534    511.143    511.143    511.143
 58.070    769.000    783.541    -14.541    511.148    783.567    511.148    511.148    511.148
 58.170    764.000    746.615     17.385    511.155    746.626    511.155    511.155    511.155
 58.270    730.000    733.641     -3.641    511.163    733.640    511.163    511.163    511.163
 58.370    696.000    740.421    -44.421    511.174    740.409    511.174    511.174    511.174
 58.470    756.000    765.029     -9.029    511.186    765.008    511.186    511.186    511.186
 58.570    834.340    806.576     27.764    511.201    806.546    511.201    511.201    511.201
 58.670    922.000    863.732     58.268    511.217    863.696    511.217    511.217    511.217
 58.770    973.318    933.254     40.064    511.236    933.217    511.236    511.236    511.236
 58.870   1000.845   1008.948     -8.103    511.256   1008.914    511.256    511.256    511.256
 58.970   1065.353   1082.401    -17.048    511.278   1082.377    511.278    511.278    511.278
 59.070   1197.823   1146.194     51.628    511.302   1146.182    511.302    511.302    511.302
 59.170   1220.000   1195.759     24.241    511.328   1195.762    511.328    511.328    511.328
 59.270   1223.000   1226.961     -3.961    511.355   1226.978    511.355    511.355    511.355
 59.370   1222.000   1235.393    -13.393    511.385   1235.419    511.385    511.385    511.385
 59.470   1139.187   1221.736    -82.548    511.416   1221.760    511.416    511.416    511.416
 59.570   1252.000   1195.623     56.377    511.449   1195.632    511.449    511.449    511.449
 59.670   1189.000   1170.985     18.015    511.484   1170.966    511.484    511.484    511.484
 59.770   1198.000   1159.190     38.810    511.521   1159.135    511.521    511.521    511.521
 59.870   1118.029   1167.065    -49.036    511.559   1166.968    511.559    511.559    511.559
 59.970   1232.000   1198.701     33.299    511.599   1198.557    511.599    511.599    511.599
 60.070   1274.000   1256.230     17.770    511.641   1256.041    511.641    511.641    511.641
 60.170   1292.000   1337.092    -45.092    511.684   1336.860    511.684    511.684    511.684
 60.270   1476.000   1430.418     45.582    511.729   1430.154    511.729    511.729    511.729
 60.370   1611.912   1515.741     96.171    511.776   1515.464    511.776    511.776    511.776
 60.470   1661.017   1566.196     94.820    511.825   1565.931    511.825    511.825    511.825
 60.570   1598.000   1558.816     39.184    511.875   1558.585    511.875    511.875    511.875
 60.670   1450.967   1488.065    -37.098    511.927   1487.881    511.927    511.927    511.927
 60.770   1377.235   1369.358      7.877    511.980   1369.221    511.980    511.980    511.980
 60.870   1249.000   1228.201     20.799    512.035   1228.103    512.035    512.035    512.035
 60.970   1106.000   1087.710     18.290    512.092   1087.641    512.092    512.092    512.092
 61.070   1007.000    963.569     43.431    512.150    963.521    512.150    512.150    512.150
 61.170    847.000    864.168    -17.168    512.210    864.131    512.210    512.210    512.210
 61.270    796.000    792.301      3.699    512.271    792.270    512.271    512.271    512.271
 61.370    795.000    747.293     47.707    512.334    747.261    512.334    512.334    512.334
 61.470    728.283    727.127      1.156    512.398    727.089    512.398    512.398    512.398
 61.570    735.082    730.131      4.951    512.464    730.083    512.464    512.464    512.464
 61.670    781.000    755.806     25.194    512.531    755.743    512.531    512.531    512.531
 61.770    791.000    804.621    -13.621    512.600    804.540    512.600    512.600    512.600
 61.870    833.000    876.910    -43.910    512.670    876.807    512.670    512.670    512.670
 61.970    999.000    971.228     27.772    512.742    971.102    512.742    512.742    512.742
 62.070   1080.357   1082.586     -2.228    512.815   1082.439    512.815    512.815    512.815
 62.170   1107.340   1200.869    -93.529    512.889   1200.708    512.889    512.889    512.889
 62.270   1389.699   1309.764     79.935    512.965   1309.601    512.965    512.965    512.965
 62.370   1287.000   1387.664   -100.664    513.042   1387.514    513.042    513.042    513.042
 62.470   1397.358   1413.831    -16.474    513.121   1413.708    513.121    513.121    513.121
 62.570   1289.000   1379.707    -90.707    513.201   1379.615    513.201    513.201    513.201
 62.670   1227.768   1295.050    -67.282    513.282   1294.987    513.282    513.282    513.282
 62.770   1159.004   1180.997    -21.993    513.365   1180.957    513.365    513.365    513.365
 62.870    971.965   1058.770    -86.806    513.448   1058.746    513.448    513.448    513.448
 62.970    900.000    943.915    -43.915    513.534    943.900    513.534    513.534    513.534
 63.070    901.166    845.605     55.561    513.620    845.596    513.620    513.620    513.620
 63.170    729.000    767.658    -38.658    513.707    767.651    513.707    513.707    513.707
 63.270    760.386    709.925     50.461    513.796    709.918    513.796    513.796    513.796
 63.370    722.804    669.801     53.003    513.886    669.793    513.886    513.886    513.886
 63.470    684.982    643.674     41.308    513.977    643.664    513.977    513.977    513.977
 63.570    583.584    628.047    -44.463    514.070    628.036    514.070    514.070    514.070
 63.670    680.139    620.241     59.897    514.163    620.229    514.163    514.163    514.163
 63.770    670.000    618.684     51.316    514.258    618.668    514.258    514.258    514.258
 63.870    642.000    622.913     19.087    514.354    622.894    514.354    514.354    514.354
 63.970    683.000    633.414     49.586    514.451    633.389    514.451    514.451    514.451
 64.070    601.441    651.337    -49.896    514.549    651.305    514.549    514.549    514.549
 64.170    747.000    678.111     68.889    514.648    678.068    514.648    514.648    514.648
 64.270    728.471    714.947     13.524    514.748    714.891    514.748    514.748    514.748
 64.370    841.000    762.249     78.751    514.849    762.176    514.849    514.849    514.849
 64.470    858.000    818.979     39.021    514.951    818.888    514.951    514.951    514.951
 64.570    960.203    882.023     78.180    515.054    881.915    515.054    515.054    515.054
 64.670    927.917    945.663    -17.746    515.158    945.540    515.158    515.158    515.158
 64.770   1019.000   1001.585     17.415    515.264   1001.454    515.264    515.264    515.264
 64.870   1103.500   1040.405     63.096    515.370   1040.275    515.370    515.370    515.370
 64.970   1100.000   1055.023     44.977    515.477   1054.905    515.477    515.477    515.477
 65.070   1046.000   1043.744      2.256    515.585   1043.646    515.585    515.585    515.585
 65.170   1071.000   1010.598     60.402    515.693   1010.524    515.693    515.693    515.693
 65.270   1033.643    963.211     70.432    515.803    963.163    515.803    515.803    515.803
 65.370    876.753    909.986    -33.233    515.914    909.961    515.914    515.914    515.914
 65.470    845.000    857.755    -12.755    516.025    857.749    516.025    516.025    516.025
 65.570    775.977    810.592    -34.614    516.138    810.601    516.138    516.138    516.138
 65.670    748.646    769.852    -21.206    516.251    769.872    516.251    516.251    516.251
 65.770    741.000    735.155      5.845    516.365    735.180    516.365    516.365    516.365
 65.870    695.491    705.650    -10.159    516.479    705.675    516.479    516.479    516.479
 65.970    641.000    680.790    -39.790    516.595    680.812    516.595    516.595    516.595
 66.070    667.000    660.373      6.627    516.711    660.391    516.711    516.711    516.711
 66.170    646.421    644.227      2.194    516.828    644.240    516.828    516.828    516.828
 66.270    606.000    632.087    -26.087    516.946    632.095    516.946    516.946    516.946
 66.370    644.000    623.615     20.385    517.064    623.619    517.064    517.064    517.064
 66.470    607.000    618.456    -11.456    517.183    618.458    517.183    517.183    517.183
 66.570    682.342    616.282     66.060    517.303    616.283    517.303    517.303    517.303
 66.670    629.000    616.846     12.154    517.423    616.847    517.423    517.423    517.423
 66.770    594.107    620.070    -25.964    517.544    620.071    517.544    517.544    517.544
 66.870    627.000    626.168      0.832    517.666    626.168    517.666    517.666    517.666
 66.970    614.000    635.812    -21.812    517.788    635.813    517.788    517.788    517.788
 67.070    602.202    650.348    -48.146    517.911    650.348    517.911    517.911    517.911
 67.170    671.000    672.028     -1.028    518.034    672.027    518.034    518.034    518.034
 67.270    697.000    704.237     -7.237    518.158    704.234    518.158    518.158    518.158
 67.370    710.000    751.593    -41.593    518.282    751.589    518.282    518.282    518.282
 67.470    787.000    819.786    -32.786    518.407    819.779    518.407    518.407    518.407
 67.570    932.000    914.984     17.016    518.532    914.974    518.532    518.532    518.532
 67.670   1014.020   1042.724    -28.704    518.658   1042.713    518.658    518.658    518.658
 67.770   1166.000   1206.322    -40.322    518.784   1206.314    518.784    518.784    518.784
 67.870   1360.000   1404.992    -44.992    518.911   1404.993    518.911    518.911    518.911
 67.970   1547.000   1631.941    -84.941    519.038   1631.961    519.038    519.038    519.038
 68.070   1845.000   1872.648    -27.648    519.166   1872.697    519.166    519.166    519.166
 68.170   2134.000   2103.628     30.372    519.294   2103.719    519.294    519.294    519.294
 68.270   2349.000   2293.020     55.980    519.422   2293.166    519.422    519.422    519.422
 68.370   2406.000   2406.107     -0.107    519.551   2406.314    519.551    519.551    519.551
 68.470   2443.000   2417.638     25.362    519.680   2417.899    519.680    519.680    519.680
 68.570   2294.880   2324.777    -29.897    519.809   2325.074    519.809    519.809    519.809
 68.670   2152.000   2148.854      3.146    519.939   2149.160    519.939    519.939    519.939
 68.770   2004.322   1923.936     80.386    520.068   1924.226    520.068    520.068    520.068
 68.870   1597.000   1683.288    -86.288    520.198   1683.547    520.198    520.198    520.198
 68.970   1482.000   1452.331     29.669    520.329   1452.550    520.329    520.329    520.329
 69.070   1181.000   1247.371    -66.371    520.459   1247.549    520.459    520.459    520.459
 69.170   1032.000   1076.666    -44.666    520.590   1076.804    520.590    520.590    520.590
 69.270    941.784    942.083     -0.300    520.721    942.187    520.721    520.721    520.721
 69.370    783.725    840.988    -57.264    520.852    841.064    520.852    520.852    520.852
 69.470    777.547    768.142      9.405    520.984    768.196    520.984    520.984    520.984
 69.570    728.000    717.374     10.626    521.115    717.412    521.115    521.115    521.115
 69.670    698.397    682.798     15.599    521.246    682.825    521.246    521.246    521.246
 69.770    671.000    659.503     11.497    521.378    659.522    521.378    521.378    521.378
 69.870    684.289    643.780     40.510    521.510    643.794    521.510    521.510    521.510
 69.970    597.046    633.049    -36.003    521.642    633.059    521.642    521.642    521.642
 70.070    651.000    625.637     25.363    521.773    625.645    521.773    521.773    521.773
 70.170    554.569    620.520    -65.951    521.905    620.525    521.905    521.905    521.905
 70.270    585.000    617.106    -32.106    522.037    617.110    522.037    522.037    522.037
 70.370    603.000    615.083    -12.083    522.169    615.085    522.169    522.169    522.169
 70.470    614.000    614.320     -0.320    522.301    614.320    522.301    522.301    522.301
 70.570    551.242    614.832    -63.590    522.433    614.830    522.433    522.433    522.433
 70.670    616.000    616.784     -0.784    522.565    616.781    522.565    522.565    522.565
 70.770    671.232    620.538     50.694    522.696    620.533    522.696    522.696    522.696
 70.870    592.131    626.738    -34.607    522.828    626.730    522.828    522.828    522.828
 70.970    641.000    636.425      4.575    522.959    636.414    522.959    522.959    522.959
 71.070    596.733    651.173    -54.441    523.091    651.157    523.091    523.091    523.091
 71.170    703.670    673.200     30.469    523.222    673.177    523.222    523.222    523.222
 71.270    703.000    705.402     -2.402    523.353    705.369    523.353    523.353    523.353
 71.370    797.000    751.232     45.768    523.484    751.186    523.484    523.484    523.484
 71.470    826.420    814.361     12.059    523.615    814.298    523.615    523.615    523.615
 71.570    899.000    898.072      0.928    523.745    897.988    523.745    523.745    523.745
 71.670   1048.000   1004.419     43.581    523.875   1004.310    523.875    523.875    523.875
 71.770   1091.591   1133.253    -41.662    524.005   1133.116    524.005    524.005    524.005
 71.870   1257.000   1281.236    -24.236    524.135   1281.071    524.135    524.135    524.135
 71.970   1401.865   1440.959    -39.094    524.264   1440.768    524.264    524.264    524.264
 72.070   1585.916   1600.221    -14.305    524.394   1600.011    524.394    524.394    524.394
 72.170   1775.000   1741.838     33.162    524.522   1741.620    524.522    524.522    524.522
 72.270   1735.920   1845.186   -109.266    524.651   1844.974    524.651    524.651    524.651
 72.370   1841.000   1891.209    -50.209    524.779   1891.021    524.779    524.779    524.779
 72.470   1760.270   1870.165   -109.895    524.907   1870.012    524.907    524.907    524.907
 72.570   1793.895   1786.624      7.271    525.034   1786.511    525.034    525.034    525.034
 72.670   1620.000   1656.931    -36.931    525.161   1656.855    525.161    525.161    525.161
 72.770   1529.000   1501.766     27.234    525.288   1501.721    525.288    525.288    525.288
 72.870   1364.727   1339.894     24.833    525.414   1339.871    525.414    525.414    525.414
 72.970   1199.742   1185.457     14.285    525.540   1185.449    525.540    525.540    525.540
 73.070   1048.000   1047.657      0.343    525.665   1047.657    525.665    525.665    525.665
 73.170    937.000    931.315      5.685    525.790    931.320    525.790    525.790    525.790
 73.270    772.168    837.712    -65.543    525.914    837.718    525.914    525.914    525.914
 73.370    829.824    765.547     64.277    526.038    765.552    526.038    526.038    526.038
 73.470    692.590    711.934    -19.344    526.161    711.938    526.161    526.161    526.161
 73.570    699.000    673.306     25.694    526.284    673.308    526.284    526.284    526.284
 73.670    610.987    646.109    -35.122    526.406    646.110    526.406    526.406    526.406
 73.770    658.000    627.246     30.754    526.527    627.247    526.527    526.527    526.527
 73.870    655.000    614.273     40.727    526.648    614.275    526.648    526.648    526.648
 73.970    650.000    605.415     44.585    526.769    605.418    526.769    526.769    526.769
 74.070    705.000    599.462    105.538    526.888    599.468    526.888    526.888    526.888
 74.170    630.519    595.635     34.884    527.007    595.644    527.007    527.007    527.007
 74.270    654.137    593.435     60.702    527.126    593.447    527.126    527.126    527.126
 74.370    646.209    592.518     53.690    527.243    592.535    527.243    527.243    527.243
 74.470    652.000    592.609     59.391    527.360    592.631    527.360    527.360    527.360
 74.570    627.000    593.428     33.572    527.477    593.455    527.477    527.477    527.477
 74.670    645.000    594.653     50.347    527.592    594.685    527.592    527.592    527.592
 74.770    633.625    595.896     37.729    527.707    595.933    527.707    527.707    527.707
 74.870    685.000    596.721     88.279    527.821    596.763    527.821    527.821    527.821
 74.970    661.000    596.726     64.274    527.934    596.770    527.934    527.934    527.934
 75.070    714.000    595.671    118.329    528.047    595.715    528.047    528.047    528.047
 75.170    666.000    593.590     72.410    528.158    593.632    528.158    528.158    528.158
 75.270    653.000    590.791     62.209    528.269    590.829    528.269    528.269    528.269
 75.370    631.000    587.747     43.253    528.379    587.780    528.379    528.379    528.379
 75.470    698.000    584.984    113.016    528.488    585.010    528.488    528.488    528.488
 75.570    666.000    583.014     82.986    528.597    583.033    528.597    528.597    528.597
 75.670    663.000    582.329     80.671    528.704    582.342    528.704    528.704    528.704
 75.770    554.000    583.404    -29.404    528.811    583.410    528.811    528.811    528.811
 75.870    639.000    586.692     52.308    528.916    586.691    528.916    528.916    528.916
 75.970    598.000    592.605      5.395    529.021    592.597    529.021    529.021    529.021
 76.070    648.000    601.469     46.531    529.124    601.454    529.124    529.124    529.124
 76.170    621.000    613.456      7.544    529.227    613.434    529.227    529.227    529.227
 76.270    631.291    628.511      2.780    529.329    628.480    529.329    529.329    529.329
 76.370    659.000    646.261     12.739    529.430    646.222    529.430    529.430    529.430
 76.470    670.447    665.940      4.507    529.529    665.893    529.529    529.529    529.529
 76.570    688.000    686.322      1.678    529.628    686.268    529.628    529.628    529.628
 76.670    672.617    705.678    -33.061    529.726    705.619    529.726    529.726    529.726
 76.770    748.000    721.832     26.168    529.822    721.770    529.822    529.822    529.822
 76.870    792.343    732.439     59.904    529.918    732.376    529.918    529.918    529.918
 76.970    771.000    735.612     35.388    530.012    735.552    530.012    530.012    530.012
 77.070    766.000    730.679     35.321    530.106    730.623    530.106    530.106    530.106
 77.170    695.000    718.503    -23.503    530.198    718.454    530.198    530.198    530.198
 77.270    689.000    701.071    -12.071    530.289    701.030    530.289    530.289    530.289
 77.370    725.000    680.721     44.279    530.379    680.686    530.379    530.379    530.379
 77.470    682.000    659.547     22.453    530.468    659.519    530.468    530.468    530.468
 77.570    647.000    639.163      7.837    530.556    639.141    530.556    530.556    530.556
 77.670    655.473    620.670     34.803    530.642    620.654    530.642    530.642    530.642
 77.770    555.000    604.705    -49.705    530.727    604.692    530.727    530.727    530.727
 77.870    566.000    591.511    -25.511    530.812    591.502    530.812    530.812    530.812
 77.970    578.000    581.027     -3.027    530.894    581.020    530.894    530.894    530.894
 78.070    565.000    572.989     -7.989    530.976    572.984    530.976    530.976    530.976
 78.170    547.000    567.016    -20.016    531.056    567.012    531.056    531.056    531.056
 78.270    580.000    562.689     17.311    531.135    562.686    531.135    531.135    531.135
 78.370    552.000    559.616     -7.616    531.213    559.613    531.213    531.213    531.213
 78.470    569.000    557.462     11.538    531.290    557.460    531.290    531.290    531.290
 78.570    572.000    555.964     16.036    531.365    555.962    531.365    531.365    531.365
 78.670    541.000    554.928    -13.928    531.439    554.926    531.439    531.439    531.439
 78.770    540.000    554.221    -14.221    531.512    554.219    531.512    531.512    531.512
 78.870    547.704    553.756     -6.052    531.583    553.755    531.583    531.583    531.583
 78.970    565.000    553.484     11.516    531.653    553.483    531.653    531.653    531.653
 79.070    546.529    553.379     -6.851    531.721    553.378    531.721    531.721    531.721
 79.170    603.460    553.435     50.026    531.788    553.434    531.788    531.788    531.788
 79.270    587.739    553.658     34.080    531.854    553.657    531.854    531.854    531.854
 79.370    549.000    554.067     -5.067    531.918    554.066    531.918    531.918    531.918
 79.470    506.552    554.691    -48.138    531.981    554.689    531.981    531.981    531.981
 79.570    588.967    555.565     33.403    532.042    555.563    532.042    532.042    532.042
 79.670    557.000    556.738      0.262    532.102    556.736    532.102    532.102    532.102
 79.770    586.000    558.272     27.728    532.161    558.269    532.161    532.161    532.161
 79.870    545.202    560.245    -15.044    532.218    560.242    532.218    532.218    532.218
 79.970    573.000    562.762     10.238    532.274    562.758    532.274    532.274    532.274
 80.070    629.909    565.955     63.954    532.328    565.951    532.328    532.328    532.328
 80.170    552.000    569.995    -17.995    532.380    569.990    532.380    532.380    532.380
 80.270    553.000    575.086    -22.086    532.431    575.081    532.431    532.431    532.431
 80.370    520.126    581.467    -61.341    532.481    581.462    532.481    532.481    532.481
 80.470    549.000    589.409    -40.409    532.529    589.405    532.529    532.529    532.529
 80.570    609.000    599.201      9.799    532.575    599.199    532.575    532.575    532.575
 80.670    632.000    611.128     20.872    532.620    611.127    532.620    532.620    532.620
 80.770    593.000    625.404    -32.404    532.663    625.406    532.663    532.663    532.663
 80.870    613.000    642.093    -29.093    532.705    642.100    532.705    532.705    532.705
 80.970    708.789    661.017     47.773    532.745    661.028    532.745    532.745    532.745
 81.070    688.000    681.681      6.319    532.783    681.698    532.783    532.783    532.783
 81.170    668.725    703.254    -34.530    532.820    703.278    532.820    532.820    532.820
 81.270    729.000    724.619      4.381    532.855    724.649    532.855    532.855    532.855
 81.370    685.209    744.522    -59.313    532.889    744.559    532.889    532.889    532.889
 81.470    783.000    761.780     21.220    532.921    761.823    532.921    532.921    532.921
 81.570    713.000    775.429    -62.429    532.951    775.479    532.951    532.951    532.951
 81.670    715.619    784.800    -69.181    532.979    784.856    532.979    532.979    532.979
 81.770    799.000    789.558      9.442    533.006    789.619    533.006    533.006    533.006
 81.870    732.728    789.721    -56.992    533.031    789.786    533.031    533.031    533.031
 81.970    854.669    785.562     69.106    533.055    785.631    533.055    533.055    533.055
 82.070    755.000    777.489    -22.489    533.077    777.560    533.077    533.077    533.077
 82.170    744.000    766.009    -22.009    533.097    766.082    533.097    533.097    533.097
 82.270    742.402    751.811     -9.409    533.115    751.883    533.115    533.115    533.115
 82.370    721.000    735.755    -14.755    533.131    735.826    533.131    533.131    533.131
 82.470    692.000    718.732    -26.732    533.146    718.800    533.146    533.146    533.146
 82.570    682.817    701.462    -18.644    533.159    701.526    533.159    533.159    533.159
 82.670    638.000    684.428    -46.428    533.170    684.488    533.170    533.170    533.170
 82.770    748.000    667.950     80.050    533.180    668.006    533.180    533.180    533.180
 82.870    640.000    652.321    -12.321    533.187    652.370    533.187    533.187    533.187
 82.970    607.000    637.874    -30.874    533.193    637.917    533.193    533.193    533.193
 83.070    650.422    624.968     25.454    533.197    625.004    533.197    533.197    533.197
 83.170    645.726    613.917     31.809    533.199    613.945    533.199    533.199    533.199
 83.270    591.000    604.945    -13.945    533.200    604.966    533.200    533.200    533.200
 83.370    568.000    598.174    -30.174    533.198    598.187    533.198    533.198    533.198
 83.470    644.230    593.625     50.606    533.195    593.629    533.195    533.195    533.195
 83.570    562.000    591.223    -29.223    533.190    591.219    533.190    533.190    533.190
 83.670    560.000    590.802    -30.802    533.183    590.790    533.183    533.183    533.183
 83.770    619.406    592.102     27.304    533.174    592.082    533.174    533.174    533.174
 83.870    600.000    594.769      5.231    533.163    594.742    533.163    533.163    533.163
 83.970    554.000    598.360    -44.360    533.150    598.326    533.150    533.150    533.150
 84.070    576.644    602.344    -25.700    533.136    602.304    533.136    533.136    533.136
 84.170    609.000    606.121      2.879    533.119    606.077    533.119    533.119    533.119
 84.270    601.000    609.062     -8.062    533.101    609.015    533.101    533.101    533.101
 84.370    585.000    610.594    -25.594    533.080    610.546    533.080    533.080    533.080
 84.470    632.000    610.326     21.674    533.058    610.279    533.058    533.058    533.058
 84.570    562.000    608.157    -46.157    533.034    608.113    533.034    533.034    533.034
 84.670    615.992    604.293     11.699    533.008    604.252    533.008    533.008    533.008
 84.770    608.000    599.157      8.843    532.980    599.121    532.980    532.980    532.980
 84.870    562.000    593.254    -31.254    532.950    593.222    532.950    532.950    532.950
 84.970    545.077    587.064    -41.986    532.918    587.037    532.918    532.918    532.918
 85.070    541.000    580.984    -39.984    532.884    580.962    532.884    532.884    532.884
 85.170    509.000    575.291    -66.291    532.848    575.272    532.848    532.848    532.848
 85.270    571.000    570.214      0.786    532.810    570.198    532.810    532.810    532.810
 85.370    574.000    565.909      8.091    532.770    565.897    532.770    532.770    532.770
 85.470    515.106    562.385    -47.279    532.729    562.375    532.729    532.729    532.729
 85.570    534.000    559.621    -25.621    532.685    559.612    532.685    532.685    532.685
 85.670    602.719    557.561     45.158    532.639    557.553    532.639    532.639    532.639
 85.770    586.000    556.129     29.871    532.591    556.122    532.591    532.591    532.591
 85.870    539.000    555.246    -16.246    532.541    555.239    532.541    532.541    532.541
 85.970    524.000    554.846    -30.846    532.490    554.838    532.490    532.490    532.490
 86.070    585.000    554.885     30.115    532.436    554.876    532.436    532.436    532.436
 86.170    570.000    555.347     14.653    532.380    555.337    532.380    532.380    532.380
 86.270    525.000    556.248    -31.248    532.322    556.237    532.322    532.322    532.322
 86.370    528.000    557.637    -29.637    532.262    557.624    532.262    532.262    532.262
 86.470    579.000    559.592     19.408    532.200    559.576    532.200    532.200    532.200
 86.570    569.794    562.213      7.581    532.136    562.194    532.136    532.136    532.136
 86.670    563.000    565.619     -2.619    532.070    565.596    532.070    532.070    532.070
 86.770    565.000    569.933     -4.933    532.002    569.904    532.002    532.002    532.002
 86.870    586.000    575.262     10.738    531.932    575.226    531.932    531.932    531.932
 86.970    580.904    581.685     -0.781    531.859    581.642    531.859    531.859    531.859
 87.070    610.535    589.228     21.307    531.785    589.175    531.785    531.785    531.785
 87.170    600.000    597.834      2.166    531.709    597.771    531.709    531.709    531.709
 87.270    637.000    607.345     29.655    531.630    607.272    531.630    531.630    531.630
 87.370    616.000    617.482     -1.482    531.550    617.398    531.550    531.550    531.550
 87.470    651.000    627.825     23.175    531.467    627.730    531.467    531.467    531.467
 87.570    673.000    637.817     35.183    531.383    637.713    531.383    531.383    531.383
 87.670    657.000    646.777     10.223    531.296    646.666    531.296    531.296    531.296
 87.770    666.000    653.963     12.037    531.207    653.847    531.207    531.207    531.207
 87.870    725.700    658.696     67.004    531.117    658.579    531.117    531.117    531.117
 87.970    612.272    660.527    -48.255    531.024    660.413    531.024    531.024    531.024
 88.070    702.000    659.372     42.628    530.929    659.265    530.929    530.929    530.929
 88.170    693.000    655.542     37.458    530.832    655.445    530.832    530.832    530.832
 88.270    703.000    649.644     53.356    530.732    649.559    530.732    530.732    530.732
 88.370    656.000    642.431     13.569    530.631    642.359    530.631    530.631    530.631
 88.470    658.000    634.683     23.317    530.528    634.624    530.528    530.528    530.528
 88.570    627.889    627.125      0.763    530.422    627.079    530.422    530.422    530.422
 88.670    622.000    620.389      1.611    530.315    620.355    530.315    530.315    530.315
 88.770    673.066    614.976     58.090    530.205    614.954    530.205    530.205    530.205
 88.870    612.000    611.241      0.759    530.094    611.229    530.094    530.094    530.094
 88.970    633.000    609.371     23.629    529.980    609.369    529.980    529.980    529.980
 89.070    550.000    609.391    -59.391    529.864    609.398    529.864    529.864    529.864
 89.170    602.000    611.164     -9.164    529.746    611.181    529.746    529.746    529.746
 89.270    650.000    614.408     35.592    529.626    614.433    529.626    529.626    529.626
 89.370    628.000    618.706      9.294    529.504    618.739    529.504    529.504    529.504
 89.470    609.000    623.524    -14.524    529.379    623.565    529.379    529.379    529.379
 89.570    659.843    628.238     31.605    529.253    628.285    529.253    529.253    529.253
 89.670    608.000    632.172    -24.172    529.125    632.225    529.125    529.125    529.125
 89.770    594.000    634.678    -40.678    528.994    634.737    528.994    528.994    528.994
 89.870    609.000    635.256    -26.256    528.861    635.318    528.861    528.861    528.861
 89.970    610.000    633.664    -23.664    528.727    633.727    528.727    528.727    528.727
 90.070    607.000    629.974    -22.974    528.590    630.036    528.590    528.590    528.590
 90.170    631.955    624.528      7.427    528.451    624.588    528.451    528.451    528.451
 90.270    597.000    617.820    -20.820    528.310    617.875    528.310    528.310    528.310
 90.370    597.000    610.380    -13.380    528.167    610.430    528.167    528.167    528.167
 90.470    596.886    602.695     -5.809    528.022    602.739    528.022    528.022    528.022
 90.570    593.000    595.171     -2.171    527.875    595.209    527.875    527.875    527.875
 90.670    563.000    588.122    -25.122    527.726    588.154    527.726    527.726    527.726
 90.770    539.000    581.768    -42.768    527.574    581.795    527.574    527.574    527.574
 90.870    545.755    576.248    -30.493    527.421    576.269    527.421    527.421    527.421
 90.970    607.699    571.623     36.076    527.266    571.639    527.266    527.266    527.266
 91.070    566.853    567.894     -1.042    527.108    567.907    527.108    527.108    527.108
 91.170    576.000    565.021     10.979    526.949    565.030    526.949    526.949    526.949
 91.270    550.000    562.935    -12.935    526.787    562.941    526.787    526.787    526.787
 91.370    572.743    561.559     11.184    526.623    561.562    526.623    526.623    526.623
 91.470    548.000    560.820    -12.820    526.458    560.821    526.458    526.458    526.458
 91.570    536.000    560.663    -24.663    526.290    560.663    526.290    526.290    526.290
 91.670    571.582    561.061     10.521    526.120    561.059    526.120    526.120    526.120
 91.770    570.551    562.014      8.537    525.949    562.011    525.949    525.949    525.949
 91.870    528.000    563.562    -35.562    525.775    563.557    525.775    525.775    525.775
 91.970    503.635    565.776    -62.141    525.599    565.769    525.599    525.599    525.599
 92.070    554.000    568.761    -14.761    525.421    568.752    525.421    525.421    525.421
 92.170    538.000    572.649    -34.649    525.241    572.637    525.241    525.241    525.241
 92.270    525.000    577.591    -52.591    525.060    577.577    525.060    525.060    525.060
 92.370    520.105    583.749    -63.643    524.876    583.731    524.876    524.876    524.876
 92.470    610.000    591.277     18.723    524.690    591.255    524.690    524.690    524.690
 92.570    560.154    600.312    -40.158    524.502    600.285    524.502    524.502    524.502
 92.670    578.000    610.953    -32.953    524.313    610.920    524.313    524.313    524.313
 92.770    580.000    623.245    -43.245    524.121    623.207    524.121    524.121    524.121
 92.870    639.000    637.167      1.833    523.927    637.122    523.927    523.927    523.927
 92.970    702.463    652.611     49.853    523.731    652.559    523.731    523.731    523.731
 93.070    619.898    669.369    -49.471    523.534    669.310    523.534    523.534    523.534
 93.170    640.000    687.125    -47.125    523.334    687.060    523.334    523.334    523.334
 93.270    664.776    705.454    -40.678    523.133    705.383    523.133    523.133    523.133
 93.370    771.611    723.839     47.772    522.930    723.763    522.930    522.930    522.930
 93.470    703.000    741.734    -38.734    522.724    741.653    522.724    522.724    522.724
 93.570    760.597    758.660      1.936    522.517    758.577    522.517    522.517    522.517
 93.670    795.217    774.325     20.892    522.308    774.240    522.308    522.308    522.308
 93.770    779.644    788.684     -9.040    522.097    788.599    522.097    522.097    522.097
 93.870    790.000    801.929    -11.929    521.884    801.844    521.884    521.884    521.884
 93.970    852.282    814.372     37.910    521.669    814.288    521.669    521.669    521.669
 94.070    768.000    826.301    -58.301    521.453    826.219    521.453    521.453    521.453
 94.170    804.000    837.948    -33.948    521.234    837.867    521.234    521.234    521.234
 94.270    814.198    849.382    -35.184    521.014    849.303    521.014    521.014    521.014
 94.370    888.532    860.606     27.925    520.792    860.530    520.792    520.792    520.792
 94.470    799.000    871.641    -72.641    520.568    871.567    520.568    520.568    520.568
 94.570    901.000    882.550     18.450    520.342    882.479    520.342    520.342    520.342
 94.670    870.000    893.386    -23.386    520.115    893.319    520.115    520.115    520.115
 94.770    941.242    904.069     37.173    519.886    904.006    519.886    519.886    519.886
 94.870    899.447    914.262    -14.815    519.654    914.203    519.654    519.654    519.654
 94.970    990.515    923.303     67.212    519.422    923.250    519.422    519.422    519.422
 95.070    997.000    930.216     66.784    519.187    930.170    519.187    519.187    519.187
 95.170    934.000    933.822      0.178    518.951    933.783    518.951    518.951    518.951
 95.270    937.000    932.955      4.045    518.713    932.925    518.713    518.713    518.713
 95.370    935.348    926.764      8.584    518.473    926.742    518.473    518.473    518.473
 95.470    879.000    914.994    -35.994    518.231    914.980    518.231    518.231    518.231
 95.570    913.000    898.114     14.886    517.988    898.106    517.988    517.988    517.988
 95.670    848.000    877.234    -29.234    517.743    877.232    517.743    517.743    517.743
 95.770    875.661    853.870     21.792    517.497    853.871    517.497    517.497    517.497
 95.870    849.000    829.692     19.308    517.248    829.695    517.248    517.248    517.248
 95.970    824.000    806.350     17.650    516.998    806.354    516.998    516.998    516.998
 96.070    823.251    785.380     37.871    516.747    785.382    516.747    516.747    516.747
 96.170    791.000    768.166     22.834    516.494    768.165    516.494    516.494    516.494
 96.270    820.062    755.932     64.131    516.239    755.926    516.239    516.239    516.239
 96.370    727.000    749.732    -22.732    515.983    749.722    515.983    515.983    515.983
 96.470    691.925    750.457    -58.532    515.725    750.440    515.725    515.725    515.725
 96.570    805.000    758.819     46.181    515.466    758.795    515.466    515.466    515.466
 96.670    778.000    775.352      2.648    515.205    775.319    515.205    515.205    515.205
 96.770    813.427    800.385     13.041    514.942    800.344    514.942    514.942    514.942
 96.870    841.000    834.027      6.973    514.679    833.976    514.679    514.679    514.679
 96.970    933.000    876.119     56.881    514.413    876.058    514.413    514.413    514.413
 97.070    901.000    926.194    -25.194    514.146    926.125    514.146    514.146    514.146
 97.170   1005.000    983.422     21.578    513.878    983.344    513.878    513.878    513.878
 97.270   1124.000   1046.554     77.446    513.608   1046.470    513.608    513.608    513.608
 97.370   1082.000   1113.876    -31.876    513.337   1113.786    513.337    513.337    513.337
 97.470   1116.781   1183.172    -66.390    513.064   1183.079    513.064    513.064    513.064
 97.570   1299.000   1251.706     47.294    512.790   1251.614    512.790    512.790    512.790
 97.670   1297.000   1316.263    -19.263    512.515   1316.175    512.515    512.515    512.515
 97.770   1410.000   1373.268     36.732    512.238   1373.188    512.238    512.238    512.238
 97.870   1332.576   1419.072    -86.496    511.960   1419.003    511.960    511.960    511.960
 97.970   1490.000   1450.416     39.584    511.681   1450.363    511.681    511.681    511.681
 98.070   1542.000   1465.003     76.997    511.400   1464.967    511.400    511.400    511.400
 98.170   1496.000   1461.980     34.020    511.118   1461.963    511.118    511.118    511.118
 98.270   1503.989   1442.108     61.882    510.835   1442.109    510.835    510.835    510.835
 98.370   1452.000   1407.543     44.457    510.550   1407.560    510.550    510.550    510.550
 98.470   1443.474   1361.369     82.105    510.265   1361.398    510.265    510.265    510.265
 98.570   1301.000   1307.084     -6.084    509.978   1307.121    509.978    509.978    509.978
 98.670   1283.000   1248.207     34.793    509.690   1248.250    509.690    509.690    509.690
 98.770   1183.000   1188.059     -5.059    509.400   1188.104    509.400    509.400    509.400
 98.870   1108.161   1129.589    -21.428    509.110   1129.633    509.110    509.110    509.110
 98.970   1045.000   1075.349    -30.349    508.819   1075.389    508.819    508.819    508.819
 99.070   1005.000   1027.467    -22.467    508.526   1027.502    508.526    508.526    508.526
 99.170   1037.460    987.712     49.748    508.232    987.741    508.232    508.232    508.232
 99.270    949.000    957.605     -8.605    507.938    957.627    507.938    507.938    507.938
 99.370    923.000    938.221    -15.221    507.642    938.235    507.642    507.642    507.642
 99.470    977.928    930.386     47.541    507.345    930.393    507.345    507.345    507.345
 99.570    948.000    934.654     13.346    507.048    934.654    507.048    507.048    507.048
 99.670    861.000    951.310    -90.310    506.749    951.304    506.749    506.749    506.749
 99.770    972.000    980.374     -8.374    506.449    980.364    506.449    506.449    506.449
 99.870   1011.000   1021.596    -10.596    506.149   1021.583    506.149    506.149    506.149
 99.970   1044.000   1074.441    -30.441    505.847   1074.427    505.847    505.847    505.847
100.070   1182.641   1138.050     44.591    505.545   1138.038    505.545    505.545    505.545
100.170   1231.000   1211.208     19.792    505.242   1211.200    505.242    505.242    505.242
100.270   1305.000   1292.286     12.714    504.938   1292.285    504.938    504.938    504.938
100.370   1402.000   1379.203     22.797    504.633   1379.212    504.633    504.633    504.633
100.470   1494.067   1469.399     24.668    504.327   1469.421    504.327    504.327    504.327
100.570   1643.247   1559.920     83.327    504.021   1559.959    504.021    504.021    504.021
100.670   1660.000   1647.501     12.499    503.714   1647.560    503.714    503.714    503.714
100.770   1861.000   1728.869    132.131    503.406   1728.950    503.406    503.406    503.406
100.870   1832.000   1801.077     30.923    503.098   1801.179    503.098    503.098    503.098
100.970   1958.335   1861.780     96.555    502.789   1861.904    502.789    502.789    502.789
101.070   1853.353   1909.343    -55.990    502.479   1909.487    502.479    502.479    502.479
101.170   1962.000   1942.718     19.282    502.169   1942.881    502.169    502.169    502.169
101.270   2008.000   1961.214     46.786    501.858   1961.393    501.858    501.858    501.858
101.370   1944.239   1964.339    -20.100    501.547   1964.530    501.547    501.547    501.547
101.470   1973.521   1951.850     21.671    501.235   1952.051    501.235    501.235    501.235
101.570   1953.503   1924.014     29.489    500.923   1924.221    500.923    500.923    500.923
101.670   1860.408   1881.928    -21.520    500.610   1882.138    500.610    500.610    500.610
101.770   1936.000   1827.691    108.309    500.297   1827.900    500.297    500.297    500.297
101.870   1765.838   1764.295      1.543    499.983   1764.500    499.983    499.983    499.983
101.970   1698.000   1695.261      2.739    499.669   1695.458    499.669    499.669    499.669
102.070   1677.058   1624.175     52.883    499.355   1624.363    499.355    499.355    499.355
102.170   1500.659   1554.285    -53.626    499.040   1554.460    499.040    499.040    499.040
102.270   1546.901   1488.228     58.673    498.725   1488.390    498.725    498.725    498.725
102.370   1386.000   1427.912    -41.912    498.410   1428.061    498.410    498.410    498.410
102.470   1395.102   1374.483     20.619    498.095   1374.620    498.095    498.095    498.095
102.570   1269.000   1328.357    -59.357    497.779   1328.482    497.779    497.779    497.779
102.670   1244.000   1289.268    -45.268    497.463   1289.384    497.463    497.463    497.463
102.770   1262.000   1256.348      5.652    497.147   1256.455    497.147    497.147    497.147
102.870   1163.703   1228.220    -64.517    496.831   1228.322    496.831    496.831    496.831
102.970   1189.000   1203.150    -14.150    496.515   1203.247    496.515    496.515    496.515
103.070   1174.000   1179.242     -5.242    496.199   1179.337    496.199    496.199    496.199
103.170   1178.000   1154.684     23.316    495.883   1154.777    495.883    495.883    495.883
103.270   1084.000   1128.025    -44.025    495.567   1128.118    495.567    495.567    495.567
103.370   1044.000   1098.400    -54.400    495.251   1098.492    495.251    495.251    495.251
103.470   1018.000   1065.513    -47.513    494.935   1065.603    494.935    494.935    494.935
103.570   1019.062   1029.640    -10.577    494.620   1029.728    494.620    494.620    494.620
103.670    990.967    991.451     -0.483    494.304    991.535    494.304    494.304    494.304
103.770    938.000    951.840    -13.840    493.989    951.920    493.989    493.989    493.989
103.870    974.703    911.744     62.960    493.674    911.819    493.674    493.674    493.674
103.970    828.000    872.060    -44.060    493.359    872.129    493.359    493.359    493.359
104.070    843.000    833.590      9.410    493.044    833.654    493.044    493.044    493.044
104.170    767.000    797.012    -30.012    492.730    797.069    492.730    492.730    492.730
104.270    750.000    762.862    -12.862    492.416    762.913    492.416    492.416    492.416
104.370    758.000    731.536     26.464    492.103    731.580    492.103    492.103    492.103
104.470    772.061    703.286     68.775    491.790    703.324    491.790    491.790    491.790
104.570    662.934    678.230    -15.295    491.477    678.263    491.477    491.477    491.477
104.670    692.000    656.365     35.635    491.166    656.393    491.166    491.166    491.166
104.770    703.036    637.589     65.447    490.854    637.612    490.854    490.854    490.854
104.870    658.000    621.718     36.282    490.543    621.737    490.543    490.543    490.543
104.970    628.000    608.518     19.482    490.233    608.533    490.233    490.233    490.233
105.070    609.000    597.723     11.277    489.924    597.735    489.924    489.924    489.924
105.170    633.027    589.060     43.967    489.615    589.069    489.615    489.615    489.615
105.270    596.000    582.264     13.736    489.307    582.271    489.307    489.307    489.307
105.370    564.000    577.095    -13.095    489.000    577.099    489.000    489.000    489.000
105.470    576.000    573.343      2.657    488.693    573.345    488.693    488.693    488.693
105.570    566.000    570.838     -4.838    488.387    570.838    488.387    488.387    488.387
105.670    596.178    569.449     26.729    488.083    569.447    488.083    488.083    488.083
105.770    573.000    569.083      3.917    487.779    569.079    487.779    487.779    487.779
105.870    521.166    569.684    -48.518    487.476    569.678    487.476    487.476    487.476
105.970    606.000    571.225     34.775    487.175    571.217    487.175    487.175    487.175
106.070    605.000    573.706     31.294    486.874    573.695    486.874    486.874    486.874
106.170    601.000    577.144     23.856    486.574    577.132    486.574    486.574    486.574
106.270    560.000    581.570    -21.570    486.276    581.555    486.276    486.276    486.276
106.370    578.000    587.016     -9.016    485.979    586.998    485.979    485.979    485.979
106.470    556.000    593.510    -37.510    485.683    593.489    485.683    485.683    485.683
106.570    581.000    601.064    -20.064    485.388    601.040    485.388    485.388    485.388
106.670    598.000    609.665    -11.665    485.095    609.637    485.095    485.095    485.095
106.770    622.000    619.264      2.736    484.803    619.233    484.803    484.803    484.803
106.870    573.464    629.770    -56.306    484.512    629.736    484.512    484.512    484.512
106.970    625.558    641.046    -15.488    484.223    641.009    484.223    484.223    484.223
107.070    641.000    652.899    -11.899    483.936    652.858    483.936    483.936    483.936
107.170    685.000    665.067     19.933    483.649    665.024    483.649    483.649    483.649
107.270    729.886    677.311     52.575    483.365    677.265    483.365    483.365    483.365
107.370    692.000    689.269      2.731    483.082    689.221    483.082    483.082    483.082
107.470    725.000    700.566     24.434    482.801    700.517    482.801    482.801    482.801
107.570    673.000    710.813    -37.813    482.521    710.764    482.521    482.521    482.521
107.670    695.000    719.640    -24.640    482.244    719.591    482.244    482.244    482.244
107.770    768.690    726.739     41.951    481.968    726.691    481.968    481.968    481.968
107.870    726.000    731.916     -5.916    481.694    731.871    481.694    481.694    481.694
107.970    675.000    735.134    -60.134    481.421    735.092    481.421    481.421    481.421
108.070    704.904    736.524    -31.620    481.151    736.486    481.151    481.151    481.151
108.170    707.000    736.370    -29.370    480.883    736.336    480.883    480.883    480.883
108.270    756.000    735.059     20.941    480.617    735.029    480.617    480.617    480.617
108.370    711.000    733.026    -22.026    480.353    733.000    480.353    480.353    480.353
108.470    795.099    730.695     64.403    480.091    730.674    480.091    480.091    480.091
108.570    680.000    728.442    -48.442    479.831    728.424    479.831    479.831    479.831
108.670    743.000    726.560     16.440    479.574    726.547    479.574    479.574    479.574
108.770    688.000    725.253    -37.253    479.319    725.243    479.319    479.319    479.319
108.870    721.000    724.617     -3.617    479.066    724.611    479.066    479.066    479.066
108.970    724.000    724.648     -0.648    478.816    724.646    478.816    478.816    478.816
109.070    707.177    725.240    -18.063    478.568    725.240    478.568    478.568    478.568
109.170    693.842    726.186    -32.344    478.322    726.189    478.322    478.322    478.322
109.270    766.000    727.199     38.801    478.079    727.206    478.079    478.079    478.079
109.370    734.000    727.928      6.072    477.839    727.937    477.839    477.839    477.839
109.470    662.759    727.986    -65.228    477.601    727.998    477.601    477.601    477.601
109.570    739.831    727.000     12.831    477.366    727.015    477.366    477.366    477.366
109.670    729.000    724.654      4.346    477.134    724.671    477.134    477.134    477.134
109.770    667.000    720.734    -53.734    476.905    720.752    476.905    476.905    476.905
109.870    734.000    715.162     18.838    476.678    715.181    476.678    476.678    476.678
109.970    713.523    707.999      5.524    476.455    708.020    476.455    476.455    476.455
110.070    725.000    699.427     25.573    476.234    699.447    476.234    476.234    476.234
110.170    735.804    689.710     46.095    476.017    689.730    476.017    476.017    476.017
110.270    673.108    679.161     -6.052    475.802    679.181    475.802    475.802    475.802
110.370    707.000    668.104     38.896    475.591    668.123    475.591    475.591    475.591
110.470    670.000    656.852     13.148    475.383    656.870    475.383    475.383    475.383
110.570    680.000    645.691     34.309    475.178    645.707    475.178    475.178    475.178
110.670    610.360    634.870    -24.509    474.976    634.884    474.976    474.976    474.976
110.770    604.109    624.599    -20.490    474.778    624.612    474.778    474.778    474.778
110.870    639.000    615.049     23.951    474.583    615.060    474.583    474.583    474.583
110.970    615.000    606.349      8.651    474.392    606.358    474.392    474.392    474.392
111.070    612.000    598.589     13.411    474.204    598.596    474.204    474.204    474.204
111.170    613.438    591.822     21.616    474.020    591.827    474.020    474.020    474.020
111.270    624.917    586.065     38.852    473.839    586.068    473.839    473.839    473.839
111.370    623.000    581.309     41.691    473.662    581.311    473.662    473.662    473.662
111.470    566.000    577.519    -11.519    473.489    577.518    473.489    473.489    473.489
111.570    614.000    574.640     39.360    473.320    574.638    473.320    473.320    473.320
111.670    599.405    572.605     26.799    473.155    572.602    473.155    473.155    473.155
111.770    561.000    571.339    -10.339    472.993    571.335    472.993    472.993    472.993
111.870    565.175    570.763     -5.588    472.836    570.757    472.836    472.836    472.836
111.970    585.000    570.796     14.204    472.683    570.789    472.683    472.683    472.683
112.070    538.410    571.359    -32.949    472.533    571.352    472.533    472.533    472.533
112.170    557.257    572.388    -15.131    472.388    572.379    472.388    472.388    472.388
112.270    626.276    573.819     52.457    472.248    573.810    472.248    472.248    472.248
112.370    637.000    575.590     61.410    472.111    575.580    472.111    472.111    472.111
112.470    573.786    577.674     -3.888    471.979    577.663    471.979    471.979    471.979
112.570    594.000    580.039     13.961    471.852    580.028    471.852    471.852    471.852
112.670    572.000    582.664    -10.664    471.729    582.653    471.729    471.729    471.729
112.770    578.000    585.548     -7.548    471.610    585.536    471.610    471.610    471.610
112.870    582.000    588.701     -6.701    471.496    588.689    471.496    471.496    471.496
112.970    547.360    592.148    -44.788    471.387    592.135    471.387    471.387    471.387
113.070    549.359    595.926    -46.567    471.283    595.913    471.283    471.283    471.283
113.170    575.649    600.089    -24.441    471.183    600.076    471.183    471.183    471.183
113.270    600.920    604.706     -3.786    471.089    604.692    471.089    471.089    471.089
113.370    609.000    609.865     -0.865    470.999    609.850    470.999    470.999    470.999
113.470    578.000    615.678    -37.678    470.914    615.662    470.914    470.914    470.914
113.570    636.808    622.290     14.517    470.835    622.274    470.835    470.835    470.835
113.670    667.080    629.885     37.194    470.760    629.867    470.760    470.760    470.760
113.770    616.000    638.696    -22.696    470.691    638.676    470.691    470.691    470.691
113.870    643.000    649.020     -6.020    470.627    648.997    470.627    470.627    470.627
113.970    656.000    661.229     -5.229    470.569    661.203    470.569    470.569    470.569
114.070    646.784    675.791    -29.007    470.516    675.761    470.516    470.516    470.516
114.170    713.000    693.287     19.713    470.468    693.251    470.468    470.468    470.468
114.270    673.149    714.425    -41.275    470.426    714.383    470.426    470.426    470.426
114.370    743.000    740.066      2.934    470.390    740.016    470.390    470.390    470.390
114.470    768.000    771.237     -3.237    470.359    771.177    470.359    470.359    470.359
114.570    813.705    809.146      4.559    470.334    809.073    470.334    470.334    470.334
114.670    780.537    855.191    -74.654    470.316    855.104    470.316    470.316    470.316
114.770    902.000    910.963     -8.963    470.302    910.858    470.302    470.302    470.302
114.870    968.000    978.233    -10.233    470.295    978.108    470.295    470.295    470.295
114.970   1081.000   1058.934     22.066    470.295   1058.785    470.295    470.295    470.295
115.070   1211.071   1155.124     55.947    470.300   1154.948    470.300    470.300    470.300
115.170   1262.599   1268.931     -6.332    470.311   1268.724    470.311    470.311    470.311
115.270   1534.000   1402.480    131.520    470.329   1402.239    470.329    470.329    470.329
115.370   1588.000   1557.809     30.191    470.353   1557.530    470.353    470.353    470.353
115.470   1873.000   1736.756    136.244    470.383   1736.436    470.383    470.383    470.383
115.570   2014.000   1940.844     73.156    470.420   1940.481    470.420    470.420    470.420
115.670   2290.000   2171.147    118.853    470.464   2170.740    470.464    470.464    470.464
115.770   2442.000   2428.163     13.837    470.514   2427.711    470.514    470.514    470.514
115.870   2616.745   2711.677    -94.932    470.571   2711.181    470.571    470.571    470.571
115.970   3130.000   3020.643    109.357    470.635   3020.104    470.635    470.635    470.635
116.070   3286.255   3353.079    -66.824    470.706   3352.502    470.706    470.706    470.706
116.170   3688.000   3705.988    -17.988    470.784   3705.378    470.784    470.784    470.784
116.270   4096.027   4075.300     20.727    470.868   4074.664    470.868    470.868    470.868
116.370   4630.070   4455.846    174.224    470.960   4455.194    470.960    470.960    470.960
116.470   4915.599   4841.365     74.234    471.059   4840.706    471.059    471.059    471.059
116.570   5174.000   5224.535    -50.535    471.166   5223.882    471.166    471.166    471.166
116.670   5451.000   5597.057   -146.057    471.280   5596.422    471.280    471.280    471.280
116.770   6013.000   5949.788     63.212    471.401   5949.187    471.401    471.401    471.401
116.870   6469.769   6272.971    196.799    471.529   6272.420    471.529    471.529    471.529
116.970   6475.000   6556.589    -81.589    471.666   6556.104    471.666    471.666    471.666
117.070   6809.000   6790.883     18.117    471.810   6790.477    471.810    471.810    471.810
117.170   7047.000   6967.034     79.966    471.961   6966.720    471.961    471.961    471.961
117.270   7125.226   7077.953     47.273    472.121   7077.739    472.121    472.121    472.121
117.370   7174.000   7119.044     54.956    472.288   7118.934    472.288    472.288    472.288
117.470   7057.000   7088.762    -31.762    472.464   7088.756    472.464    472.464    472.464
117.570   6935.000   6988.809    -53.809    472.648   6988.901    472.648    472.648    472.648
117.670   6930.000   6823.908    106.092    472.839   6824.089    472.839    472.839    472.839
117.770   6490.000   6601.219   -111.219    473.039   6601.476    473.039    473.039    473.039
117.870   6166.491   6329.567   -163.075    473.248   6329.885    473.248    473.248    473.248
117.970   5984.000   6018.652    -34.652    473.465   6019.018    473.465    473.465    473.465
118.070   5404.000   5678.375   -274.375    473.690   5678.774    473.690    473.690    473.690
118.170   5300.789   5318.307    -17.518    473.924   5318.726    473.924    473.924    473.924
118.270   4837.000   4947.412   -110.412    474.166   4947.838    474.166    474.166    474.166
118.370   4561.545   4573.815    -12.270    474.418   4574.238    474.418    474.418    474.418
118.470   4320.000   4204.561    115.439    474.678   4204.971    474.678    474.678    474.678
118.570   3839.000   3845.653     -6.653    474.947   3846.041    474.947    474.947    474.947
118.670   3674.000   3502.002    171.998    475.225   3502.362    475.225    475.225    475.225
118.770   3182.223   3177.430      4.793    475.513   3177.759    475.513    475.513    475.513
118.870   2877.000   2874.719      2.281    475.809   2875.015    475.809    475.809    475.809
118.970   2478.000   2595.684   -117.684    476.115   2595.944    476.115    476.115    476.115
119.070   2356.000   2341.268     14.732    476.430   2341.493    476.430    476.430    476.430
119.170   2088.000   2111.660    -23.660    476.755   2111.851    476.755    476.755    476.755
119.270   1828.000   1906.418    -78.418    477.089   1906.576    477.089    477.089    477.089
119.370   1691.000   1724.587    -33.587    477.433   1724.716    477.433    477.433    477.433
119.470   1612.830   1564.828     48.002    477.786   1564.930    477.786    477.786    477.786
119.570   1396.000   1425.519    -29.519    478.150   1425.599    478.150    478.150    478.150
119.670   1236.000   1304.867    -68.867    478.523   1304.927    478.523    478.523    478.523
119.770   1233.000   1200.993     32.007    478.906   1201.036    478.906    478.906    478.906
119.870   1149.000   1112.011     36.989    479.300   1112.041    479.300    479.300    479.300
119.970   1060.524   1036.093     24.431    479.703   1036.112    479.703    479.703    479.703
120.070   1043.922    971.516     72.406    480.117    971.527    480.117    480.117    480.117
120.170    939.000    916.697     22.303    480.542    916.702    480.542    480.542    480.542
120.270    939.994    870.212     69.782    480.976    870.213    480.976    480.976    480.976
120.370    833.000    830.805      2.195    481.422    830.803    481.422    481.422    481.422
120.470    794.000    797.384     -3.384    481.878    797.381    481.878    481.878    481.878
120.570    756.000    769.019    -13.019    482.344    769.016    482.344    482.344    482.344
120.670    766.000    744.923     21.077    482.822    744.920    482.822    482.822    482.822
120.770    783.506    724.441     59.065    483.311    724.438    483.311    483.311    483.311
120.870    744.056    707.029     37.026    483.810    707.027    483.810    483.810    483.810
120.970    658.000    692.243    -34.243    484.321    692.242    484.321    484.321    484.321
121.070    707.000    679.718     27.282    484.843    679.718    484.843    484.843    484.843
121.170    666.000    669.159     -3.159    485.377    669.160    485.377    485.377    485.377
121.270    683.000    660.323     22.677    485.921    660.326    485.921    485.921    485.921
121.370    635.279    653.014    -17.735    486.478    653.018    486.478    486.478    486.478
121.470    670.276    647.068     23.208    487.046    647.074    487.046    487.046    487.046
121.570    627.000    642.351    -15.351    487.625    642.358    487.625    487.625    487.625
121.670    638.000    638.748     -0.748    488.217    638.756    488.217    488.217    488.217
121.770    586.829    636.161    -49.332    488.821    636.170    488.821    488.821    488.821
121.870    608.000    634.502    -26.502    489.436    634.512    489.436    489.436    489.436
121.970    632.524    633.691     -1.168    490.064    633.703    490.064    490.064    490.064
122.070    640.000    633.655      6.345    490.704    633.669    490.704    490.704    490.704
122.170    646.000    634.319     11.681    491.356    634.335    491.356    491.356    491.356
122.270    603.000    635.611    -32.611    492.021    635.628    492.021    492.021    492.021
122.370    656.000    637.455     18.545    492.698    637.475    492.698    492.698    492.698
122.470    591.000    639.772    -48.772    493.388    639.794    493.388    493.388    493.388
122.570    671.000    642.480     28.520    494.091    642.505    494.091    494.091    494.091
122.670    704.630    645.489     59.141    494.806    645.516    494.806    494.806    494.806
122.770    629.000    648.705    -19.705    495.535    648.735    495.535    495.535    495.535
122.870    647.000    652.026     -5.026    496.276    652.060    496.276    496.276    496.276
122.970    588.790    655.348    -66.558    497.031    655.384    497.031    497.031    497.031
123.070    671.000    658.556     12.444    497.799    658.595    497.799    497.799    497.799
123.170    677.000    661.539     15.461    498.581    661.581    498.581    498.581    498.581
123.270    670.000    664.182      5.818    499.376    664.226    499.376    499.376    499.376
123.370    659.000    666.376     -7.376    500.184    666.423    500.184    500.184    500.184
123.470    709.000    668.020     40.980    501.007    668.070    501.007    501.007    501.007
123.570    675.000    669.033      5.967    501.843    669.085    501.843    501.843    501.843
123.670    723.500    669.352     54.147    502.693    669.405    502.693    502.693    502.693
123.770    704.585    668.941     35.643    503.557    668.995    503.557    503.557    503.557
123.870    631.950    667.792    -35.841    504.435    667.847    504.435    504.435    504.435
123.970    633.777    665.922    -32.145    505.327    665.977    505.327    505.327    505.327
124.070    694.000    663.375     30.625    506.234    663.430    506.234    506.234    506.234
124.170    669.000    660.211      8.789    507.156    660.265    507.156    507.156    507.156
124.270    644.000    656.504    -12.504    508.092    656.557    508.092    508.092    508.092
124.370    627.000    652.337    -25.337    509.042    652.388    509.042    509.042    509.042
124.470    680.000    647.796     32.204    510.008    647.845    510.008    510.008    510.008
124.570    603.000    642.967    -39.967    510.988    643.015    510.988    510.988    510.988
124.670    681.000    637.936     43.064    511.984    637.981    511.984    511.984    511.984
124.770    700.846    632.784     68.063    512.994    632.826    512.994    512.994    512.994
124.870    582.000    627.587    -45.587    514.020    627.626    514.020    514.020    514.020
124.970    674.000    622.417     51.583    515.062    622.454    515.062    515.062    515.062
