neutron_powder_diffraction_0021
R_wp: 3.695
Temperature (K): 499.716
Counts: 83316.00
Wavelength (Ã…): 2.52098
COMMENTS
Test file for demonstrating the .xyy file format in Reel1.0
END OF HEADER
   tth       Y_obs     Y_calc      Y_res    Background    Phase_1_Nuc    Phase_1_Mag    Phase_2_Nuc    Phase_2_Mag
  9.970    681.256    721.564    -40.307    719.903    720.915    720.551    719.903    719.903
 10.070    715.790    720.586     -4.796    718.837    719.931    719.492    718.837    718.837
 10.170    747.048    719.625     27.423    717.776    718.962    718.438    717.776    717.776
 10.270    749.000    718.682     30.318    716.721    718.013    717.390    716.721    716.721
 10.370    767.933    717.761     50.171    715.671    717.085    716.347    715.671    715.671
 10.470    771.862    716.866     54.997    714.627    716.181    715.310    714.627    714.627
 10.570    690.409    715.999    -25.590    713.588    715.307    714.279    713.588    713.588
 10.670    695.719    715.167    -19.448    712.554    714.468    713.253    712.554    712.554
 10.770    709.000    714.378     -5.378    711.526    713.671    712.232    711.526    711.526
 10.870    730.655    713.641     17.014    710.503    712.926    711.217    710.503    710.503
 10.970    742.659    712.969     29.690    709.486    712.246    710.207    709.486    709.486
 11.070    707.703    712.382     -4.678    708.473    711.650    709.203    708.473    708.473
 11.170    760.000    711.904     48.096    707.466    711.164    708.205    707.466    707.466
 11.270    750.932    711.575     39.357    706.465    710.827    707.211    706.465    706.465
 11.370    664.565    711.457    -46.892    705.469    710.699    706.224    705.469    705.469
 11.470    737.000    711.663     25.337    704.478    710.896    705.241    704.478    704.478
 11.570    768.171    712.438     55.733    703.492    711.661    704.264    703.492    703.492
 11.670    766.000    714.335     51.665    702.511    713.548    703.293    702.511    702.511
 11.770    762.000    718.514     43.486    701.536    717.715    702.327    701.536    701.536
 11.870    763.000    727.015     35.985    700.566    726.201    701.366    700.566    700.566
 11.970    695.278    741.980    -46.702    699.602    741.147    700.411    699.602    699.602
 12.070    810.629    764.737     45.892    698.642    763.881    699.462    698.642    698.642
 12.170    766.381    792.589    -26.207    697.688    791.707    698.517    697.688    697.688
 12.270    881.000    815.757     65.243    696.739    814.852    697.578    696.739    696.739
 12.370    843.000    820.206     22.794    695.795    819.288    696.644    695.795    695.795
 12.470    816.000    801.650     14.350    694.856    800.731    695.716    694.856    694.856
 12.570    754.000    771.985    -17.985    693.923    771.072    694.793    693.923    693.923
 12.670    754.000    744.370      9.630    692.994    743.461    693.875    692.994    692.994
 12.770    726.678    724.246      2.431    692.071    723.337    692.963    692.071    692.071
 12.870    685.000    711.552    -26.552    691.153    710.638    692.056    691.153    691.153
 12.970    711.685    704.084      7.601    690.240    703.163    691.154    690.240    690.240
 13.070    703.000    699.596      3.404    689.332    698.665    690.258    689.332    689.332
 13.170    645.000    696.605    -51.605    688.430    695.664    689.367    688.430    688.430
 13.270    672.000    694.353    -22.353    687.532    693.401    688.482    687.532    687.532
 13.370    654.749    692.501    -37.751    686.640    691.536    687.601    686.640    686.640
 13.470    667.197    690.891    -23.693    685.752    689.915    686.726    685.752    685.752
 13.570    714.623    689.450     25.173    684.870    688.462    685.857    684.870    684.870
 13.670    653.790    688.133    -34.343    683.993    687.132    684.992    683.993    683.993
 13.770    652.000    686.910    -34.910    683.120    685.896    684.133    683.120    683.120
 13.870    644.613    685.759    -41.146    682.253    684.732    683.279    682.253    682.253
 13.970    687.000    684.665      2.335    681.391    683.624    682.431    681.391    681.391
 14.070    691.000    683.617      7.383    680.534    682.562    681.588    680.534    680.534
 14.170    665.000    682.607    -17.607    679.681    681.538    680.750    679.681    679.681
 14.270    686.000    681.629      4.371    678.834    680.545    679.917    678.834    678.834
 14.370    663.000    680.678    -17.678    677.992    679.579    679.090    677.992    677.992
 14.470    655.669    679.763    -24.094    677.155    678.649    678.268    677.155    677.155
 14.570    719.099    678.867     40.233    676.322    677.737    677.452    676.322    676.322
 14.670    685.962    677.974      7.987    675.495    676.829    676.640    675.495    675.495
 14.770    619.000    677.097    -58.097    674.672    675.935    675.834    674.672    674.672
 14.870    659.888    676.233    -16.345    673.855    675.054    675.033    673.855    673.855
 14.970    646.000    675.381    -29.381    673.042    674.186    674.237    673.042    673.042
 15.070    655.000    674.545    -19.545    672.234    673.332    673.447    672.234    672.234
 15.170    652.000    673.718    -21.718    671.431    672.488    672.661    671.431    671.431
 15.270    698.654    672.899     25.755    670.633    671.651    671.881    670.633    670.633
 15.370    691.000    672.089     18.911    669.840    670.822    671.107    669.840    669.840
 15.470    638.000    671.288    -33.288    669.052    670.003    670.337    669.052    669.052
 15.570    683.966    670.496     13.470    668.269    669.191    669.573    668.269    668.269
 15.670    657.000    669.712    -12.712    667.490    668.387    668.814    667.490    667.490
 15.770    664.000    668.935     -4.935    666.716    667.591    668.061    666.716    666.716
 15.870    625.000    668.167    -43.167    665.947    666.801    667.312    665.947    665.947
 15.970    686.000    667.405     18.595    665.183    666.018    666.569    665.183    665.183
 16.070    660.134    666.650     -6.516    664.423    665.242    665.831    664.423    664.423
 16.170    718.000    665.903     52.097    663.669    664.472    665.099    663.669    663.669
 16.270    656.429    665.162     -8.733    662.919    663.709    664.372    662.919    662.919
 16.370    625.754    664.428    -38.674    662.173    662.951    663.650    662.173    662.173
 16.470    623.452    663.700    -40.248    661.433    662.200    662.933    661.433    661.433
 16.570    648.000    662.979    -14.979    660.697    661.455    662.221    660.697    660.697
 16.670    672.000    662.264      9.736    659.966    660.715    661.515    659.966    659.966
 16.770    626.000    661.556    -35.556    659.240    659.981    660.815    659.240    659.240
 16.870    713.321    660.858     52.463    658.518    659.256    660.119    658.518    658.518
 16.970    606.000    660.166    -54.166    657.801    658.537    659.429    657.801    657.801
 17.070    676.000    659.476     16.524    657.088    657.820    658.745    657.088    657.088
 17.170    677.000    658.793     18.207    656.381    657.108    658.065    656.381    656.381
 17.270    646.000    658.121    -12.121    655.678    656.406    657.392    655.678    655.678
 17.370    656.000    657.476     -1.476    654.979    655.730    656.724    654.979    654.979
 17.470    620.785    656.873    -36.089    654.285    655.096    656.063    654.285    654.285
 17.570    651.170    656.220     -5.050    653.596    654.411    655.405    653.596    653.596
 17.670    650.000    655.567     -5.567    652.911    653.725    654.753    652.911    652.911
 17.770    641.000    654.919    -13.919    652.231    653.045    654.106    652.231    652.231
 17.870    616.000    654.278    -38.278    651.556    652.369    653.465    651.556    651.556
 17.970    661.000    653.644      7.356    650.885    651.700    652.829    650.885    650.885
 18.070    659.650    653.029      6.620    650.218    651.049    652.198    650.218    650.218
 18.170    603.000    652.423    -49.423    649.556    650.405    651.573    649.556    649.556
 18.270    658.113    651.807      6.306    648.899    649.751    650.954    648.899    648.899
 18.370    677.000    651.196     25.804    648.246    649.101    650.340    648.246    648.246
 18.470    638.000    650.590    -12.590    647.597    648.455    649.732    647.597    647.597
 18.570    632.000    649.991    -17.991    646.953    647.815    649.130    646.953    646.953
 18.670    637.532    649.398    -11.866    646.314    647.179    648.533    646.314    646.314
 18.770    613.470    648.811    -35.341    645.679    646.548    647.942    645.679    645.679
 18.870    663.000    648.231     14.769    645.048    645.922    647.357    645.048    645.048
 18.970    688.561    647.660     40.901    644.422    645.304    646.777    644.422    644.422
 19.070    624.000    647.102    -23.102    643.800    644.697    646.204    643.800    643.800
 19.170    632.000    646.541    -14.541    643.182    644.087    645.636    643.182    643.182
 19.270    659.768    645.991     13.777    642.569    643.484    645.076    642.569    642.569
 19.370    637.000    645.494     -8.494    641.961    642.918    644.536    641.961    641.961
 19.470    643.000    644.978     -1.978    641.356    642.340    643.995    641.356    641.356
 19.570    662.850    644.445     18.405    640.756    641.749    643.452    640.756    640.756
 19.670    645.434    643.918      1.515    640.161    641.164    642.915    640.161    640.161
 19.770    626.000    643.413    -17.413    639.569    640.598    642.384    639.569    639.569
 19.870    609.000    642.912    -33.912    638.982    640.034    641.860    638.982    638.982
 19.970    627.000    642.405    -15.405    638.400    639.463    641.342    638.400    638.400
 20.070    619.000    641.906    -22.906    637.821    638.896    640.831    637.821    637.821
 20.170    601.066    641.429    -40.364    637.247    638.347    640.330    637.247    637.247
 20.270    644.759    640.998      3.762    636.677    637.823    639.852    636.677    636.677
 20.370    663.000    640.535     22.465    636.111    637.281    639.365    636.111    636.111
 20.470    609.000    640.077    -31.077    635.550    636.746    638.881    635.550    635.550
 20.570    613.000    639.687    -26.687    634.993    636.275    638.405    634.993    634.993
 20.670    595.000    639.257    -44.257    634.440    635.761    637.935    634.440    634.440
 20.770    615.000    638.813    -23.813    633.891    635.232    637.472    633.891    633.891
 20.870    613.000    638.376    -25.376    633.346    634.705    637.017    633.346    633.346
 20.970    597.000    637.952    -40.952    632.806    634.188    636.570    632.806    632.806
 21.070    616.000    637.572    -21.572    632.269    633.710    636.131    632.269    632.269
 21.170    614.233    637.172    -22.939    631.737    633.210    635.699    631.737    631.737
 21.270    614.000    636.774    -22.774    631.209    632.708    635.276    631.209    631.209
 21.370    606.000    636.398    -30.398    630.685    632.222    634.861    630.685    630.685
 21.470    573.000    636.031    -63.031    630.165    631.736    634.460    630.165    630.165
 21.570    633.000    635.667     -2.667    629.649    631.252    634.064    629.649    629.649
 21.670    676.000    635.310     40.690    629.138    630.773    633.675    629.138    629.138
 21.770    672.000    634.963     37.037    628.630    630.298    633.295    628.630    628.630
 21.870    672.474    634.629     37.846    628.126    629.830    632.925    628.126    628.126
 21.970    633.299    634.306     -1.007    627.627    629.368    632.565    627.627    627.627
 22.070    640.000    633.996      6.004    627.131    628.912    632.215    627.131    627.131
 22.170    679.387    633.700     45.688    626.640    628.464    631.876    626.640    626.640
 22.270    599.000    633.418    -34.418    626.152    628.023    631.548    626.152    626.152
 22.370    642.802    633.152      9.650    625.669    627.590    631.231    625.669    625.669
 22.470    650.215    632.905     17.310    625.189    627.167    630.927    625.189    625.189
 22.570    593.000    632.674    -39.674    624.714    626.753    630.635    624.714    624.714
 22.670    632.000    632.469     -0.469    624.242    626.354    630.358    624.242    624.242
 22.770    670.000    632.280     37.720    623.774    625.961    630.093    623.774    623.774
 22.870    637.000    632.112      4.888    623.310    625.580    629.842    623.310    623.310
 22.970    629.000    631.969     -2.969    622.850    625.213    629.606    622.850    622.850
 23.070    617.000    631.853    -14.853    622.394    624.862    629.386    622.394    622.394
 23.170    657.000    631.769     25.231    621.942    624.529    629.183    621.942    621.942
 23.270    629.000    631.722     -2.722    621.494    624.218    628.998    621.494    621.494
 23.370    652.000    631.713     20.287    621.049    623.932    628.831    621.049    621.049
 23.470    608.000    631.751    -23.751    620.609    623.677    628.684    620.609    620.609
 23.570    638.000    631.844      6.156    620.172    623.459    628.558    620.172    620.172
 23.670    632.196    632.002      0.195    619.739    623.288    628.454    619.739    619.739
 23.770    636.000    632.239      3.761    619.310    623.176    628.374    619.310    619.310
 23.870    647.423    632.577     14.847    618.884    623.143    628.319    618.884    618.884
 23.970    630.822    633.042     -2.220    618.462    623.214    628.292    618.462    618.462
 24.070    633.000    633.682     -0.682    618.045    623.434    628.295    618.045    618.045
 24.170    637.239    634.582      2.657    617.630    623.886    628.330    617.630    617.630
 24.270    656.336    635.918     20.418    617.220    624.743    628.399    617.220    617.220
 24.370    658.000    638.081     19.919    616.813    626.395    628.504    616.813    616.813
 24.470    692.000    641.854     50.146    616.410    629.621    628.651    616.410    616.410
 24.570    696.000    648.502     47.498    616.011    635.684    628.841    616.011    616.011
 24.670    664.000    659.502      4.498    615.615    646.058    629.079    615.615    615.615
 24.770    724.000    675.573     48.427    615.223    661.457    629.370    615.223    615.223
 24.870    675.133    694.939    -19.806    614.835    680.100    629.719    614.835    614.835
 24.970    736.000    711.455     24.545    614.450    695.831    630.131    614.450    614.450
 25.070    690.000    716.146    -26.146    614.069    699.660    630.614    614.069    614.069
 25.170    720.000    705.833     14.167    613.691    688.400    631.176    613.691    613.691
 25.270    742.000    687.803     54.197    613.317    669.334    631.824    613.317    613.317
 25.370    683.000    670.673     12.327    612.947    651.074    632.571    612.947    612.947
 25.470    687.039    658.311     28.729    612.580    637.480    633.426    612.580    612.580
 25.570    694.000    650.976     43.024    612.217    628.797    634.405    612.217    612.217
 25.670    699.296    647.395     51.900    611.857    623.734    635.525    611.857    611.857
 25.770    622.000    646.126    -24.126    611.501    620.828    636.803    611.501    611.501
 25.870    641.000    646.160     -5.160    611.149    619.048    638.263    611.149    611.149
 25.970    643.000    646.976     -3.976    610.799    617.841    639.936    610.799    610.799
 26.070    624.000    648.333    -24.333    610.454    616.937    641.851    610.454    610.454
 26.170    701.102    650.157     50.946    610.111    616.225    644.043    610.111    610.111
 26.270    702.370    652.445     49.925    609.773    615.652    646.565    609.773    609.773
 26.370    695.639    655.227     40.412    609.437    615.188    649.475    609.437    609.437
 26.470    700.000    658.558     41.442    609.105    614.816    652.847    609.105    609.105
 26.570    652.692    662.521     -9.829    608.777    614.525    656.771    608.777    608.777
 26.670    617.863    667.225    -49.362    608.452    614.310    661.365    608.452    608.452
 26.770    660.427    672.819    -12.392    608.130    614.171    666.775    608.130    608.130
 26.870    707.000    679.500     27.500    607.812    614.113    673.195    607.812    607.812
 26.970    665.000    687.529    -22.529    607.497    614.145    680.877    607.497    607.497
 27.070    661.000    697.261    -36.261    607.185    614.280    690.161    607.185    607.185
 27.170    757.412    709.177     48.234    606.877    614.540    701.508    606.877    606.877
 27.270    670.097    723.961    -53.864    606.572    614.958    715.568    606.572    606.572
 27.370    728.000    742.556    -14.556    606.270    615.575    733.242    606.270    606.270
 27.470    802.920    766.394     36.525    605.972    616.463    755.892    605.972    605.972
 27.570    807.000    797.793      9.207    605.677    617.731    785.723    605.677    605.677
 27.670    820.000    841.488    -21.488    605.385    619.608    827.245    605.385    605.385
 27.770    928.261    910.644     17.617    605.096    622.721    892.990    605.096    605.096
 27.870   1018.183   1046.076    -27.893    604.811    629.010   1021.823    604.811    604.811
 27.970   1379.188   1357.396     21.792    604.528    643.681   1318.130    604.528    604.528
 28.070   1951.000   2060.583   -109.583    604.249    676.984   1987.597    604.249    604.249
 28.170   3490.917   3410.250     80.667    603.974    741.011   3272.720    603.974    603.974
 28.270   5245.000   5425.897   -180.897    603.701    836.720   5192.092    603.701    603.701
 28.370   7413.000   7532.479   -119.479    603.432    936.926   7198.032    603.432    603.432
 28.470   8403.207   8548.011   -144.804    603.165    985.783   8164.626    603.165    603.165
 28.570   7805.673   7722.177     83.495    602.902    948.208   7376.597    602.902    602.902
 28.670   6155.000   5858.597    296.403    602.642    863.371   5597.987    602.642    602.642
 28.770   4133.654   4244.046   -110.392    602.385    794.011   4052.647    602.385    602.385
 28.870   3553.000   3561.688     -8.688    602.131    774.141   3389.832    602.131    602.131
 28.970   3785.194   3784.846      0.348    601.880    802.089   3584.697    601.880    601.880
 29.070   4403.650   4412.640     -8.990    601.633    849.390   4164.937    601.633    601.633
 29.170   4714.000   4735.914    -21.914    601.388    873.149   4464.321    601.388    601.388
 29.270   4435.992   4307.966    128.025    601.146    845.868   4063.566    601.146    601.146
 29.370   3355.698   3365.338     -9.640    600.908    784.008   3182.614    600.908    600.908
 29.470   2333.000   2389.927    -56.927    600.672    719.762   2271.153    600.672    600.672
 29.570   1650.416   1659.835     -9.419    600.440    671.658   1588.830    600.440    600.440
 29.670   1263.566   1218.597     44.969    600.210    642.631   1176.297    600.210    600.210
 29.770   1012.000    987.802     24.198    599.983    627.516    960.332    599.983    599.983
 29.870    922.000    873.004     48.996    599.760    620.075    852.720    599.760    599.760
 29.970    787.290    811.672    -24.382    599.539    616.185    795.043    599.539    599.539
 30.070    884.000    773.686    110.314    599.321    613.869    759.148    599.321    599.321
 30.170    782.000    747.047     34.953    599.106    612.357    733.802    599.106    599.106
 30.270    762.000    727.168     34.832    598.894    611.384    714.682    598.894    598.894
 30.370    724.000    712.114     11.886    598.685    610.903    699.898    598.685    598.685
 30.470    730.000    701.110     28.890    598.478    611.047    688.542    598.478    598.478
 30.570    682.000    694.341    -12.341    598.275    612.243    680.369    598.275    598.275
 30.670    713.000    693.099     19.901    598.074    615.362    675.802    598.074    598.074
 30.770    657.131    699.630    -42.499    597.877    621.673    675.815    597.877    597.877
 30.870    695.314    715.936    -20.622    597.682    632.283    681.303    597.682    597.682
 30.970    739.000    741.276     -2.276    597.489    646.924    691.791    597.489    597.489
 31.070    781.940    768.973     12.966    597.300    662.407    703.801    597.300    597.300
 31.170    842.742    785.263     57.479    597.113    672.053    710.251    597.113    597.113
 31.270    748.000    777.834    -29.834    596.929    669.884    704.814    596.929    596.929
 31.370    737.000    749.412    -12.412    596.748    657.270    688.842    596.748    596.748
 31.470    707.000    713.889     -6.889    596.570    641.032    669.395    596.570    596.570
 31.570    693.000    682.851     10.149    596.394    626.864    652.362    596.394    596.394
 31.670    675.000    660.746     14.254    596.221    616.961    639.995    596.221    596.221
 31.770    701.000    646.971     54.029    596.051    611.046    631.969    596.051    596.051
 31.870    664.614    638.940     25.673    595.883    607.868    626.951    595.883    595.883
 31.970    678.000    634.183     43.817    595.718    606.230    623.668    595.718    595.718
 32.070    642.451    631.114     11.337    595.556    605.368    621.299    595.556    595.556
 32.170    682.000    628.936     53.064    595.396    604.902    619.428    595.396    595.396
 32.270    579.525    627.305    -47.780    595.239    604.672    617.870    595.239    595.239
 32.370    673.000    626.076     46.924    595.084    604.617    616.542    595.084    595.084
 32.470    608.831    625.188    -16.357    594.932    604.715    615.404    594.932    594.932
 32.570    602.779    624.615    -21.835    594.783    604.963    614.433    594.783    594.783
 32.670    647.363    624.350     23.012    594.636    605.371    613.615    594.636    594.636
 32.770    662.000    624.409     37.591    594.492    605.955    612.945    594.492    594.492
 32.870    675.000    624.823     50.177    594.350    606.748    612.424    594.350    594.350
 32.970    641.000    625.646     15.354    594.211    607.794    612.062    594.211    594.211
 33.070    697.000    626.962     70.038    594.074    609.159    611.876    594.074    594.074
 33.170    615.000    628.900    -13.900    593.940    610.941    611.897    593.940    593.940
 33.270    664.000    631.668     32.332    593.808    613.294    612.181    593.808    593.808
 33.370    669.645    635.652     33.993    593.679    616.500    612.828    593.679    593.679
 33.470    632.000    641.667     -9.667    593.552    621.154    614.062    593.552    593.552
 33.570    649.000    651.537     -2.537    593.428    628.578    616.381    593.428    593.428
 33.670    698.000    669.096     28.904    593.306    641.554    620.839    593.306    593.306
 33.770    736.000    701.275     34.725    593.186    665.105    629.342    593.186    593.186
 33.870    852.000    757.955     94.045    593.069    706.394    644.607    593.069    593.069
 33.970    835.000    848.640    -13.640    592.954    772.310    669.249    592.954    592.954
 34.070    931.355    974.864    -43.509    592.841    863.970    703.690    592.841    592.841
 34.170   1105.503   1119.525    -14.022    592.731    968.984    743.224    592.731    592.731
 34.270   1203.941   1238.305    -34.364    592.623   1055.236    775.653    592.623    592.623
 34.370   1292.000   1272.027     19.973    592.518   1079.840    784.687    592.518    592.518
 34.470   1238.000   1198.133     39.867    592.414   1026.435    764.114    592.414    592.414
 34.570    983.000   1060.217    -77.217    592.314    926.611    725.928    592.314    592.314
 34.670    890.635    917.636    -27.001    592.215    823.392    686.469    592.215    592.215
 34.770    777.000    803.831    -26.831    592.118    741.016    654.942    592.118    592.118
 34.870    773.476    726.899     46.577    592.024    685.354    633.574    592.024    592.024
 34.970    701.000    680.770     20.230    591.932    652.008    620.696    591.932    591.932
 35.070    633.663    654.956    -21.293    591.843    633.378    613.421    591.843    591.843
 35.170    678.000    640.486     37.514    591.755    622.962    609.279    591.755    591.755
 35.270    680.000    631.749     48.251    591.670    616.692    606.727    591.670    591.670
 35.370    605.208    625.879    -20.671    591.587    612.492    604.973    591.587    591.587
 35.470    667.000    621.574     45.426    591.506    609.417    603.662    591.506    591.506
 35.570    652.000    618.247     33.753    591.427    607.043    602.631    591.427    591.427
 35.670    584.121    615.604    -31.483    591.350    605.153    601.800    591.350    591.350
 35.770    583.734    613.467    -29.734    591.275    603.622    601.120    591.275    591.275
 35.870    638.937    611.722     27.215    591.203    602.363    600.561    591.203    591.203
 35.970    633.000    610.286     22.714    591.133    601.317    600.101    591.133    591.133
 36.070    584.422    609.099    -24.677    591.064    600.439    599.724    591.064    591.064
 36.170    568.000    608.119    -40.119    590.998    599.696    599.421    590.998    590.998
 36.270    574.464    607.314    -32.850    590.934    599.063    599.184    590.934    590.934
 36.370    663.000    606.662     56.338    590.871    598.523    599.011    590.871    590.871
 36.470    590.808    606.149    -15.341    590.811    598.060    598.899    590.811    590.811
 36.570    610.000    605.765      4.235    590.753    597.666    598.852    590.753    590.753
 36.670    568.254    605.506    -37.252    590.697    597.330    598.873    590.697    590.697
 36.770    640.000    605.377     34.623    590.643    597.050    598.969    590.643    590.643
 36.870    628.000    605.384     22.616    590.591    596.822    599.153    590.591    590.591
 36.970    615.000    605.547      9.453    590.540    596.646    599.441    590.540    590.540
 37.070    623.000    605.894     17.106    590.492    596.529    599.857    590.492    590.492
 37.170    618.000    606.481     11.519    590.445    596.489    600.438    590.445    590.445
 37.270    613.678    607.407      6.271    590.401    596.565    601.243    590.401    590.401
 37.370    625.000    608.867     16.133    590.358    596.842    602.383    590.358    590.358
 37.470    595.000    611.241    -16.241    590.318    597.465    604.094    590.318    590.318
 37.570    618.000    615.229      2.771    590.279    598.635    606.873    590.279    590.279
 37.670    638.000    622.009     15.991    590.242    600.550    611.700    590.242    590.242
 37.770    619.000    633.303    -14.303    590.206    603.276    620.233    590.206    590.206
 37.870    617.336    651.079    -33.743    590.173    606.562    634.689    590.173    590.173
 37.970    655.000    676.591    -21.591    590.142    609.625    657.105    590.142    590.142
 38.070    714.000    708.919      5.081    590.112    611.202    687.825    590.112    590.112
 38.170    740.000    743.886     -3.886    590.084    610.490    723.476    590.084    590.084
 38.270    734.000    772.889    -38.889    590.058    608.041    754.903    590.058    590.058
 38.370    744.000    783.111    -39.111    590.033    604.939    768.205    590.033    590.033
 38.470    750.000    767.336    -17.336    590.010    601.933    755.418    590.010    590.010
 38.570    735.572    733.603      1.969    589.989    599.438    724.162    589.989    589.989
 38.670    686.671    695.943     -9.272    589.970    597.607    688.314    589.970    589.970
 38.770    626.000    663.615    -37.615    589.952    596.378    657.196    589.952    589.952
 38.870    654.641    639.987     14.654    589.937    595.598    634.331    589.937    589.937
 38.970    619.762    624.647     -4.885    589.922    595.114    619.459    589.922    589.922
 39.070    605.000    615.474    -10.474    589.910    594.811    610.575    589.910    589.910
 39.170    620.152    610.168      9.984    589.899    594.614    605.454    589.899    589.899
 39.270    653.503    607.010     46.493    589.890    594.481    602.419    589.890    589.890
 39.370    642.000    604.976     37.024    589.882    594.388    600.470    589.882    589.882
 39.470    629.169    603.541     25.628    589.876    594.321    599.096    589.876    589.876
 39.570    603.000    602.458      0.542    589.871    594.273    598.056    589.871    589.871
 39.670    582.000    601.613    -19.613    589.868    594.247    597.235    589.868    589.868
 39.770    606.000    600.938      5.062    589.867    594.236    596.570    589.867    589.867
 39.870    602.000    600.393      1.607    589.867    594.238    596.023    589.867    589.867
 39.970    620.000    599.950     20.050    589.869    594.252    595.567    589.869    589.869
 40.070    567.987    599.590    -31.603    589.872    594.278    595.184    589.872    589.872
 40.170    601.025    599.298      1.727    589.877    594.316    594.859    589.877    589.877
 40.270    567.469    599.063    -31.594    589.883    594.365    594.581    589.883    589.883
 40.370    605.000    598.878      6.122    589.891    594.426    594.343    589.891    589.891
 40.470    579.329    598.736    -19.407    589.900    594.499    594.137    589.900    589.900
 40.570    615.000    598.633     16.367    589.911    594.585    593.959    589.911    589.911
 40.670    586.000    598.565    -12.565    589.923    594.684    593.804    589.923    589.923
 40.770    616.000    598.532     17.468    589.936    594.799    593.670    589.936    589.936
 40.870    605.000    598.532      6.468    589.951    594.931    593.553    589.951    589.951
 40.970    602.000    598.566      3.434    589.967    595.082    593.452    589.967    589.967
 41.070    578.000    598.634    -20.634    589.985    595.255    593.364    589.985    589.985
 41.170    557.000    598.739    -41.739    590.004    595.454    593.290    590.004    590.004
 41.270    584.831    598.885    -14.054    590.024    595.684    593.226    590.024    590.024
 41.370    601.251    599.077      2.174    590.046    595.950    593.174    590.046    590.046
 41.470    588.000    599.321    -11.321    590.069    596.260    593.131    590.069    590.069
 41.570    591.000    599.629     -8.629    590.094    596.626    593.098    590.094    590.094
 41.670    614.000    600.014     13.986    590.119    597.060    593.075    590.119    590.119
 41.770    615.000    600.497     14.503    590.146    597.583    593.062    590.146    590.146
 41.870    583.000    601.109    -18.109    590.174    598.226    593.059    590.174    590.174
 41.970    628.000    601.907     26.093    590.204    599.045    593.069    590.204    590.204
 42.070    613.000    603.003      9.997    590.235    600.146    593.095    590.235    590.235
 42.170    651.000    604.626     46.374    590.267    601.750    593.146    590.267    590.267
 42.270    573.000    607.218    -34.218    590.300    604.283    593.239    590.300    590.300
 42.370    629.000    611.550     17.450    590.334    608.488    593.403    590.334    590.334
 42.470    608.000    618.752    -10.752    590.370    615.448    593.683    590.370    590.370
 42.570    592.000    630.115    -38.115    590.407    626.408    594.128    590.407    590.407
 42.670    610.000    646.559    -36.559    590.445    642.252    594.773    590.445    590.445
 42.770    624.992    667.783    -42.791    590.484    662.690    595.608    590.484    590.484
 42.870    626.000    691.246    -65.246    590.524    685.281    596.532    590.524    590.524
 42.970    753.570    711.247     42.323    590.565    704.541    597.325    590.565    590.565
 43.070    702.000    719.867    -17.867    590.608    712.855    597.680    590.608    590.608
 43.170    669.000    712.664    -43.664    590.651    705.951    597.423    590.651    590.651
 43.270    673.000    693.521    -20.521    590.696    687.562    596.706    590.696    590.696
 43.370    645.000    670.287    -25.287    590.742    665.236    595.833    590.742    590.742
 43.470    633.000    648.907    -15.907    590.788    644.690    595.034    590.788    590.788
 43.570    632.000    632.172     -0.172    590.836    628.609    594.419    590.836    590.836
 43.670    652.000    620.541     31.459    590.885    617.436    594.003    590.885    590.885
 43.770    620.255    613.171      7.084    590.935    610.359    593.756    590.935    590.935
 43.870    626.000    608.782     17.218    590.986    606.147    593.627    590.986    590.986
 43.970    583.795    606.221    -22.426    591.038    603.691    593.572    591.038    591.038
 44.070    624.000    604.685     19.315    591.091    602.221    593.559    591.091    591.091
 44.170    584.000    603.707    -19.707    591.145    601.285    593.569    591.145    591.145
 44.270    635.512    603.042     32.470    591.199    600.649    593.595    591.199    591.199
 44.370    645.826    602.571     43.255    591.255    600.197    593.631    591.255    591.255
 44.470    617.171    602.233     14.938    591.312    599.872    593.674    591.312    591.312
 44.570    619.000    601.994     17.006    591.369    599.642    593.723    591.369    591.369
 44.670    644.842    601.834     43.008    591.428    599.484    593.779    591.428    591.428
 44.770    577.201    601.736    -24.536    591.487    599.385    593.839    591.487    591.487
 44.870    600.000    601.692     -1.692    591.547    599.336    593.904    591.547    591.547
 44.970    573.000    601.691    -28.691    591.609    599.327    593.974    591.609    591.609
 45.070    582.000    601.730    -19.730    591.671    599.353    594.047    591.671    591.671
 45.170    601.000    601.802     -0.802    591.733    599.410    594.126    591.733    591.733
 45.270    618.000    601.906     16.094    591.797    599.495    594.208    591.797    591.797
 45.370    631.000    602.038     28.962    591.861    599.605    594.294    591.861    591.861
 45.470    597.000    602.197     -5.197    591.927    599.739    594.385    591.927    591.927
 45.570    581.000    602.383    -21.383    591.993    599.895    594.480    591.993    591.993
 45.670    646.749    602.594     44.155    592.059    600.073    594.580    592.059    592.059
 45.770    593.000    602.831     -9.831    592.127    600.273    594.685    592.127    592.127
 45.870    657.000    603.095     53.905    592.195    600.495    594.794    592.195    592.195
 45.970    629.000    603.386     25.614    592.264    600.740    594.909    592.264    592.264
 46.070    552.000    603.706    -51.706    592.334    601.009    595.030    592.334    592.334
 46.170    621.000    604.057     16.943    592.405    601.304    595.157    592.405    592.405
 46.270    575.000    604.442    -29.442    592.476    601.626    595.291    592.476    592.476
 46.370    559.562    604.865    -45.303    592.548    601.980    595.432    592.548    592.548
 46.470    644.000    605.329     38.671    592.620    602.368    595.581    592.620    592.620
 46.570    567.000    605.842    -38.842    592.693    602.795    595.739    592.693    592.693
 46.670    569.000    606.409    -37.409    592.767    603.267    595.908    592.767    592.767
 46.770    618.000    607.040     10.960    592.842    603.793    596.088    592.842    592.842
 46.870    599.000    607.749     -8.749    592.917    604.383    596.281    592.917    592.917
 46.970    621.000    608.552     12.448    592.992    605.052    596.490    592.992    592.992
 47.070    656.000    609.479     46.521    593.069    605.826    596.719    593.069    593.069
 47.170    584.054    610.580    -26.525    593.145    606.749    596.974    593.145    593.145
 47.270    566.000    611.951    -45.951    593.223    607.904    597.266    593.223    593.223
 47.370    578.778    613.770    -34.993    593.301    609.451    597.616    593.301    593.301
 47.470    610.000    616.353     -6.353    593.379    611.667    598.060    593.379    593.379
 47.570    583.134    620.192    -37.058    593.458    614.989    598.654    593.458    593.458
 47.670    622.000    625.949     -3.949    593.538    620.003    599.472    593.538    593.538
 47.770    660.000    634.324     25.676    593.618    627.331    600.594    593.618    593.618
 47.870    642.000    645.789     -3.789    593.699    637.389    602.075    593.699    593.699
 47.970    646.000    660.179    -14.179    593.780    650.028    603.898    593.780    593.780
 48.070    689.000    676.230     12.770    593.861    664.124    605.925    593.861    593.861
 48.170    714.000    691.175     22.825    593.943    677.215    607.851    593.943    593.943
 48.270    671.000    700.994    -29.994    594.026    685.730    609.234    594.026    594.026
 48.370    727.000    702.397     24.603    594.109    686.739    609.712    594.109    594.109
 48.470    686.000    695.479     -9.479    594.192    680.322    609.301    594.192    594.192
 48.570    726.000    683.657     42.343    594.276    669.506    608.388    594.276    594.276
 48.670    665.000    670.988     -5.988    594.360    657.887    607.433    594.360    594.360
 48.770    594.000    660.268    -66.268    594.444    647.934    606.757    594.444    594.444
 48.870    633.000    652.805    -19.805    594.529    640.799    606.521    594.529    594.529
 48.970    622.000    648.847    -26.847    594.615    636.681    606.770    594.615    594.615
 49.070    686.000    648.047     37.953    594.700    635.249    607.491    594.700    594.700
 49.170    627.000    649.886    -22.886    594.786    636.008    608.658    594.786    594.786
 49.270    639.000    653.984    -14.984    594.872    638.568    610.282    594.872    594.872
 49.370    641.000    660.350    -19.350    594.959    642.844    612.460    594.959    594.959
 49.470    635.271    669.717    -34.446    595.046    649.284    615.472    595.046    595.046
 49.570    665.123    684.265    -19.142    595.133    659.370    620.019    595.133    595.133
 49.670    764.000    709.100     54.900    595.220    676.631    627.677    595.220    595.220
 49.770    773.559    754.615     18.943    595.308    708.274    641.627    595.308    595.308
 49.870    830.000    838.977     -8.977    595.396    766.908    667.423    595.396    595.396
 49.970    940.000    988.414    -48.414    595.484    870.762    713.064    595.484    595.484
 50.070   1163.000   1231.690    -68.690    595.573   1039.929    787.218    595.573    595.573
 50.170   1660.892   1587.409     73.484    595.661   1287.068    895.837    595.661    595.661
 50.270   1956.011   2043.707    -87.696    595.750   1604.069   1035.184    595.750    595.750
 50.370   2592.000   2542.034     49.966    595.839   1950.305   1187.356    595.839    595.839
 50.470   2954.000   2972.710    -18.710    595.929   2249.628   1318.844    595.929    595.929
 50.570   3213.447   3200.306     13.141    596.018   2408.004   1388.258    596.018    596.018
 50.670   3235.115   3136.726     98.389    596.108   2364.265   1368.641    596.108    596.108
 50.770   2788.000   2810.053    -22.053    596.197   2137.931   1268.497    596.197    596.197
 50.870   2347.000   2339.253      7.747    596.287   1811.695   1124.068    596.287    596.287
 50.970   1838.000   1853.820    -15.820    596.377   1475.614    974.799    596.377    596.377
 51.070   1479.140   1442.601     36.539    596.467   1191.531    847.714    596.467    596.467
 51.170   1140.000   1143.024     -3.024    596.557    985.533    754.179    596.557    596.557
 51.270    938.470    951.802    -13.331    596.648    855.302    693.236    596.648    596.648
 51.370    814.818    843.696    -28.878    596.738    783.069    657.428    596.738    596.738
 51.470    855.000    788.575     66.425    596.829    747.367    638.084    596.829    596.829
 51.570    775.000    761.348     13.652    596.919    729.950    628.356    596.919    596.919
 51.670    752.000    745.360      6.640    597.010    718.413    623.991    597.010    597.010
 51.770    773.000    732.355     40.645    597.100    706.677    622.805    597.100    597.100
 51.870    674.280    720.337    -46.056    597.191    693.749    623.798    597.191    597.191
 51.970    683.000    710.062    -27.062    597.281    680.961    626.395    597.281    597.281
 52.070    693.386    702.338     -8.952    597.372    669.758    629.956    597.372    597.372
 52.170    720.000    697.034     22.966    597.463    660.963    633.532    597.463    597.463
 52.270    709.000    693.106     15.894    597.553    654.786    635.869    597.553    597.553
 52.370    674.197    689.206    -15.009    597.644    651.022    635.821    597.644    597.644
 52.470    673.000    684.623    -11.623    597.734    649.287    633.064    597.734    597.734
 52.570    690.000    679.741     10.259    597.825    649.211    628.350    597.825    597.825
 52.670    671.000    675.578     -4.578    597.915    650.585    622.905    597.915    597.915
 52.770    629.840    673.224    -43.384    598.006    653.462    617.766    598.006    598.006
 52.870    628.000    673.728    -45.728    598.096    658.277    613.546    598.096    598.096
 52.970    721.519    678.322     43.197    598.186    666.034    610.474    598.186    598.186
 53.070    706.045    688.799     17.246    598.276    678.564    608.511    598.276    598.276
 53.170    710.000    707.874      2.126    598.366    698.742    607.496    598.366    598.366
 53.270    743.668    739.301      4.367    598.456    730.489    607.264    598.456    598.456
 53.370    784.000    787.405     -3.405    598.545    778.253    607.693    598.545    598.545
 53.470    854.934    855.750     -0.816    598.635    845.757    608.622    598.635    598.635
 53.570    938.000    945.606     -7.606    598.724    934.116    610.206    598.724    598.724
 53.670   1082.000   1052.915     29.085    598.813   1039.483    612.238    598.813    598.813
 53.770   1144.121   1166.259    -22.138    598.902   1150.717    614.440    598.902    598.902
 53.870   1260.000   1265.251     -5.251    598.991   1247.866    616.379    598.991    598.991
 53.970   1358.349   1323.564     34.785    599.080   1305.154    617.502    599.080    599.080
 54.070   1354.000   1321.354     32.646    599.168   1303.148    617.397    599.168    599.168
 54.170   1191.350   1259.658    -68.307    599.256   1242.863    616.082    599.256    599.256
 54.270   1135.000   1159.474    -24.474    599.344   1144.863    613.987    599.344    599.344
 54.370   1111.549   1046.890     64.659    599.432   1034.701    611.649    599.432    599.432
 54.470    988.000    941.543     46.457    599.519    931.612    609.474    599.519    599.519
 54.570    923.000    854.140     68.860    599.606    846.085    607.680    599.606    599.606
 54.670    786.000    788.124     -2.124    599.693    781.492    606.338    599.693    599.693
 54.770    762.000    742.088     19.912    599.780    736.458    605.419    599.780    599.780
 54.870    730.807    712.113     18.695    599.866    707.145    604.840    599.866    599.866
 54.970    658.658    693.679    -35.021    599.952    689.128    604.507    599.952    599.952
 55.070    705.000    682.867     22.133    600.038    678.567    604.340    600.038    600.038
 55.170    625.000    676.832    -51.832    600.123    672.677    604.280    600.123    600.123
 55.270    720.620    673.770     46.850    600.208    669.691    604.289    600.208    600.208
 55.370    707.372    672.663     34.710    600.292    668.611    604.346    600.292    600.292
 55.470    696.000    672.994     23.006    600.377    668.930    604.441    600.377    600.377
 55.570    693.000    674.542     18.458    600.461    670.433    604.570    600.461    600.461
 55.670    683.779    677.263      6.516    600.544    673.074    604.734    600.544    600.544
 55.770    713.000    681.238     31.762    600.627    676.932    604.934    600.627    600.627
 55.870    675.024    686.697    -11.673    600.710    682.228    605.179    600.710    600.710
 55.970    663.000    694.108    -31.108    600.792    689.419    605.481    600.792    600.792
 56.070    721.000    704.399     16.601    600.874    699.403    605.868    600.874    600.874
 56.170    697.000    719.341    -22.341    600.956    713.902    606.391    600.956    600.956
 56.270    691.000    742.157    -51.157    601.037    736.046    607.141    601.037    601.037
 56.370    763.925    778.282    -14.357    601.117    771.114    608.273    601.117    601.117
 56.470    890.136    836.001     54.135    601.197    827.153    610.024    601.197    601.197
 56.570    869.000    926.420    -57.420    601.277    914.955    612.710    601.277    601.277
 56.670    991.000   1062.077    -71.077    601.356   1046.699    616.688    601.356    601.356
 56.770   1303.550   1253.656     49.893    601.435   1232.769    622.263    601.435    601.435
 56.870   1444.000   1504.973    -60.973    601.513   1476.876    629.545    601.513    601.513
 56.970   1763.000   1807.201    -44.201    601.591   1770.450    638.284    601.591    601.591
 57.070   2098.000   2133.672    -35.672    601.668   2087.587    647.722    601.668    601.668
 57.170   2454.000   2436.759     17.241    601.745   2382.019    656.505    601.745    601.745
 57.270   2706.000   2651.488     54.512    601.821   2590.614    662.786    601.821    601.821
 57.370   2711.000   2716.137     -5.137    601.896   2653.390    664.810    601.896    601.896
 57.470   2637.000   2608.864     28.136    601.971   2549.096    661.958    601.971    601.971
 57.570   2355.000   2365.050    -10.050    602.046   2312.091    655.240    602.046    602.046
 57.670   2085.000   2051.253     33.747    602.120   2007.036    646.558    602.120    602.120
 57.770   1656.006   1729.480    -73.474    602.193   1694.173    637.687    602.193    602.193
 57.870   1377.373   1441.792    -64.419    602.266   1414.358    629.847    602.266    602.266
 57.970   1232.223   1209.745     22.478    602.338   1188.494    623.696    602.338    602.338
 58.070   1043.000   1038.549      4.451    602.409   1021.555    619.477    602.409    602.409
 58.170    871.000    922.690    -51.690    602.480    908.016    617.201    602.480    602.480
 58.270    869.000    851.826     17.174    602.550    837.545    616.858    602.550    602.550
 58.370    764.000    815.577    -51.577    602.620    799.637    618.573    602.620    602.620
 58.470    754.080    806.301    -52.221    602.689    786.333    622.657    602.689    602.689
 58.570    803.000    819.744    -16.744    602.757    792.971    629.520    602.757    602.757
 58.670    845.000    854.128     -9.128    602.825    817.493    639.438    602.825    602.825
 58.770    913.000    908.398      4.602    602.892    859.014    652.245    602.892    602.892
 58.870    913.000    980.331    -67.331    602.958    916.200    667.049    602.958    602.958
 58.970   1049.000   1064.941    -15.941    603.024    985.840    682.081    603.024    603.024
 59.070   1131.992   1153.701    -21.709    603.089   1061.955    694.794    603.089    603.089
 59.170   1286.302   1235.739     50.563    603.153   1136.360    702.501    603.153    603.153
 59.270   1226.000   1301.647    -75.647    603.217   1201.205    703.646    603.217    603.217
 59.370   1381.000   1346.256     34.744    603.280   1250.886    698.656    603.280    603.280
 59.470   1319.000   1366.803    -47.803    603.342   1280.869    689.301    603.342    603.342
 59.570   1288.967   1361.433    -72.466    603.403   1287.336    677.539    603.403    603.403
 59.670   1333.000   1332.872      0.128    603.464   1271.314    665.065    603.464    603.464
 59.770   1235.716   1291.735    -56.020    603.523   1242.009    653.285    603.523    603.523
 59.870   1188.976   1252.872    -63.896    603.583   1213.297    643.169    603.583    603.583
 59.970   1212.000   1229.057    -17.057    603.641   1197.566    635.108    603.641    603.641
 60.070   1294.841   1228.093     66.748    603.698   1202.721    629.003    603.698    603.698
 60.170   1232.000   1253.438    -21.438    603.755   1232.569    624.509    603.755    603.755
 60.270   1376.022   1305.543     70.479    603.811   1287.939    621.252    603.811    603.811
 60.370   1430.000   1381.012     48.988    603.866   1365.735    618.938    603.866    603.866
 60.470   1487.582   1469.833     17.749    603.921   1456.165    617.351    603.921    603.921
 60.570   1614.000   1553.722     60.278    603.974   1541.116    616.329    603.974    603.974
 60.670   1641.000   1608.198     32.802    604.027   1596.229    615.753    604.027    604.027
 60.770   1686.000   1610.548     75.452    604.079   1598.875    615.539    604.079    604.079
 60.870   1547.000   1552.105     -5.105    604.130   1540.434    615.629    604.130    604.130
 60.970   1513.788   1443.967     69.821    604.180   1432.027    615.990    604.180    604.180
 61.070   1254.000   1309.100    -55.100    604.229   1296.623    616.614    604.229    604.229
 61.170   1225.649   1170.623     55.025    604.278   1157.313    617.524    604.278    604.278
 61.270   1072.000   1045.791     26.209    604.325   1031.270    618.802    604.325    604.325
 61.370    944.000    944.900     -0.900    604.372    928.618    620.620    604.372    604.372
 61.470    898.604    872.288     26.316    604.418    853.368    623.309    604.418    604.418
 61.570    852.117    828.324     23.793    604.462    805.328    627.430    604.462    604.462
 61.670    766.597    811.799    -45.202    604.506    782.412    633.857    604.506    604.506
 61.770    816.552    821.987     -5.435    604.550    782.666    643.822    604.550    604.550
 61.870    875.000    859.720     15.280    604.592    805.404    658.840    604.592    604.592
 61.970    948.036    927.141     20.896    604.633    851.191    680.489    604.633    604.633
 62.070    976.000   1026.199    -50.199    604.673    920.779    709.968    604.673    604.673
 62.170   1126.000   1156.322    -30.322    604.713   1013.352    747.518    604.713    604.713
 62.270   1302.000   1311.902     -9.902    604.751   1124.636    791.813    604.751    604.751
 62.370   1448.000   1480.248    -32.248    604.788   1245.346    839.453    604.788    604.788
 62.470   1633.000   1640.515     -7.515    604.825   1360.362    884.719    604.825    604.825
 62.570   1748.864   1764.869    -16.005    604.860   1449.546    919.925    604.860    604.860
 62.670   1844.000   1824.937     19.063    604.895   1492.379    937.219    604.895    604.895
 62.770   1759.000   1804.455    -45.455    604.929   1477.095    932.102    604.929    604.929
 62.870   1628.866   1709.061    -80.194    604.961   1407.742    906.146    604.961    604.961
 62.970   1560.000   1562.435     -2.435    604.993   1301.409    865.933    604.993    604.993
 63.070   1371.403   1393.611    -22.208    605.023   1179.056    819.530    605.023    605.023
 63.170   1212.000   1227.205    -15.205    605.053   1058.459    773.776    605.053    605.053
 63.270   1045.009   1079.837    -34.828    605.081    951.616    733.294    605.081    605.081
 63.370    924.000    960.070    -36.070    605.109    864.709    700.468    605.109    605.109
 63.470    913.958    869.806     44.152    605.135    799.109    675.832    605.135    605.135
 63.570    766.339    806.406    -40.067    605.161    752.906    658.658    605.161    605.161
 63.670    778.723    764.843     13.880    605.185    722.467    647.555    605.185    605.185
 63.770    697.796    739.704    -41.908    605.209    703.882    641.022    605.209    605.209
 63.870    676.466    726.470    -50.005    605.231    693.880    637.809    605.231    605.231
 63.970    738.000    722.166     15.834    605.252    690.293    637.109    605.252    605.252
 64.070    670.826    725.528    -54.702    605.272    692.146    638.634    605.272    605.272
 64.170    749.000    736.912     12.088    605.291    699.546    642.629    605.291    605.291
 64.270    750.000    758.059     -8.059    605.309    713.452    649.879    605.309    605.309
 64.370    749.141    791.720    -42.579    605.326    735.330    661.666    605.326    605.326
 64.470    863.000    841.089     21.911    605.342    766.702    679.660    605.342    605.342
 64.570    901.000    908.958     -7.958    605.357    808.567    705.657    605.357    605.357
 64.670   1023.000    996.620     26.380    605.371    860.741    741.133    605.371    605.371
 64.770   1124.000   1102.611     21.389    605.383    921.202    786.649    605.383    605.383
 64.870   1284.076   1221.491     62.585    605.394    985.529    841.188    605.394    605.394
 64.970   1384.000   1342.996     41.004    605.405   1046.634    901.582    605.405    605.405
 65.070   1472.703   1452.280     20.423    605.414   1095.366    962.138    605.414    605.414
 65.170   1592.464   1532.287     60.177    605.422   1122.831   1014.698    605.422    605.422
 65.270   1530.661   1568.439    -37.779    605.429   1124.017   1049.695    605.429    605.429
 65.370   1566.000   1553.795     12.205    605.434   1100.053   1059.053    605.434    605.434
 65.470   1494.169   1492.112      2.057    605.439   1057.257   1040.208    605.439    605.439
 65.570   1456.000   1396.680     59.320    605.442   1004.293    997.778    605.442    605.442
 65.670   1337.535   1284.816     52.719    605.445    949.373    940.864    605.445    605.445
 65.770   1128.659   1171.927    -43.267    605.446    898.445    878.926    605.446    605.446
 65.870   1024.123   1068.529    -44.406    605.446    854.594    819.395    605.446    605.446
 65.970    997.000    979.988     17.012    605.444    818.373    767.083    605.444    605.444
 66.070    925.451    907.641     17.810    605.442    788.753    724.357    605.442    605.442
 66.170    789.000    850.473    -61.473    605.438    764.332    691.606    605.438    605.438
 66.270    766.000    806.528    -40.528    605.433    744.129    667.855    605.433    605.433
 66.370    801.674    773.603     28.070    605.427    727.638    651.410    605.427    605.427
 66.470    703.781    749.524    -45.743    605.420    714.549    640.408    605.420    605.420
 66.570    692.000    732.348    -40.348    605.412    704.589    633.179    605.412    605.412
 66.670    686.000    720.519    -34.519    605.402    697.507    628.419    605.402    605.402
 66.770    697.698    712.902    -15.204    605.391    693.087    625.209    605.391    605.391
 66.870    664.000    708.735    -44.735    605.379    691.160    622.956    605.379    605.379
 66.970    661.075    707.577    -46.502    605.366    691.639    621.304    605.366    605.366
 67.070    684.000    709.308    -25.308    605.351    694.604    620.055    605.351    605.351
 67.170    730.591    714.210     16.381    605.335    700.438    619.108    605.335    605.335
 67.270    687.000    723.136    -36.136    605.318    710.029    618.425    605.318    605.318
 67.370    691.000    737.733    -46.733    605.300    725.017    618.017    605.300    605.300
 67.470    729.000    760.717    -31.717    605.280    748.065    617.932    605.280    605.280
 67.570    823.000    796.090     26.910    605.259    783.085    618.263    605.259    605.259
 67.670    790.000    849.181    -59.181    605.237    835.274    619.141    605.237    605.237
 67.770    914.561    926.330    -11.769    605.214    910.811    620.727    605.214    605.214
 67.870   1038.000   1034.041      3.959    605.189   1016.036    623.187    605.189    605.189
 67.970   1141.833   1177.562    -35.729    605.163   1156.064    626.655    605.163    605.163
 68.070   1294.558   1358.990    -64.432    605.136   1332.941    631.184    605.136    605.136
 68.170   1452.000   1575.213   -123.213    605.108   1543.647    636.684    605.108    605.108
 68.270   1852.839   1816.064     36.775    605.078   1778.297    642.876    605.078    605.078
 68.370   2021.000   2062.968    -41.968    605.047   2018.821    649.257    605.047    605.047
 68.470   2319.000   2288.543     30.457    605.015   2238.579    655.085    605.015    605.015
 68.570   2448.038   2458.800    -10.762    604.981   2404.500    659.443    604.981    604.981
 68.670   2600.220   2540.958     59.262    604.946   2484.681    661.442    604.946    604.946
 68.770   2482.727   2516.672    -33.945    604.910   2461.264    660.588    604.910    604.910
 68.870   2375.000   2391.708    -16.708    604.872   2339.848    657.034    604.872    604.872
 68.970   2244.000   2192.541     51.459    604.833   2146.193    651.491    604.833    604.833
 69.070   2045.898   1953.670     92.228    604.793   1913.868    644.888    604.793    604.793
 69.170   1683.334   1706.559    -23.225    604.752   1673.498    638.072    604.752    604.752
 69.270   1549.422   1474.710     74.712    604.709   1447.961    631.677    604.709    604.709
 69.370   1280.000   1272.856      7.144    604.665   1251.598    626.099    604.665    604.665
 69.470   1132.938   1107.841     25.097    604.619   1091.075    621.522    604.619    604.619
 69.570   1011.000    980.226     30.774    604.572    966.941    617.959    604.572    604.572
 69.670    895.523    886.263      9.260    604.524    875.557    615.303    604.524    604.524
 69.770    865.000    819.947     45.053    604.475    811.067    613.406    604.475    604.475
 69.870    845.000    774.683     70.317    604.424    767.060    612.082    604.424    604.424
 69.970    759.000    744.472     14.528    604.372    737.697    611.170    604.372    604.372
 70.070    811.000    724.488     86.512    604.318    718.284    610.539    604.318    604.318
 70.170    691.194    711.208    -20.013    604.263    705.389    610.094    604.263    604.263
 70.270    683.596    702.252    -18.656    604.207    696.697    609.770    604.207    604.207
 70.370    711.000    696.121     14.879    604.149    690.748    609.528    604.149    604.149
 70.470    673.978    691.926    -17.948    604.090    686.676    609.343    604.090    604.090
 70.570    728.000    689.168     38.832    604.030    683.996    609.203    604.030    604.030
 70.670    725.000    687.597     37.403    603.968    682.465    609.101    603.968    603.968
 70.770    711.000    687.128     23.872    603.905    681.997    609.035    603.905    603.905
 70.870    666.127    687.810    -21.683    603.841    682.639    609.009    603.841    603.841
 70.970    675.000    689.845    -14.845    603.775    684.586    609.030    603.775    603.775
 71.070    663.892    693.643    -29.751    603.708    688.231    609.113    603.708    603.708
 71.170    769.000    699.920     69.080    603.639    694.265    609.285    603.639    603.639
 71.270    687.234    709.832    -22.598    603.569    703.801    609.586    603.569    603.569
 71.370    781.000    725.118     55.882    603.498    718.516    610.081    603.498    603.498
 71.470    760.000    748.224     11.776    603.425    740.767    610.855    603.425    603.425
 71.570    759.000    782.329    -23.329    603.351    773.619    612.023    603.351    603.351
 71.670    814.000    831.197    -17.197    603.275    820.699    613.720    603.275    603.275
 71.770    943.052    898.774     44.277    603.199    885.812    616.088    603.199    603.199
 71.870    953.000    988.494    -35.494    603.120    972.267    619.248    603.120    603.120
 71.970   1048.921   1102.334    -53.413    603.041   1081.971    623.274    603.041    603.041
 72.070   1185.375   1239.741    -54.366    602.959   1214.391    628.147    602.959    602.959
 72.170   1387.000   1396.609     -9.609    602.877   1365.567    633.722    602.877    602.877
 72.270   1523.000   1564.454    -41.454    602.793   1527.320    639.699    602.793    602.793
 72.370   1723.000   1729.888     -6.888    602.708   1686.739    645.604    602.708    602.708
 72.470   1881.000   1874.752      6.248    602.621   1826.316    650.792    602.621    602.621
 72.570   1975.000   1978.025     -3.025    602.533   1925.780    654.519    602.533    602.533
 72.670   2016.000   2021.018     -5.018    602.444   1967.104    656.120    602.444    602.444
 72.770   2000.000   1994.895      5.105    602.353   1941.763    655.285    602.353    602.353
 72.870   1897.000   1905.120     -8.120    602.260   1855.015    652.210    602.260    602.260
 72.970   1763.000   1768.551     -5.551    602.167   1723.111    647.495    602.167    602.167
 73.070   1570.613   1606.134    -35.520    602.071   1566.249    641.881    602.071    602.071
 73.170   1372.000   1436.965    -64.965    601.975   1402.855    636.038    601.975    601.975
 73.270   1250.000   1275.671    -25.671    601.877   1247.051    630.470    601.877    601.877
 73.370   1099.000   1131.930    -32.930    601.778   1108.194    625.501    601.778    601.778
 73.470   1004.000   1010.871     -6.871    601.677    991.252    621.290    601.677    601.677
 73.570    908.000    913.847     -5.847    601.575    897.548    617.872    601.575    601.575
 73.670    839.753    839.440      0.313    601.471    825.712    615.197    601.471    601.471
 73.770    776.000    784.543     -8.543    601.366    772.731    613.177    601.366    601.366
 73.870    735.000    745.341    -10.341    601.259    734.890    611.708    601.259    601.259
 73.970    721.000    718.064      2.936    601.151    708.516    610.698    601.151    601.151
 74.070    656.000    699.452    -43.452    601.042    690.424    610.069    601.042    601.042
 74.170    699.874    686.962     12.911    600.931    678.122    609.770    600.931    600.931
 74.270    675.000    678.772     -3.772    600.819    669.815    609.777    600.819    600.819
 74.370    618.000    673.668    -55.668    600.706    664.298    610.079    600.706    600.706
 74.470    658.000    670.887    -12.887    600.591    660.804    610.679    600.591    600.591
 74.570    666.312    669.950     -3.639    600.474    658.857    611.576    600.474    600.474
 74.670    655.835    670.527    -14.692    600.357    658.139    612.758    600.357    600.357
 74.770    672.000    672.329     -0.329    600.237    658.394    614.190    600.237    600.237
 74.870    656.738    675.034    -18.296    600.117    659.367    615.808    600.117    600.117
 74.970    649.000    678.239    -29.239    599.995    660.754    617.509    599.995    599.995
 75.070    651.070    681.439    -30.370    599.871    662.188    619.157    599.871    599.871
 75.170    711.000    684.047     26.953    599.746    663.247    620.587    599.746    599.746
 75.270    707.000    685.486     21.514    599.620    663.514    621.635    599.620    599.620
 75.370    724.000    685.371     38.629    599.492    662.704    622.203    599.492    599.492
 75.470    737.000    683.693     53.307    599.363    660.787    622.311    599.363    599.363
 75.570    730.000    680.867     49.133    599.232    658.016    622.122    599.232    599.232
 75.670    665.635    677.620    -11.984    599.100    654.846    621.907    599.100    599.100
 75.770    727.000    674.821     52.179    598.967    651.808    622.006    598.967    598.967
 75.870    715.000    673.390     41.610    598.832    649.440    622.801    598.832    598.832
 75.970    620.743    674.269    -53.526    598.696    648.262    624.714    598.696    598.696
 76.070    695.000    678.426     16.574    598.558    648.775    628.211    598.558    598.558
 76.170    726.000    686.843     39.157    598.419    651.464    633.791    598.419    598.419
 76.270    713.858    700.462     13.396    598.278    656.771    641.952    598.278    598.278
 76.370    681.132    720.079    -38.947    598.136    665.057    653.131    598.136    598.136
 76.470    782.000    746.199     35.801    597.993    676.533    667.618    597.993    597.993
 76.570    763.000    778.844    -15.844    597.848    691.186    685.453    597.848    597.848
 76.670    804.000    817.367    -13.367    597.702    708.685    706.317    597.702    597.702
 76.770    830.000    860.269    -30.269    597.555    728.305    729.438    597.555    597.555
 76.870    897.936    905.089     -7.152    597.406    748.879    753.522    597.406    597.406
 76.970    963.000    948.309     14.691    597.255    768.744    776.717    597.255    597.255
 77.070   1009.000    985.466     23.534    597.104    785.800    796.659    597.104    597.104
 77.170    991.638   1011.642    -20.003    596.950    797.738    810.742    596.950    596.950
 77.270   1072.000   1022.603     49.397    596.796    802.571    816.721    596.796    596.796
 77.370    964.837   1016.323    -51.486    596.640    799.346    813.520    596.640    596.640
 77.470    951.000    993.866    -42.866    596.483    788.558    801.707    596.483    596.483
 77.570    947.800    958.886    -11.086    596.324    771.915    783.225    596.324    596.324
 77.670    945.000    916.185     28.815    596.164    751.665    760.629    596.164    596.164
 77.770    878.000    870.402      7.598    596.002    729.977    736.385    596.002    596.002
 77.870    796.000    825.328    -29.328    595.839    708.625    712.510    595.839    595.839
 77.970    864.000    783.701     80.299    595.675    688.892    690.461    595.675    595.675
 78.070    729.000    747.236    -18.236    595.509    671.578    671.150    595.509    595.509
 78.170    705.000    716.735    -11.735    595.342    657.059    655.006    595.342    595.342
 78.270    745.473    692.266     53.208    595.174    645.366    642.065    595.174    595.174
 78.370    631.000    673.362    -42.362    595.004    636.279    632.080    595.004    595.004
 78.470    651.000    659.241     -8.241    594.833    629.432    624.636    594.833    594.833
 78.570    624.880    648.990    -24.110    594.660    624.396    619.250    594.660    594.660
 78.670    683.121    641.719     41.402    594.486    620.753    615.448    594.486    594.486
 78.770    643.000    636.646      6.354    594.311    618.137    612.816    594.311    594.311
 78.870    625.000    633.144     -8.144    594.134    616.253    611.023    594.134    594.134
 78.970    611.647    630.744    -19.098    593.956    614.879    609.818    593.956    593.956
 79.070    623.000    629.117     -6.117    593.777    613.861    609.030    593.777    593.777
 79.170    605.000    628.047    -23.047    593.596    613.096    608.543    593.596    593.596
 79.270    602.000    627.404    -25.404    593.414    612.523    608.292    593.414    593.414
 79.370    614.000    627.121    -13.121    593.231    612.108    608.241    593.231    593.231
 79.470    638.654    627.179     11.474    593.046    611.838    608.384    593.046    593.046
 79.570    608.900    627.598    -18.698    592.860    611.718    608.737    592.860    592.860
 79.670    674.165    628.436     45.729    592.673    611.762    609.343    592.673    592.673
 79.770    641.113    629.797     11.316    592.484    612.000    610.277    592.484    592.484
 79.870    675.028    631.844     43.184    592.294    612.470    611.664    592.294    592.294
 79.970    657.000    634.823     22.177    592.102    613.225    613.695    592.102    592.102
 80.070    638.000    639.090     -1.090    591.910    614.333    616.660    591.910    591.910
 80.170    611.213    645.151    -33.937    591.716    615.881    620.976    591.716    591.716
 80.270    628.964    653.695    -24.731    591.520    617.980    627.224    591.520    591.520
 80.370    702.266    665.627     36.639    591.324    620.770    636.166    591.324    591.324
 80.470    715.000    682.061     32.939    591.126    624.422    648.746    591.126    591.126
 80.570    705.000    704.287      0.713    590.926    629.138    666.051    590.926    590.926
 80.670    696.118    733.659    -37.542    590.726    635.138    689.217    590.726    590.726
 80.770    804.000    771.446     32.554    590.524    642.654    719.279    590.524    590.524
 80.870    822.000    818.612      3.388    590.321    651.911    756.978    590.321    590.321
 80.970    874.000    875.581     -1.581    590.117    663.112    802.534    590.117    590.117
 81.070    985.000    941.972     43.028    589.911    676.409    855.415    589.911    589.911
 81.170   1007.987   1016.333     -8.346    589.704    691.836    914.138    589.704    589.704
 81.270   1129.451   1095.931     33.520    589.496    709.237    976.125    589.496    589.496
 81.370   1141.521   1176.659    -35.138    589.286    728.197   1037.686    589.286    589.286
 81.470   1215.560   1253.185    -37.625    589.075    748.020   1094.185    589.075    589.075
 81.570   1370.000   1319.468     50.532    588.863    767.766   1140.520    588.863    588.863
 81.670   1479.000   1369.748    109.252    588.650    786.372   1171.999    588.650    588.650
 81.770   1368.824   1399.749    -30.925    588.436    802.806   1185.371    588.436    588.436
 81.870   1552.000   1407.466    144.534    588.220    816.191   1179.509    588.220    588.220
 81.970   1509.000   1393.389    115.611    588.003    825.974   1155.454    588.003    588.003
 82.070   1397.024   1359.901     37.123    587.785    831.819   1115.922    587.785    587.785
 82.170   1410.000   1310.833     99.167    587.565    833.645   1064.824    587.565    587.565
 82.270   1347.000   1250.875     96.125    587.345    831.579   1006.724    587.345    587.345
 82.370   1130.648   1184.796    -54.148    587.123    825.822    946.188    587.123    587.123
 82.470   1096.000   1116.804    -20.804    586.900    816.623    887.176    586.900    586.900
 82.570   1063.000   1050.266     12.734    586.675    804.363    832.673    586.675    586.675
 82.670    960.101    987.695    -27.594    586.450    789.657    784.580    586.450    586.450
 82.770    917.000    930.779    -13.779    586.223    773.301    743.787    586.223    586.223
 82.870    877.000    880.385     -3.385    585.996    756.101    710.360    585.996    585.996
 82.970    808.451    836.649    -28.198    585.767    738.720    683.769    585.767    585.767
 83.070    746.000    799.188    -53.188    585.536    721.660    663.129    585.536    585.536
 83.170    741.000    767.394    -26.394    585.305    705.333    647.423    585.305    585.305
 83.270    794.892    740.669     54.223    585.073    690.126    635.664    585.073    585.073
 83.370    708.000    718.529    -10.529    584.839    676.415    626.993    584.839    584.839
 83.470    733.586    700.606     32.980    584.604    664.523    620.718    584.604    584.604
 83.570    654.732    686.611    -31.879    584.368    654.687    616.314    584.368    584.368
 83.670    656.000    676.302    -20.302    584.131    647.044    613.402    584.131    584.131
 83.770    630.000    669.451    -39.451    583.893    641.631    611.717    583.893    583.893
 83.870    619.905    665.810    -45.906    583.654    638.389    611.069    583.654    583.654
 83.970    638.000    665.077    -27.077    583.413    637.169    611.307    583.413    583.413
 84.070    660.000    666.863     -6.863    583.172    637.728    612.284    583.172    583.172
 84.170    659.471    670.676    -11.205    582.929    639.734    613.840    582.929    582.929
 84.270    592.000    675.905    -83.905    582.686    642.772    615.779    582.686    582.686
 84.370    705.046    681.828     23.218    582.441    646.353    617.871    582.441    582.441
 84.470    659.000    687.628    -28.628    582.195    649.926    619.845    582.195    582.195
 84.570    690.000    692.433     -2.433    581.948    652.915    621.411    581.948    581.948
 84.670    624.000    695.412    -71.412    581.700    654.768    622.287    581.700    581.700
 84.770    695.000    695.921     -0.921    581.451    655.061    622.255    581.451    581.451
 84.870    663.000    693.664    -30.664    581.201    653.594    621.217    581.201    581.201
 84.970    674.000    688.761    -14.761    580.950    650.434    619.228    580.950    580.950
 85.070    679.000    681.695     -2.695    580.698    645.880    616.468    580.698    580.698
 85.170    711.458    673.146     38.312    580.445    640.358    613.195    580.445    580.445
 85.270    646.000    663.841    -17.841    580.190    634.319    609.679    580.190    580.190
 85.370    609.189    654.443    -45.254    579.935    628.173    606.177    579.935    579.935
 85.470    651.000    645.511      5.489    579.679    622.257    602.910    579.679    579.679
 85.570    591.000    637.477    -46.477    579.422    616.821    600.059    579.422    579.422
 85.670    618.000    630.649    -12.649    579.164    612.029    597.768    579.164    579.164
 85.770    584.000    625.217    -41.217    578.905    607.967    596.141    578.905    578.905
 85.870    638.000    621.275     16.725    578.645    604.651    595.255    578.645    578.645
 85.970    610.000    618.835     -8.835    578.384    602.049    595.156    578.384    578.384
 86.070    620.000    617.857      2.143    578.122    600.097    595.868    578.122    578.122
 86.170    643.000    618.262     24.738    577.859    598.718    597.387    577.859    577.859
 86.270    613.000    619.942     -6.942    577.595    597.838    599.681    577.595    577.595
 86.370    608.000    622.774    -14.774    577.330    597.399    602.684    577.330    577.330
 86.470    580.714    626.613    -45.900    577.064    597.366    606.288    577.064    577.064
 86.570    606.709    631.297    -24.588    576.798    597.735    610.332    576.798    576.798
 86.670    643.000    636.644      6.356    576.530    598.535    614.607    576.530    576.530
 86.770    604.000    642.447    -38.447    576.262    599.827    618.845    576.262    576.262
 86.870    671.000    648.482     22.518    575.993    601.704    622.729    575.993    575.993
 86.970    702.812    654.519     48.294    575.723    604.284    625.910    575.723    575.723
 87.070    618.548    660.350    -41.801    575.452    607.701    628.048    575.452    575.452
 87.170    686.000    665.846     20.154    575.180    612.092    628.877    575.180    575.180
 87.270    652.645    671.008    -18.363    574.907    617.579    628.273    574.907    574.907
 87.370    687.367    675.977     11.390    574.634    624.249    626.292    574.634    574.634
 87.470    668.622    680.984    -12.362    574.360    632.124    623.140    574.360    574.360
 87.570    689.000    686.258      2.742    574.084    641.142    619.112    574.084    574.084
 87.670    697.000    691.938      5.062    573.809    651.127    614.522    573.809    573.809
 87.770    752.000    698.009     53.991    573.532    661.775    609.659    573.532    573.532
 87.870    724.000    704.273     19.727    573.254    672.641    604.770    573.254    573.254
 87.970    699.000    710.343    -11.343    572.976    683.138    600.057    572.976    572.976
 88.070    760.000    715.663     44.337    572.697    692.559    595.670    572.697    572.697
 88.170    744.951    719.569     25.382    572.418    700.138    591.713    572.418    572.418
 88.270    776.000    721.413     54.587    572.137    705.175    588.240    572.137    572.137
 88.370    666.268    720.734    -54.466    571.856    707.198    585.261    571.856    571.856
 88.470    771.651    717.412     54.238    571.574    706.107    582.757    571.574    571.574
 88.570    727.000    711.708     15.292    571.292    702.203    580.685    571.292    571.292
 88.670    648.213    704.180    -55.967    571.008    696.097    578.993    571.008    571.008
 88.770    662.831    695.541    -32.710    570.724    688.559    577.623    570.724    570.724
 88.870    742.000    686.538     55.462    570.440    680.386    576.523    570.440    570.440
 88.970    694.000    677.872     16.128    570.155    672.329    575.644    570.155    570.155
 89.070    655.000    670.161    -15.161    569.869    665.044    574.946    569.869    569.869
 89.170    691.655    663.898     27.757    569.582    659.058    574.396    569.582    569.582
 89.270    638.000    659.433    -21.433    569.295    654.747    573.966    569.295    569.295
 89.370    633.000    656.939    -23.939    569.007    652.308    573.635    569.007    569.007
 89.470    611.000    656.416    -45.416    568.719    651.761    573.381    568.719    568.719
 89.570    652.000    657.697     -5.697    568.430    652.957    573.188    568.430    568.430
 89.670    669.000    660.458      8.542    568.140    655.590    573.036    568.140    568.140
 89.770    645.000    664.245    -19.245    567.850    659.224    572.908    567.850    567.850
 89.870    671.000    668.492      2.508    567.560    663.315    572.781    567.560    567.560
 89.970    724.974    672.560     52.414    567.268    667.244    572.636    567.268    567.268
 90.070    629.985    675.783    -45.798    566.977    670.368    572.450    566.977    566.977
 90.170    723.500    677.552     45.948    566.684    672.096    572.203    566.684    566.684
 90.270    693.000    677.417     15.583    566.392    671.993    571.882    566.392    566.392
 90.370    685.000    675.182      9.818    566.098    669.866    571.481    566.098    566.098
 90.470    665.153    670.938     -5.785    565.805    665.802    571.006    565.805    565.805
 90.570    674.000    665.011      8.989    565.510    660.115    570.469    565.510    565.510
 90.670    628.412    657.866    -29.454    565.216    653.253    569.887    565.216    565.216
 90.770    628.728    650.006    -21.277    564.921    645.698    569.281    564.921    564.921
 90.870    681.000    641.897     39.103    564.625    637.902    568.666    564.625    564.625
 90.970    659.000    633.941     25.059    564.329    630.251    568.059    564.329    564.329
 91.070    600.000    626.452    -26.452    564.033    623.049    567.469    564.033    564.033
 91.170    590.000    619.662    -29.662    563.736    616.518    566.907    563.736    563.736
 91.270    663.510    613.716     49.795    563.439    610.800    566.376    563.439    563.439
 91.370    571.000    608.686    -37.686    563.142    605.963    565.881    563.142    563.142
 91.470    616.000    604.581     11.419    562.844    602.017    565.420    562.844    562.844
 91.570    684.000    601.366     82.634    562.546    598.927    564.994    562.546    562.546
 91.670    661.000    598.976     62.024    562.248    596.631    564.598    562.248    562.248
 91.770    601.198    597.336      3.861    561.949    595.057    564.232    561.949    561.949
 91.870    572.000    596.376    -24.376    561.650    594.135    563.891    561.650    561.650
 91.970    611.000    596.041     14.959    561.351    593.816    563.575    561.351    561.351
 92.070    552.000    596.306    -44.306    561.051    594.071    563.283    561.051    561.051
 92.170    605.394    597.175      8.219    560.751    594.907    563.015    560.751    560.751
 92.270    555.429    598.689    -43.260    560.451    596.363    562.772    560.451    560.451
 92.370    614.000    600.926     13.074    560.151    598.512    562.557    560.151    560.151
 92.470    647.000    603.994     43.006    559.850    601.460    562.375    559.850    559.850
 92.570    589.000    608.031    -19.031    559.550    605.337    562.230    559.550    559.550
 92.670    629.000    613.189     15.811    559.249    610.295    562.127    559.249    559.249
 92.770    608.000    619.632    -11.632    558.948    616.488    562.072    558.948    558.948
 92.870    630.808    627.513      3.295    558.647    624.066    562.069    558.647    558.647
 92.970    646.976    636.965     10.011    558.345    633.159    562.122    558.345    558.345
 93.070    648.613    648.080      0.533    558.044    643.857    562.231    558.044    558.044
 93.170    650.000    660.898    -10.898    557.743    656.203    562.396    557.743    557.743
 93.270    664.000    675.392    -11.392    557.441    670.170    562.614    557.441    557.441
 93.370    664.000    691.455    -27.455    557.139    685.657    562.881    557.139    557.139
 93.470    714.516    708.891      5.625    556.838    702.476    563.190    556.838    556.838
 93.570    777.417    727.401     50.016    556.536    720.334    563.533    556.536    556.536
 93.670    725.000    746.626    -21.626    556.234    738.878    563.906    556.234    556.234
 93.770    842.000    766.131     75.869    555.932    757.676    564.305    555.932    555.932
 93.870    741.000    785.447    -44.447    555.630    776.254    564.737    555.630    555.630
 93.970    797.000    804.179     -7.179    555.329    794.202    565.216    555.329    555.329
 94.070    794.143    822.106    -27.962    555.027    811.265    565.776    555.027    555.027
 94.170    791.000    839.238    -48.238    554.725    827.402    566.469    554.725    554.725
 94.270    887.000    855.813     31.187    554.424    842.780    567.363    554.424    554.424
 94.370    811.000    872.191    -61.191    554.122    857.681    568.539    554.122    554.122
 94.470    846.323    888.727    -42.404    553.821    872.377    570.078    553.821    553.821
 94.570    924.815    905.643     19.172    553.520    887.019    572.052    553.520    553.520
 94.670    908.000    922.978    -14.978    553.218    901.593    574.512    553.218    553.218
 94.770    995.000    940.600     54.400    552.917    915.947    577.481    552.917    552.917
 94.870    941.528    958.286    -16.758    552.617    929.873    580.943    552.617    552.617
 94.970    986.000    975.787     10.213    552.316    943.179    584.838    552.316    552.316
 95.070   1025.000    992.837     32.163    552.016    955.708    589.061    552.016    552.016
 95.170   1000.000   1009.084     -9.084    551.715    967.262    593.457    551.715    551.715
 95.270    973.000   1023.983    -50.983    551.415    977.498    597.825    551.415    551.415
 95.370    987.755   1036.725    -48.970    551.116    985.845    601.925    551.116    551.116
 95.470   1102.000   1046.239     55.761    550.816    991.501    605.489    550.816    550.816
 95.570   1084.000   1051.300     32.700    550.517    993.514    608.246    550.517    550.517
 95.670   1072.000   1050.743     21.257    550.218    990.962    609.951    550.218    550.218
 95.770   1021.751   1043.729    -21.978    549.920    983.185    610.425    549.920    549.920
 95.870   1015.000   1030.034    -15.034    549.622    970.023    609.604    549.622    549.622
 95.970   1027.000   1010.143     16.857    549.324    951.909    607.539    549.324    549.324
 96.070    936.973    985.206    -48.233    549.026    929.829    604.393    549.026    549.026
 96.170    918.585    956.842    -38.257    548.729    905.164    600.404    548.729    548.729
 96.270    990.606    926.898     63.708    548.433    879.491    595.841    548.433    548.433
 96.370    948.570    897.265     51.305    548.137    854.429    590.977    548.137    548.137
 96.470    877.000    869.759      7.241    547.841    831.547    586.057    547.841    547.841
 96.570    888.000    846.055     41.945    547.546    812.308    581.296    547.546    547.546
 96.670    879.000    827.652     51.348    547.251    798.042    576.860    547.251    547.251
 96.770    791.032    815.850    -24.818    546.957    789.926    572.875    546.957    546.957
 96.870    790.000    811.741    -21.741    546.663    788.974    569.417    546.663    546.663
 96.970    862.059    816.196     45.863    546.370    796.022    566.523    546.370    546.370
 97.070    852.000    829.859     22.141    546.077    811.711    564.196    546.077    546.077
 97.170    874.720    853.136     21.584    545.785    836.470    562.411    545.785    545.785
 97.270    945.000    886.157     58.843    545.494    870.473    561.127    545.494    545.494
 97.370    928.936    928.746      0.191    545.203    913.595    560.291    545.203    545.203
 97.470    972.254    980.529     -8.276    544.913    965.519    559.850    544.913    544.913
 97.570   1110.000   1040.607     69.393    544.624   1025.402    559.744    544.624    544.624
 97.670   1173.000   1107.697     65.303    544.335   1092.027    559.911    544.335    544.335
 97.770   1170.000   1180.055    -10.055    544.047   1163.710    560.290    544.047    544.047
 97.870   1229.000   1255.426    -26.426    543.759   1238.266    560.812    543.759    543.759
 97.970   1312.726   1331.078    -18.352    543.473   1313.031    561.408    543.473    543.473
 98.070   1403.000   1403.763     -0.763    543.187   1384.835    562.004    543.187    543.187
 98.170   1470.000   1469.853      0.147    542.902   1450.129    562.520    542.902    542.902
 98.270   1516.000   1525.549     -9.549    542.618   1505.193    562.878    542.618    542.618
 98.370   1582.327   1567.253     15.073    542.334   1546.501    563.003    542.334    542.334
 98.470   1589.000   1592.080     -3.080    542.052   1571.227    562.838    542.052    542.052
 98.570   1650.000   1598.383     51.617    541.770   1577.755    562.350    541.770    541.770
 98.670   1634.706   1586.087     48.619    541.489   1566.012    561.537    541.489    541.489
 98.770   1473.604   1556.680    -83.076    541.209   1537.454    560.427    541.209    541.209
 98.870   1437.507   1512.888    -75.382    540.930   1494.755    559.073    540.930    540.930
 98.970   1415.000   1458.186    -43.186    540.652   1441.323    557.538    540.652    540.652
 99.070   1396.000   1396.339     -0.339    540.375   1380.852    555.894    540.375    540.375
 99.170   1339.000   1331.053      7.947    540.099   1316.984    554.207    540.099    540.099
 99.270   1200.878   1265.766    -64.888    539.824   1253.092    552.538    539.824    539.824
 99.370   1222.000   1203.521     18.479    539.550   1192.172    550.941    539.550    539.550
 99.470   1113.000   1146.927    -33.927    539.277   1136.784    549.457    539.277    539.277
 99.570   1117.000   1098.148     18.852    539.005   1089.062    548.123    539.005    539.005
 99.670   1001.000   1058.932    -57.932    538.734   1050.731    546.961    538.734    538.734
 99.770   1064.000   1030.651     33.349    538.465   1023.145    545.989    538.465    538.465
 99.870   1065.039   1014.332     50.707    538.196   1007.324    545.214    538.196    538.196
 99.970   1036.000   1010.680     25.320    537.929   1003.974    544.637    537.929    537.929
100.070    938.000   1020.092    -82.092    537.663   1013.499    544.250    537.663    537.663
100.170   1048.000   1042.668      5.332    537.398   1036.011    544.044    537.398    537.398
100.270   1097.741   1078.217     19.523    537.134   1071.334    544.001    537.134    537.134
100.370   1154.000   1126.253     27.747    536.871   1119.004    544.101    536.871    536.871
100.470   1212.169   1185.989     26.180    536.610   1178.260    544.320    536.610    536.610
100.570   1264.000   1256.323      7.677    536.350   1248.024    544.632    536.350    536.350
100.670   1369.000   1335.802     33.198    536.092   1326.875    545.005    536.092    536.092
100.770   1432.659   1422.599     10.060    535.835   1413.020    545.408    535.835    535.835
100.870   1535.000   1514.492     20.508    535.579   1504.268    545.806    535.579    535.579
100.970   1589.902   1608.873    -18.971    535.324   1598.049    546.166    535.324    535.324
101.070   1746.000   1702.827     43.173    535.071   1691.481    546.452    535.071    535.071
101.170   1832.000   1793.361     38.639    534.820   1781.599    546.635    534.820    534.820
101.270   1937.000   1877.540     59.460    534.570   1865.493    546.692    534.570    534.570
101.370   1951.319   1952.822     -1.503    534.321   1940.629    546.612    534.321    534.321
101.470   2034.000   2017.207     16.793    534.074   2005.003    546.397    534.074    534.074
101.570   2037.000   2069.230    -32.230    533.828   2057.137    546.062    533.828    533.828
101.670   2112.000   2107.801      4.199    533.584   2095.913    545.632    533.584    533.584
101.770   2055.597   2132.002    -76.405    533.342   2120.381    545.140    533.342    533.342
101.870   2161.000   2140.982     20.018    533.101   2129.658    544.616    533.101    533.101
101.970   2054.000   2134.057    -80.057    532.862   2123.029    544.093    532.862    532.862
102.070   2090.000   2111.009    -21.009    532.624   2100.249    543.598    532.624    532.624
102.170   2117.900   2072.459     45.441    532.388   2061.913    543.152    532.388    532.388
102.270   1965.000   2020.106    -55.106    532.154   2009.707    542.772    532.154    532.154
102.370   1921.000   1956.706    -35.706    531.922   1946.376    542.469    531.922    531.922
102.470   1917.000   1885.749     31.251    531.691   1875.406    542.244    531.691    531.691
102.570   1801.688   1810.975     -9.287    531.462   1800.543    542.095    531.462    531.462
102.670   1647.000   1735.916    -88.916    531.235   1725.331    542.010    531.235    531.235
102.770   1579.344   1663.558    -84.214    531.010   1652.774    541.971    531.010    531.010
102.870   1569.000   1596.162    -27.162    530.786   1585.156    541.958    530.786    530.786
102.970   1575.672   1535.204     40.467    530.565   1523.974    541.948    530.565    530.565
103.070   1513.222   1481.383     31.839    530.345   1469.951    541.918    530.345    530.345
103.170   1446.000   1434.670     11.330    530.128   1423.079    541.850    530.128    530.128
103.270   1431.310   1394.382     36.928    529.912   1382.690    541.726    529.912    529.912
103.370   1306.000   1359.281    -53.281    529.698   1347.563    541.532    529.698    529.698
103.470   1305.000   1327.728    -22.728    529.487   1316.071    541.255    529.487    529.487
103.570   1302.389   1297.878      4.512    529.277   1286.378    540.885    529.277    529.277
103.670   1262.000   1267.920     -5.920    529.069   1256.683    540.413    529.069    529.069
103.770   1226.000   1236.350    -10.350    528.864   1225.484    539.836    528.864    528.864
103.870   1217.328   1202.174     15.154    528.660   1191.779    539.159    528.660    528.660
103.970   1155.286   1164.993     -9.706    528.459   1155.159    538.395    528.459    528.459
104.070   1078.262   1124.967    -46.705    528.260   1115.767    537.560    528.260    528.260
104.170   1071.000   1082.671    -11.671    528.063   1074.155    536.675    528.063    528.063
104.270   1036.000   1038.928     -2.928    527.869   1031.123    535.764    527.869    527.869
104.370   1004.000    994.652      9.348    527.676    987.566    534.848    527.676    527.676
104.470    979.000    950.754     28.246    527.486    944.375    533.944    527.486    527.486
104.570    902.000    908.069     -6.069    527.298    902.370    533.070    527.298    527.298
104.670    864.000    867.324     -3.324    527.113    862.266    532.236    527.113    527.113
104.770    883.000    829.117     53.883    526.930    824.653    531.452    526.930    526.930
104.870    817.000    793.901     23.099    526.749    789.977    530.725    526.749    526.749
104.970    717.156    761.987    -44.831    526.570    758.546    530.056    526.570    526.570
105.070    773.978    733.537     40.441    526.395    730.522    529.448    526.395    526.395
105.170    698.000    708.565    -10.565    526.221    705.927    528.892    526.221    526.221
105.270    731.475    687.033     44.442    526.050    684.713    528.398    526.050    526.050
105.370    689.337    668.770     20.567    525.882    666.714    527.960    525.882    525.882
105.470    635.000    653.531    -18.531    525.716    651.694    527.571    525.716    525.716
105.570    688.000    641.042     46.958    525.553    639.384    527.226    525.553    525.553
105.670    689.000    631.014     57.986    525.392    629.498    526.920    525.392    525.392
105.770    642.000    623.161     18.839    525.234    621.755    526.648    525.234    525.234
105.870    625.892    617.215      8.676    525.079    615.893    526.407    525.079    525.079
105.970    669.000    612.943     56.057    524.926    611.680    526.192    524.926    524.926
106.070    578.496    610.146    -31.650    524.776    608.923    526.000    524.776    524.776
106.170    601.000    608.669     -7.669    524.629    607.466    525.830    524.629    524.629
106.270    617.548    608.396      9.153    524.485    607.198    525.678    524.485    524.485
106.370    641.000    609.249     31.751    524.343    608.041    525.544    524.343    524.343
106.470    609.000    611.182     -2.182    524.205    609.950    525.428    524.205    524.205
106.570    621.000    614.175      6.825    524.069    612.905    525.328    524.069    524.069
106.670    593.000    618.228    -25.228    523.936    616.906    525.244    523.936    523.936
106.770    619.706    623.349     -3.643    523.806    621.961    525.177    523.806    523.806
106.870    667.000    629.551     37.449    523.679    628.084    525.126    523.679    523.679
106.970    659.000    636.843     22.157    523.555    635.282    525.093    523.555    523.555
107.070    627.184    645.220    -18.035    523.434    643.551    525.075    523.434    523.434
107.170    669.000    654.652     14.348    523.316    652.864    525.074    523.316    523.316
107.270    694.000    665.081     28.919    523.202    663.160    525.088    523.202    523.202
107.370    623.051    676.404    -53.353    523.090    674.341    525.116    523.090    523.090
107.470    650.058    688.477    -38.419    522.981    686.262    525.156    522.981    522.981
107.570    684.060    701.104    -17.043    522.876    698.731    525.205    522.876    522.876
107.670    719.000    714.040      4.960    522.774    711.508    525.259    522.774    522.774
107.770    733.809    726.996      6.813    522.675    724.307    525.315    522.675    522.675
107.870    709.000    739.639    -30.639    522.579    736.799    525.367    522.579    522.579
107.970    741.000    751.606    -10.606    522.487    748.630    525.412    522.487    522.487
108.070    754.000    762.526     -8.526    522.398    759.429    525.442    522.398    522.398
108.170    781.000    772.039      8.961    522.312    768.846    525.453    522.312    522.312
108.270    772.826    779.845     -7.019    522.230    776.584    525.441    522.230    522.230
108.370    791.000    785.741      5.259    522.151    782.443    525.401    522.151    522.151
108.470    813.595    789.660     23.935    522.076    786.358    525.332    522.076    522.076
108.570    835.036    791.694     43.342    522.004    788.421    525.236    522.004    522.004
108.670    727.000    792.083    -65.083    521.936    788.868    525.113    521.936    521.936
108.770    801.000    791.183      9.817    521.871    788.052    524.969    521.871    521.871
108.870    714.000    789.420    -75.420    521.810    786.392    524.809    521.810    521.810
108.970    801.215    787.234     13.981    521.752    784.324    524.638    521.752    521.752
109.070    776.000    785.035     -9.035    521.698    782.251    524.463    521.698    521.698
109.170    833.244    783.175     50.070    521.648    780.520    524.287    521.648    521.648
109.270    764.013    781.917    -17.905    521.602    779.391    524.116    521.602    521.602
109.370    774.989    781.432     -6.443    521.559    779.029    523.954    521.559    521.559
109.470    816.035    781.783     34.252    521.520    779.496    523.803    521.520    521.520
109.570    762.000    782.927    -20.927    521.485    780.748    523.664    521.485    521.485
109.670    830.648    784.718     45.931    521.454    782.635    523.540    521.454    521.454
109.770    782.000    786.906     -4.906    521.426    784.910    523.430    521.426    521.426
109.870    727.000    789.159    -62.159    521.403    787.240    523.332    521.403    521.403
109.970    740.588    791.075    -50.487    521.384    789.225    523.247    521.384    521.384
110.070    718.000    792.217    -74.217    521.368    790.430    523.171    521.368    521.368
110.170    794.000    792.159      1.841    521.357    790.432    523.103    521.357    521.357
110.270    710.000    790.534    -80.534    521.349    788.864    523.041    521.349    521.349
110.370    791.000    787.084      3.916    521.346    785.472    522.982    521.346    521.346
110.470    715.000    781.692    -66.692    521.347    780.142    522.923    521.347    521.347
110.570    773.000    774.394     -1.394    521.352    772.915    522.857    521.352    521.352
110.670    729.000    765.397    -36.397    521.361    763.981    522.803    521.361    521.361
110.770    742.053    754.975    -12.922    521.374    753.622    522.754    521.374    521.374
110.870    709.000    743.471    -34.471    521.392    742.180    522.708    521.392    521.392
110.970    677.599    731.253    -53.654    521.414    730.024    522.667    521.414    521.414
111.070    702.000    718.679    -16.679    521.440    717.511    522.631    521.440    521.440
111.170    754.505    706.084     48.421    521.471    704.974    522.602    521.471    521.471
111.270    676.000    693.760    -17.760    521.506    692.706    522.580    521.506    521.506
111.370    641.573    681.956    -40.383    521.546    680.953    522.566    521.546    521.546
111.470    653.000    670.896    -17.896    521.590    669.939    522.562    521.590    521.590
111.570    662.544    660.733      1.811    521.638    659.817    522.567    521.638    521.638
111.670    682.061    651.580     30.481    521.691    650.700    522.582    521.691    521.691
111.770    687.000    643.511     43.489    521.749    642.661    522.608    521.749    521.749
111.870    633.000    636.558     -3.558    521.811    635.732    522.643    521.811    521.811
111.970    662.000    630.718     31.282    521.878    629.911    522.689    521.878    521.878
112.070    688.000    625.957     62.043    521.950    625.165    522.745    521.950    521.950
112.170    635.000    622.222     12.778    522.026    621.438    522.810    522.026    522.026
112.270    638.000    619.437     18.563    522.108    618.659    522.885    522.108    522.108
112.370    635.000    617.520     17.480    522.194    616.742    522.968    522.194    522.194
112.470    598.000    616.381    -18.381    522.284    615.602    523.059    522.284    522.284
112.570    589.000    615.930    -26.930    522.380    615.146    523.158    522.380    522.380
112.670    611.000    616.079     -5.079    522.481    615.288    523.264    522.481    522.481
112.770    657.448    616.745     40.703    522.586    615.947    523.377    522.586    522.586
112.870    643.443    617.857     25.586    522.697    617.050    523.495    522.697    522.697
112.970    582.000    619.353    -37.353    522.812    618.536    523.620    522.812    522.812
113.070    593.000    621.183    -28.183    522.933    620.357    523.749    522.933    522.933
113.170    638.517    623.312     15.205    523.059    622.476    523.884    523.059    523.059
113.270    595.000    625.720    -30.720    523.190    624.875    524.024    523.190    523.190
113.370    647.000    628.402     18.598    523.326    627.547    524.170    523.326    523.326
113.470    679.527    631.369     48.158    523.467    630.504    524.321    523.467    523.467
113.570    644.000    634.650      9.350    523.614    633.773    524.479    523.614    523.614
113.670    648.000    638.289      9.711    523.765    637.400    524.643    523.765    523.765
113.770    641.000    642.353     -1.353    523.923    641.448    524.815    523.923    523.923
113.870    635.040    646.927    -11.886    524.085    646.003    524.996    524.085    524.085
113.970    600.812    652.126    -51.314    524.253    651.179    525.187    524.253    524.253
114.070    673.000    658.096     14.904    524.427    657.120    525.389    524.427    524.427
114.170    610.000    665.027    -55.027    524.606    664.014    525.603    524.606    524.606
114.270    670.084    673.158     -3.074    524.790    672.100    525.831    524.790    524.790
114.370    690.000    682.792      7.208    524.980    681.678    526.075    524.980    524.980
114.470    675.000    694.309    -19.309    525.176    693.126    526.337    525.176    525.176
114.570    687.000    708.181    -21.181    525.377    706.914    526.619    525.377    525.377
114.670    676.000    724.990    -48.990    525.584    723.623    526.922    525.584    525.584
114.770    766.000    745.445     20.555    525.797    743.957    527.250    525.797    525.797
114.870    773.000    770.397      2.603    526.015    768.765    527.606    526.015    526.015
114.970    815.000    800.859     14.141    526.239    799.058    527.991    526.239    526.239
115.070    808.426    838.015    -29.589    526.470    836.016    528.409    526.470    526.470
115.170    847.516    883.230    -35.714    526.706    881.000    528.863    526.706    526.706
115.270    957.000    938.050     18.950    526.948    935.555    529.355    526.948    526.948
115.370    989.000   1004.197    -15.197    527.195   1001.398    529.889    527.195    527.195
115.470   1059.000   1083.546    -24.546    527.449   1080.402    530.467    527.449    527.449
115.570   1156.000   1178.095    -22.095    527.709   1174.563    531.091    527.709    527.709
115.670   1291.000   1289.918      1.082    527.975   1285.951    531.764    527.975    527.975
115.770   1369.687   1421.100    -51.413    528.248   1416.651    532.486    528.248    528.248
115.870   1589.000   1573.659     15.341    528.526   1568.681    533.260    528.526    528.526
115.970   1694.998   1749.449    -54.451    528.811   1743.894    534.084    528.811    528.811
116.070   2027.915   1950.055     77.860    529.102   1943.875    534.958    529.102    529.102
116.170   2222.000   2176.670     45.330    529.399   2169.823    535.879    529.399    529.399
116.270   2380.000   2429.977    -49.977    529.702   2422.422    536.846    529.702    529.702
116.370   2735.595   2710.023     25.573    530.012   2701.725    537.852    530.012    530.012
116.470   2982.062   3016.104    -34.042    530.329   3007.036    538.892    530.329    530.329
116.570   3251.414   3346.666    -95.252    530.651   3336.811    539.960    530.651    530.651
116.670   3591.000   3699.226   -108.226    530.981   3688.573    541.046    530.981    530.981
116.770   4141.000   4070.307     70.693    531.317   4058.858    542.141    531.317    531.317
116.870   4525.023   4455.391     69.632    531.659   4443.161    543.236    531.659    531.659
116.970   4864.303   4849.059     15.245    532.008   4836.070    544.322    532.008    532.008
117.070   5160.418   5244.858    -84.440    532.364   5231.145    545.391    532.364    532.364
117.170   5549.000   5635.437    -86.437    532.727   5621.043    546.433    532.727    532.727
117.270   6039.886   6012.687     27.199    533.096   5997.668    547.440    533.096    533.096
117.370   6349.000   6367.899    -18.899    533.472   6352.318    548.404    533.472    533.472
117.470   6756.000   6691.998     64.002    533.855   6675.927    549.317    533.855    533.855
117.570   7089.123   6975.871    113.251    534.245   6959.393    550.169    534.245    534.245
117.670   7292.999   7210.807     82.192    534.642   7194.010    550.953    534.642    534.642
117.770   7368.000   7389.033    -21.033    535.046   7372.015    551.660    535.046    535.046
117.870   7651.000   7504.320    146.680    535.456   7487.181    552.284    535.456    535.456
117.970   7677.110   7552.550    124.560    535.874   7535.392    552.820    535.874    535.874
118.070   7513.199   7532.140    -18.941    536.299   7515.065    553.266    536.299    536.299
118.170   7552.000   7444.210    107.790    536.732   7427.313    553.622    536.732    536.732
118.270   7439.905   7292.456    147.449    537.171   7275.828    553.890    537.171    537.171
118.370   7232.338   7082.758    149.580    537.618   7066.479    554.076    537.618    537.618
118.470   6785.000   6822.618    -37.618    538.072   6806.760    554.187    538.072    538.072
118.570   6359.000   6520.558   -161.558    538.533   6505.184    554.230    538.533    538.533
118.670   5989.000   6185.563   -196.563    539.002   6170.726    554.212    539.002    539.002
118.770   5977.666   5826.626    151.040    539.478   5812.372    554.143    539.478    539.478
118.870   5489.000   5452.401     36.599    539.962   5438.766    554.032    539.962    539.962
118.970   5107.000   5070.954     36.046    540.453   5057.967    553.887    540.453    540.453
119.070   4707.753   4689.584     18.169    540.952   4677.264    553.719    540.952    540.952
119.170   4375.000   4314.704     60.296    541.458   4303.062    553.537    541.458    541.458
119.270   4094.000   3951.763    142.237    541.972   3940.801    553.352    541.972    541.972
119.370   3670.000   3605.208     64.792    542.494   3594.920    553.175    542.494    542.494
119.470   3332.000   3278.486     53.514    543.023   3268.857    553.015    543.023    543.023
119.570   3089.000   2974.075    114.925    543.561   2965.083    552.881    543.561    543.561
119.670   2749.000   2693.553     55.447    544.106   2685.170    552.781    544.106    544.106
119.770   2448.689   2437.690     11.000    544.659   2429.880    552.723    544.659    544.659
119.870   2213.000   2206.551      6.449    545.220   2199.277    552.713    545.220    545.220
119.970   2068.640   1999.623     69.017    545.789   1992.841    552.755    545.789    545.789
120.070   1852.000   1815.923     36.077    546.366   1809.586    552.855    546.366    546.366
120.170   1650.106   1654.116     -4.010    546.951   1648.175    553.015    546.951    546.951
120.270   1472.681   1512.620    -39.939    547.544   1507.022    553.238    547.544    547.544
120.370   1380.567   1389.694     -9.127    548.146   1384.386    553.526    548.146    548.146
120.470   1292.000   1283.525      8.475    548.756   1278.452    553.881    548.756    548.756
120.570   1241.000   1192.296     48.704    549.374   1187.403    554.304    549.374    549.374
120.670   1147.000   1114.244     32.756    550.000   1109.473    554.795    550.000    550.000
120.770   1005.213   1047.701    -42.488    550.635   1042.994    555.355    550.635    550.635
120.870    933.385    991.129    -57.743    551.278    986.427    555.985    551.278    551.278
120.970    960.000    943.135     16.865    551.929    938.380    556.685    551.929    551.929
121.070    840.169    902.485    -62.316    552.589    897.615    557.456    552.589    552.589
121.170    853.000    868.099    -15.099    553.258    863.053    558.298    553.258    553.258
121.270    814.979    839.049    -24.070    553.935    833.764    559.213    553.935    553.935
121.370    850.455    814.543     35.912    554.621    808.955    560.202    554.621    554.621
121.470    844.186    793.917     50.269    555.316    787.960    561.266    555.316    555.316
121.570    776.000    776.615     -0.615    556.019    770.223    562.406    556.019    556.019
121.670    734.000    762.177    -28.177    556.732    755.280    563.624    556.732    556.732
121.770    731.641    750.222    -18.581    557.453    742.749    564.922    557.453    557.453
121.870    721.000    740.436    -19.436    558.183    732.316    566.301    558.183    558.183
121.970    686.227    732.559    -46.332    558.922    723.719    567.762    558.922    558.922
122.070    709.000    726.376    -17.376    559.670    716.741    569.306    559.670    559.670
122.170    702.000    721.705    -19.705    560.427    711.201    570.933    560.427    560.427
122.270    716.000    718.395     -2.395    561.193    706.946    572.645    561.193    561.193
122.370    694.923    716.311    -21.388    561.968    703.843    574.441    561.968    561.968
122.470    754.658    715.338     39.321    562.753    701.777    576.320    562.753    562.753
122.570    711.000    715.369     -4.369    563.547    700.644    578.280    563.547    563.547
122.670    652.000    716.307    -64.307    564.350    700.347    580.320    564.350    564.350
122.770    668.082    718.058    -49.976    565.162    700.798    582.434    565.162    565.162
122.870    689.459    720.528    -31.069    565.984    701.909    584.617    565.984    565.984
122.970    687.000    723.625    -36.625    566.816    703.595    586.861    566.816    566.816
123.070    703.000    727.251    -24.251    567.657    705.770    589.156    567.657    567.657
123.170    720.000    731.308    -11.308    568.507    708.346    591.489    568.507    568.507
123.270    688.768    735.688    -46.920    569.367    711.234    593.844    569.367    569.367
123.370    743.000    740.281      2.719    570.237    714.340    596.204    570.237    570.237
123.470    689.646    744.971    -55.324    571.116    717.569    598.546    571.116    571.116
123.570    736.000    749.633    -13.633    572.006    720.821    600.849    572.006    572.006
123.670    757.000    754.142      2.858    572.905    723.995    603.087    572.905    572.905
123.770    792.312    758.366     33.946    573.814    726.986    605.232    573.814    573.814
123.870    723.502    762.176    -38.674    574.733    729.692    607.257    574.733    574.733
123.970    736.329    765.444    -29.115    575.662    732.014    609.135    575.662    575.662
124.070    780.230    768.050     12.181    576.601    733.857    610.840    576.601    576.601
124.170    741.627    769.889    -28.262    577.550    735.139    612.348    577.550    577.550
124.270    809.000    770.871     38.129    578.509    735.791    613.641    578.509    578.509
124.370    766.000    770.906     -4.906    579.479    735.734    614.704    579.479    579.479
124.470    762.000    770.027     -8.027    580.459    735.007    615.534    580.459    580.459
124.570    813.000    768.215     44.785    581.449    733.589    616.131    581.449    581.449
124.670    838.000    765.496     72.504    582.449    731.497    616.505    582.449    582.449
124.770    702.612    761.929    -59.317    583.460    728.776    616.671    583.460    583.460
124.870    739.166    757.598    -18.432    584.481    725.487    616.649    584.481    584.481
124.970    837.000    752.603     84.397    585.513    721.707    616.466    585.513    585.513
