neutron_powder_diffraction_0054
R_wp: 3.988
Temperature (K): 667.055
Counts: 83454.00
Wavelength (Ã…): 2.52098
COMMENTS
Test file for demonstrating the .xyy file format in Reel1.0
END OF HEADER
   tth       Y_obs     Y_calc      Y_res    Background    Phase_1_Nuc    Phase_1_Mag    Phase_2_Nuc    Phase_2_Mag
  9.970    676.534    657.921     18.613    656.591    657.567    656.944    656.591    656.591
 10.070    678.207    657.491     20.716    656.079    657.133    656.436    656.079    656.079
 10.170    663.494    657.072      6.422    655.566    656.710    655.927    655.566    655.566
 10.270    671.173    656.665     14.508    655.053    656.299    655.418    655.053    655.053
 10.370    717.000    656.273     60.727    654.539    655.903    654.907    654.539    654.539
 10.470    669.000    655.899     13.101    654.023    655.526    654.396    654.023    654.023
 10.570    686.072    655.549     30.523    653.508    655.171    653.885    653.508    653.508
 10.670    657.000    655.227      1.773    652.991    654.845    653.372    652.991    652.991
 10.770    686.600    654.941     31.659    652.474    654.555    652.859    652.474    652.474
 10.870    655.891    654.703      1.188    651.956    654.312    652.346    651.956    651.956
 10.970    653.000    654.524     -1.524    651.438    654.129    651.832    651.438    651.438
 11.070    678.077    654.425     23.652    650.919    654.025    651.317    650.919    650.919
 11.170    617.000    654.434    -37.434    650.399    654.029    650.802    650.399    650.399
 11.270    630.247    654.591    -24.345    649.879    654.181    650.286    649.879    649.879
 11.370    720.000    654.964     65.036    649.358    654.549    649.770    649.358    649.358
 11.470    622.718    655.680    -32.962    648.837    655.260    649.254    648.837    648.837
 11.570    623.999    657.034    -33.035    648.315    656.608    648.737    648.315    648.315
 11.670    686.000    659.722     26.278    647.793    659.289    648.220    647.793    647.793
 11.770    683.000    665.224     17.776    647.270    664.782    647.702    647.270    647.270
 11.870    620.637    676.000    -55.363    646.747    675.547    647.184    646.747    646.747
 11.970    793.000    694.774     98.226    646.224    694.305    646.666    646.224    646.224
 12.070    797.000    722.230     74.770    645.700    721.740    646.148    645.700    645.700
 12.170    753.934    753.146      0.788    645.176    752.633    645.629    645.176    645.176
 12.270    814.000    773.553     40.447    644.652    773.023    645.111    644.652    644.652
 12.370    773.073    769.446      3.628    644.128    768.912    644.592    644.128    644.128
 12.470    753.804    743.767     10.037    643.603    743.242    644.073    643.603    643.603
 12.570    698.877    711.922    -13.046    643.078    711.409    643.553    643.078    643.078
 12.670    644.000    685.536    -41.536    642.553    685.031    643.034    642.553    642.553
 12.770    652.000    667.959    -15.959    642.028    667.457    642.515    642.028    642.028
 12.870    597.000    657.722    -60.722    641.502    657.220    641.995    641.502    641.502
 12.970    632.000    652.068    -20.068    640.977    651.562    641.476    640.977    640.977
 13.070    645.000    648.894     -3.894    640.451    648.384    640.957    640.451    640.451
 13.170    646.000    646.718     -0.718    639.925    646.202    640.438    639.925    639.925
 13.270    663.444    645.070     18.374    639.399    644.548    639.918    639.399    639.399
 13.370    669.000    643.726     25.274    638.874    643.198    639.399    638.874    638.874
 13.470    625.000    642.580    -17.580    638.348    642.045    638.880    638.348    638.348
 13.570    589.000    641.570    -52.570    637.822    641.029    638.362    637.822    637.822
 13.670    633.000    640.663     -7.663    637.296    640.115    637.843    637.296    637.296
 13.770    628.000    639.833    -11.833    636.771    639.278    637.325    636.771    636.771
 13.870    640.000    639.057      0.943    636.245    638.495    636.807    636.245    636.245
 13.970    599.000    638.325    -39.325    635.720    637.755    636.289    635.720    635.720
 14.070    600.027    637.629    -37.601    635.194    637.051    635.771    635.194    635.194
 14.170    605.000    636.960    -31.960    634.669    636.375    635.254    634.669    634.669
 14.270    641.000    636.315      4.685    634.144    635.722    634.737    634.144    634.144
 14.370    678.000    635.691     42.309    633.620    635.089    634.220    633.620    633.620
 14.470    658.000    635.106     22.894    633.095    634.495    633.705    633.095    633.095
 14.570    598.000    634.510    -36.510    632.571    633.892    633.189    632.571    632.571
 14.670    628.000    633.923     -5.923    632.047    633.296    632.674    632.047    632.047
 14.770    590.000    633.347    -43.347    631.523    632.711    632.159    631.523    631.523
 14.870    651.000    632.778     18.222    631.000    632.133    631.645    631.000    631.000
 14.970    627.329    632.215     -4.886    630.477    631.560    631.131    630.477    630.477
 15.070    650.000    631.659     18.341    629.954    630.994    630.618    629.954    629.954
 15.170    682.207    631.108     51.100    629.432    630.433    630.105    629.432    629.432
 15.270    592.000    630.561    -38.561    628.910    629.877    629.593    628.910    628.910
 15.370    621.000    630.019     -9.019    628.388    629.325    629.082    628.388    628.388
 15.470    659.000    629.481     29.519    627.867    628.776    628.571    627.867    627.867
 15.570    601.000    628.946    -27.946    627.346    628.231    628.061    627.346    627.346
 15.670    614.000    628.415    -14.415    626.826    627.689    627.552    626.826    626.826
 15.770    603.000    627.887    -24.887    626.307    627.149    627.044    626.307    626.307
 15.870    678.831    627.361     51.469    625.787    626.612    626.536    625.787    625.787
 15.970    638.744    626.838     11.905    625.269    626.078    626.029    625.269    625.269
 16.070    641.953    626.319     15.634    624.751    625.546    625.523    624.751    624.751
 16.170    612.000    625.805    -13.805    624.233    625.020    625.018    624.233    624.233
 16.270    606.041    625.290    -19.249    623.716    624.493    624.514    623.716    623.716
 16.370    661.000    624.776     36.224    623.200    623.966    624.010    623.200    623.200
 16.470    635.000    624.265     10.735    622.684    623.441    623.508    622.684    622.684
 16.570    645.000    623.755     21.245    622.169    622.918    623.006    622.169    622.169
 16.670    563.000    623.248    -60.248    621.655    622.397    622.506    621.655    621.655
 16.770    633.000    622.744     10.256    621.142    621.878    622.007    621.142    621.142
 16.870    546.000    622.246    -76.246    620.629    621.366    621.508    620.629    620.629
 16.970    631.000    621.748      9.252    620.116    620.853    621.011    620.116    620.116
 17.070    638.018    621.290     16.728    619.605    620.379    620.515    619.605    619.605
 17.170    556.000    620.828    -64.828    619.094    619.902    620.020    619.094    619.094
 17.270    607.000    620.335    -13.335    618.584    619.393    619.527    618.584    618.584
 17.370    589.000    619.841    -30.841    618.075    618.882    619.034    618.075    618.075
 17.470    646.750    619.349     27.401    617.567    618.373    618.543    617.567    617.567
 17.570    602.000    618.858    -16.858    617.059    617.865    618.053    617.059    617.059
 17.670    633.000    618.369     14.631    616.553    617.358    617.564    616.553    616.553
 17.770    657.045    617.883     39.162    616.047    616.853    617.076    616.047    616.047
 17.870    613.781    617.398     -3.617    615.542    616.350    616.590    615.542    615.542
 17.970    572.000    616.923    -44.923    615.038    615.855    616.106    615.038    615.038
 18.070    582.033    616.449    -34.416    614.535    615.361    615.623    614.535    614.535
 18.170    619.997    615.970      4.027    614.033    614.861    615.141    614.033    614.033
 18.270    644.090    615.493     28.597    613.531    614.363    614.661    613.531    613.531
 18.370    663.897    615.026     48.871    613.031    613.873    614.184    613.031    613.031
 18.470    618.000    614.635      3.365    612.532    613.450    613.717    612.532    612.532
 18.570    624.000    614.184      9.816    612.033    612.973    613.244    612.033    612.033
 18.670    627.000    613.717     13.283    611.536    612.482    612.771    611.536    611.536
 18.770    604.828    613.251     -8.422    611.040    611.991    612.299    611.040    611.040
 18.870    602.000    612.788    -10.788    610.545    611.503    611.829    610.545    610.545
 18.970    616.976    612.336      4.639    610.050    611.025    611.361    610.050    610.050
 19.070    593.545    611.880    -18.335    609.557    610.542    610.895    609.557    609.557
 19.170    581.000    611.423    -30.423    609.065    610.057    610.431    609.065    609.065
 19.270    595.000    610.969    -15.969    608.574    609.574    609.969    608.574    608.574
 19.370    587.000    610.517    -23.517    608.084    609.093    609.509    608.084    608.084
 19.470    635.000    610.067     24.933    607.596    608.613    609.050    607.596    607.596
 19.570    559.000    609.621    -50.621    607.108    608.134    608.594    607.108    607.108
 19.670    557.000    609.177    -52.177    606.622    607.658    608.141    606.622    606.622
 19.770    616.002    608.736      7.265    606.136    607.184    607.689    606.136    606.136
 19.870    575.632    608.308    -32.676    605.652    606.720    607.241    605.652    605.652
 19.970    569.000    607.897    -38.897    605.170    606.270    606.797    605.170    605.170
 20.070    614.000    607.477      6.523    604.688    605.808    606.357    604.688    604.688
 20.170    584.000    607.069    -23.069    604.208    605.359    605.917    604.208    604.208
 20.270    638.960    606.660     32.300    603.728    604.911    605.478    603.728    603.728
 20.370    623.000    606.258     16.742    603.250    604.467    605.042    603.250    603.250
 20.470    617.000    605.883     11.117    602.774    604.048    604.609    602.774    602.774
 20.570    614.153    605.504      8.650    602.298    603.624    604.178    602.298    602.298
 20.670    563.888    605.097    -41.209    601.824    603.171    603.751    601.824    601.824
 20.770    612.000    604.698      7.302    601.351    602.724    603.326    601.351    601.351
 20.870    598.000    604.319     -6.319    600.880    602.294    602.904    600.880    600.880
 20.970    623.000    603.935     19.065    600.410    601.859    602.486    600.410    600.410
 21.070    584.000    603.578    -19.578    599.941    601.447    602.072    599.941    599.941
 21.170    553.964    603.203    -49.239    599.474    601.015    601.661    599.474    599.474
 21.270    627.122    602.821     24.300    599.008    600.575    601.253    599.008    599.008
 21.370    576.000    602.443    -26.443    598.543    600.137    600.849    598.543    598.543
 21.470    615.175    602.072     13.103    598.080    599.702    600.450    598.080    598.080
 21.570    588.000    601.714    -13.714    597.618    599.275    600.056    597.618    597.618
 21.670    597.069    601.355     -4.286    597.157    598.847    599.665    597.157    597.157
 21.770    562.245    601.006    -38.761    596.698    598.426    599.278    596.698    596.698
 21.870    565.146    600.667    -35.520    596.240    598.011    598.896    596.240    596.240
 21.970    604.000    600.331      3.669    595.784    597.597    598.519    595.784    595.784
 22.070    575.712    600.006    -24.294    595.330    597.188    598.147    595.330    595.330
 22.170    546.000    599.684    -53.684    594.876    596.781    597.780    594.876    594.876
 22.270    627.056    599.372     27.684    594.425    596.378    597.418    594.425    594.425
 22.370    577.422    599.069    -21.647    593.974    595.981    597.062    593.974    593.974
 22.470    651.000    598.779     52.221    593.525    595.592    596.712    593.525    593.525
 22.570    551.949    598.500    -46.551    593.078    595.209    596.369    593.078    593.078
 22.670    611.947    598.233     13.713    592.632    594.834    596.032    592.632    592.632
 22.770    641.360    597.984     43.377    592.188    594.470    595.702    592.188    592.188
 22.870    589.000    597.750     -8.750    591.746    594.116    595.380    591.746    591.746
 22.970    598.000    597.534      0.466    591.304    593.773    595.066    591.304    591.304
 23.070    643.656    597.339     46.317    590.865    593.444    594.760    590.865    590.865
 23.170    595.000    597.169     -2.169    590.427    593.133    594.463    590.427    590.427
 23.270    559.884    597.027    -37.143    589.991    592.842    594.176    589.991    589.991
 23.370    630.641    596.919     33.722    589.556    592.577    593.898    589.556    589.556
 23.470    605.000    596.851      8.149    589.123    592.342    593.632    589.123    589.123
 23.570    605.000    596.831      8.169    588.691    592.146    593.378    588.691    588.691
 23.670    596.000    596.873     -0.873    588.261    591.999    593.136    588.261    588.261
 23.770    559.759    596.990    -37.231    587.833    591.918    592.907    587.833    587.833
 23.870    600.000    597.207      2.793    587.406    591.922    592.692    587.406    587.406
 23.970    596.000    597.556     -1.556    586.981    592.046    592.492    586.981    586.981
 24.070    571.042    598.097    -27.054    586.558    592.347    592.310    586.558    586.558
 24.170    597.000    598.947     -1.947    586.136    592.941    592.145    586.136    586.136
 24.270    644.000    600.381     43.619    585.716    594.101    592.000    585.716    585.716
 24.370    645.000    603.021     41.979    585.297    596.449    591.876    585.297    585.297
 24.470    626.000    608.061     17.939    584.881    601.177    591.775    584.881    584.881
 24.570    614.000    617.242     -3.242    584.466    610.024    591.700    584.466    584.466
 24.670    657.000    632.072     24.928    584.052    624.499    591.652    584.052    584.052
 24.770    654.000    652.084      1.916    583.641    644.131    591.635    583.641    583.641
 24.870    686.000    672.333     13.667    583.231    663.968    591.651    583.231    583.231
 24.970    699.504    682.388     17.115    582.823    673.569    591.705    582.823    582.823
 25.070    634.651    674.827    -40.176    582.416    665.500    591.801    582.416    582.416
 25.170    675.000    655.728     19.272    582.012    645.841    591.943    582.012    582.012
 25.270    652.000    635.669     16.331    581.609    625.171    592.136    581.609    581.609
 25.370    676.000    620.376     55.624    581.208    609.215    592.387    581.208    581.208
 25.470    587.999    610.839    -22.841    580.808    598.955    592.703    580.808    580.808
 25.570    631.000    605.743     25.257    580.411    593.066    593.094    580.411    580.411
 25.670    576.891    603.343    -26.452    580.015    589.794    593.568    580.015    580.015
 25.770    641.000    602.374     38.626    579.621    587.859    594.138    579.621    579.621
 25.870    594.904    602.161     -7.256    579.229    586.572    594.819    579.229    579.229
 25.970    576.034    602.413    -26.379    578.838    585.624    595.628    578.838    578.838
 26.070    616.000    603.017     12.983    578.450    584.882    596.585    578.450    578.450
 26.170    629.000    603.939     25.061    578.063    584.289    597.714    578.063    578.063
 26.270    560.834    605.175    -44.341    577.678    583.807    599.046    577.678    577.678
 26.370    587.431    606.742    -19.311    577.295    583.418    600.619    577.295    577.295
 26.470    579.681    608.680    -28.999    576.913    583.113    602.480    576.913    576.913
 26.570    584.000    611.045    -27.045    576.534    582.888    604.689    576.534    576.534
 26.670    566.362    613.913    -47.551    576.156    582.745    607.322    576.156    576.156
 26.770    668.000    617.388     50.612    575.780    582.689    610.477    575.780    575.780
 26.870    641.000    621.608     19.392    575.406    582.729    614.283    575.406    575.406
 26.970    616.617    626.762    -10.145    575.034    582.882    618.911    575.034    575.034
 27.070    589.810    633.109    -43.300    574.664    583.173    624.596    574.664    574.664
 27.170    697.000    640.995     56.005    574.296    583.634    631.651    574.296    574.296
 27.270    658.000    650.927      7.073    573.929    584.316    640.534    573.929    573.929
 27.370    687.413    663.645     23.767    573.565    585.292    651.910    573.565    573.565
 27.470    635.048    680.329    -45.281    573.202    586.681    666.840    573.202    573.202
 27.570    697.000    703.252     -6.252    572.841    588.709    687.370    572.841    572.841
 27.670    754.000    738.099     15.901    572.482    591.942    718.620    572.482    572.482
 27.770    791.000    800.865     -9.865    572.125    597.960    774.996    572.125    572.125
 27.870    933.000    932.081      0.919    571.770    610.770    893.017    571.770    571.770
 27.970   1081.000   1210.917   -129.917    571.417    638.189   1144.015    571.417    571.417
 28.070   1671.542   1738.580    -67.039    571.065    690.215   1619.192    571.065    571.065
 28.170   2655.127   2554.659    100.468    570.716    770.784   2354.217    570.716    570.716
 28.270   3465.000   3501.658    -36.658    570.368    864.439   3207.126    570.368    570.368
 28.370   4178.000   4156.200     21.800    570.023    929.599   3796.222    570.023    570.023
 28.470   4272.000   4105.272    166.728    569.679    925.930   3748.816    569.679    569.679
 28.570   3436.000   3445.394     -9.394    569.337    863.789   3150.910    569.337    569.337
 28.670   2604.000   2675.488    -71.488    568.997    793.777   2450.737    568.997    568.997
 28.770   2104.000   2202.809    -98.809    568.660    757.567   2013.912    568.660    568.660
 28.870   1976.000   2138.263   -162.263    568.324    766.357   1940.203    568.324    568.324
 28.970   2280.000   2343.691    -63.691    567.990    803.543   2108.107    567.990    567.990
 29.070   2496.000   2533.241    -37.241    567.658    833.641   2267.281    567.658    567.658
 29.170   2492.000   2451.154     40.846    567.328    824.156   2194.430    567.328    567.328
 29.270   2093.000   2087.067      5.933    566.999    774.968   1879.244    566.999    566.999
 29.370   1546.609   1627.275    -80.666    566.673    712.226   1481.853    566.673    566.673
 29.470   1229.695   1236.521     -6.826    566.349    658.798   1144.164    566.349    566.349
 29.570   1004.000    972.996     31.004    566.027    622.775    916.301    566.027    566.027
 29.670    888.000    821.271     66.729    565.707    602.079    784.926    565.707    565.707
 29.770    821.000    741.162     79.838    565.388    591.206    715.357    565.388    565.388
 29.870    738.314    698.373     39.940    565.072    585.459    677.993    565.072    565.072
 29.970    742.000    673.007     68.993    564.757    582.120    655.647    564.757    564.757
 30.070    608.571    655.963    -47.392    564.445    579.962    640.447    564.445    564.445
 30.170    719.000    643.563     75.437    564.135    578.513    629.185    564.135    564.135
 30.270    585.900    634.319    -48.420    563.826    577.629    620.515    563.826    563.826
 30.370    608.329    627.673    -19.344    563.520    577.372    613.818    563.520    563.520
 30.470    687.000    623.726     63.274    563.215    578.055    608.881    563.215    563.215
 30.570    700.000    623.324     76.676    562.913    580.375    605.852    562.913    562.913
 30.670    670.012    628.050     41.962    562.612    585.437    605.209    562.612    562.612
 30.770    608.471    639.610    -31.139    562.314    594.388    607.511    562.314    562.314
 30.870    710.566    658.277     52.289    562.017    607.465    612.791    562.017    562.017
 30.970    723.000    680.586     42.414    561.723    622.577    619.680    561.723    561.723
 31.070    682.000    697.630    -15.630    561.430    634.253    624.748    561.430    561.430
 31.170    667.417    698.577    -31.160    561.139    635.819    623.841    561.139    561.139
 31.270    689.000    681.085      7.915    560.851    625.851    616.039    560.851    560.851
 31.370    700.000    654.479     45.521    560.564    610.139    604.873    560.564    560.564
 31.470    655.000    629.209     25.791    560.280    595.168    594.300    560.280    560.280
 31.570    640.000    610.221     29.779    559.997    584.015    586.191    559.997    559.997
 31.670    636.000    597.944     38.056    559.717    576.955    580.697    559.717    559.717
 31.770    623.000    590.685     32.315    559.438    572.954    577.164    559.438    559.438
 31.870    585.000    586.458     -1.458    559.161    570.789    574.827    559.161    559.161
 31.970    627.000    583.840     43.160    558.887    569.588    573.135    558.887    558.887
 32.070    629.447    582.057     47.390    558.614    568.880    571.788    558.614    558.614
 32.170    565.000    580.759    -15.759    558.344    568.455    570.645    558.344    558.344
 32.270    600.000    579.799     20.201    558.075    568.229    569.644    558.075    558.075
 32.370    585.165    579.116      6.050    557.808    568.170    568.752    557.808    557.808
 32.470    624.774    578.682     46.092    557.544    568.272    567.952    557.544    557.544
 32.570    635.000    578.493     56.507    557.281    568.539    567.233    557.281    557.281
 32.670    628.000    578.559     49.441    557.021    568.989    566.589    557.021    557.021
 32.770    537.861    578.904    -41.043    556.762    569.649    566.015    556.762    556.762
 32.870    612.000    579.572     32.428    556.505    570.564    565.511    556.505    556.505
 32.970    619.387    580.629     38.758    556.251    571.796    565.081    556.251    556.251
 33.070    619.531    582.174     37.356    555.998    573.439    564.731    555.998    555.998
 33.170    555.247    584.365    -29.118    555.747    575.633    564.477    555.747    555.747
 33.270    639.000    587.475     51.525    555.499    578.625    564.346    555.499    555.499
 33.370    650.000    592.059     57.941    555.252    582.912    564.396    555.252    555.252
 33.470    606.000    599.346      6.654    555.008    589.588    564.759    555.008    555.008
 33.570    578.000    611.988    -33.988    554.765    601.019    565.725    554.765    554.765
 33.670    607.349    635.014    -27.665    554.524    621.684    567.840    554.524    554.524
 33.770    678.658    676.103      2.555    554.286    658.422    571.944    554.286    554.286
 33.870    807.000    743.605     63.395    554.049    718.674    578.946    554.049    554.049
 33.970    866.603    841.161     25.442    553.814    805.684    589.245    553.814    553.814
 34.070    989.000    959.415     29.585    553.582    911.125    601.817    553.582    553.582
 34.170   1102.000   1066.814     35.186    553.351   1006.899    613.216    553.351    553.351
 34.270   1105.000   1111.548     -6.548    553.122   1046.855    617.780    553.122    553.122
 34.370   1125.698   1063.598     62.100    552.895   1004.247    612.227    552.895    552.895
 34.470    975.000    954.293     20.707    552.671    906.975    599.980    552.671    552.671
 34.570    883.021    835.447     47.574    552.448    801.193    586.698    552.448    552.448
 34.670    673.000    737.929    -64.929    552.227    714.398    575.756    552.227    552.227
 34.770    633.000    670.539    -37.539    552.008    654.432    568.114    552.008    552.008
 34.870    614.000    629.359    -15.359    551.792    617.806    563.344    551.792    551.792
 34.970    631.000    605.978     25.022    551.577    597.026    560.527    551.577    551.577
 35.070    631.000    592.767     38.233    551.364    585.300    558.829    551.364    551.364
 35.170    578.292    584.776     -6.485    551.153    578.218    557.710    551.153    551.153
 35.270    603.177    579.409     23.768    550.944    573.466    556.885    550.944    550.944
 35.370    595.908    575.466     20.442    550.737    569.976    556.225    550.737    550.737
 35.470    616.094    572.402     43.691    550.532    567.264    555.669    550.532    550.532
 35.570    621.833    569.947     51.886    550.329    565.086    555.188    550.329    550.329
 35.670    565.307    567.939     -2.632    550.128    563.301    554.765    550.128    550.128
 35.770    543.000    566.275    -23.275    549.928    561.813    554.389    549.928    549.928
 35.870    537.000    564.879    -27.879    549.731    560.557    554.053    549.731    549.731
 35.970    543.000    563.699    -20.699    549.536    559.483    553.752    549.536    549.536
 36.070    573.000    562.694     10.306    549.343    558.555    553.481    549.343    549.343
 36.170    564.000    561.837      2.163    549.151    557.747    553.241    549.151    549.151
 36.270    539.000    561.106    -22.106    548.962    557.038    553.029    548.962    548.962
 36.370    551.000    560.486     -9.486    548.774    556.412    552.847    548.774    548.774
 36.470    572.000    559.967     12.033    548.589    555.858    552.697    548.589    548.589
 36.570    531.211    559.544    -28.333    548.405    555.368    552.581    548.405    548.405
 36.670    557.413    559.216     -1.802    548.223    554.935    552.504    548.223    548.223
 36.770    558.000    558.985     -0.985    548.043    554.556    552.473    548.043    548.043
 36.870    526.782    558.863    -32.081    547.865    554.230    552.497    547.865    547.865
 36.970    546.000    558.866    -12.866    547.690    553.964    552.591    547.690    547.690
 37.070    527.000    559.030    -32.030    547.515    553.773    552.773    547.515    547.515
 37.170    546.000    559.429    -13.429    547.343    553.696    553.075    547.343    547.343
 37.270    546.871    560.204    -13.333    547.173    553.819    553.558    547.173    547.173
 37.370    549.000    561.633    -12.633    547.005    554.293    554.344    547.005    547.005
 37.470    551.618    564.192    -12.575    546.838    555.339    555.691    546.838    546.838
 37.570    573.000    568.614      4.386    546.674    557.179    558.109    546.674    546.674
 37.670    591.000    575.837     15.163    546.511    559.890    562.458    546.511    546.511
 37.770    618.000    586.749     31.251    546.350    563.198    569.901    546.350    546.350
 37.870    608.000    601.594      6.406    546.191    566.250    581.534    546.191    546.191
 37.970    603.885    619.260    -15.375    546.034    567.686    597.608    546.034    546.034
 38.070    621.000    637.261    -16.261    545.879    566.677    616.462    545.879    545.879
 38.170    664.000    651.549     12.451    545.726    563.890    633.384    545.726    545.726
 38.270    682.787    655.964     26.823    545.574    560.518    641.022    545.574    545.574
 38.370    624.000    646.758    -22.758    545.425    557.332    634.854    545.425    545.425
 38.470    596.000    627.934    -31.934    545.277    554.719    618.497    545.277    545.277
 38.570    578.932    606.912    -27.979    545.131    552.799    599.249    545.131    545.131
 38.670    533.000    588.754    -55.754    544.987    551.482    582.263    544.987    544.987
 38.770    555.000    575.347    -20.347    544.845    550.603    569.592    544.845    544.845
 38.870    504.000    566.509    -62.509    544.704    550.009    561.206    544.704    544.704
 38.970    551.000    561.110    -10.110    544.566    549.588    556.088    544.566    544.566
 39.070    558.000    557.901      0.099    544.429    549.272    553.059    544.429    544.429
 39.170    532.000    555.930    -23.930    544.294    549.017    551.207    544.294    544.294
 39.270    531.000    554.617    -23.617    544.161    548.803    549.976    544.161    544.161
 39.370    574.941    553.660     21.281    544.030    548.616    549.075    544.030    544.030
 39.470    586.000    552.915     33.085    543.900    548.450    548.366    543.900    543.900
 39.570    591.000    552.310     38.690    543.773    548.301    547.782    543.773    543.773
 39.670    539.000    551.808    -12.808    543.647    548.168    547.287    543.647    543.647
 39.770    521.000    551.384    -30.384    543.523    548.048    546.859    543.523    543.523
 39.870    527.632    551.024    -23.392    543.400    547.941    546.484    543.400    543.400
 39.970    512.000    550.715    -38.715    543.280    547.845    546.150    543.280    543.280
 40.070    509.683    550.450    -40.768    543.161    547.762    545.850    543.161    543.161
 40.170    570.000    550.223     19.777    543.044    547.690    545.577    543.044    543.044
 40.270    482.000    550.028    -68.028    542.929    547.630    545.327    542.929    542.929
 40.370    540.000    549.864     -9.864    542.815    547.583    545.096    542.815    542.815
 40.470    541.000    549.727     -8.727    542.703    547.550    544.882    542.703    542.703
 40.570    559.624    549.618     10.007    542.593    547.530    544.681    542.593    542.593
 40.670    503.000    549.535    -46.535    542.485    547.527    544.493    542.485    542.485
 40.770    528.000    549.478    -21.478    542.378    547.541    544.316    542.378    542.378
 40.870    577.106    549.450     27.655    542.274    547.576    544.149    542.274    542.274
 40.970    582.943    549.452     33.491    542.171    547.633    543.991    542.171    542.171
 41.070    559.000    549.487      9.513    542.069    547.717    543.840    542.069    542.069
 41.170    586.276    549.560     36.715    541.969    547.833    543.698    541.969    541.969
 41.270    513.000    549.677    -36.677    541.871    547.986    543.563    541.871    541.871
 41.370    508.000    549.844    -41.844    541.775    548.186    543.435    541.775    541.775
 41.470    585.000    550.074     34.926    541.680    548.442    543.314    541.680    541.680
 41.570    566.844    550.381     16.462    541.588    548.770    543.200    541.588    541.588
 41.670    564.000    550.787     13.213    541.496    549.191    543.094    541.496    541.496
 41.770    527.629    551.324    -23.696    541.407    549.737    542.996    541.407    541.407
 41.870    548.047    552.054     -4.007    541.319    550.466    542.909    541.319    541.319
 41.970    515.000    553.095    -38.095    541.232    551.494    542.836    541.232    541.232
 42.070    527.000    554.686    -27.686    541.148    553.052    542.786    541.148    541.148
 42.170    530.835    557.291    -26.456    541.065    555.587    542.774    541.065    541.065
 42.270    553.000    561.702     -8.702    540.983    559.864    542.828    540.983    540.983
 42.370    544.000    569.061    -25.061    540.904    566.987    542.986    540.904    540.904
 42.470    593.649    580.642     13.007    540.825    578.188    543.294    540.825    540.825
 42.570    569.000    597.298    -28.298    540.749    594.289    543.780    540.749    540.749
 42.670    658.360    618.594     39.766    540.674    614.870    544.429    540.674    540.674
 42.770    590.686    641.780    -51.094    540.601    637.277    545.147    540.601    540.601
 42.870    618.000    660.936    -42.936    540.529    655.793    545.728    540.529    540.529
 42.970    640.757    668.200    -27.443    540.459    662.821    545.900    540.459    540.459
 43.070    669.776    659.664     10.112    540.390    654.587    545.527    540.390    540.390
 43.170    642.000    639.782      2.218    540.323    635.392    544.764    540.323    540.323
 43.270    550.000    616.487    -66.487    540.258    612.898    543.885    540.258    540.258
 43.370    563.000    595.455    -32.455    540.194    592.589    543.087    540.194    540.194
 43.470    584.000    579.195      4.805    540.131    576.888    542.457    540.131    540.131
 43.570    538.000    567.984    -29.984    540.071    566.063    542.003    540.071    540.071
 43.670    527.009    560.900    -33.891    540.011    559.223    541.695    540.011    540.011
 43.770    579.000    556.655     22.345    539.954    555.127    541.487    539.954    539.954
 43.870    530.808    554.133    -23.325    539.897    552.692    541.342    539.897    539.897
 43.970    576.000    552.570     23.430    539.843    551.185    541.231    539.843    539.843
 44.070    528.000    551.530    -23.530    539.789    550.180    541.141    539.789    539.789
 44.170    602.000    550.785     51.215    539.738    549.461    541.064    539.738    539.738
 44.270    536.000    550.227    -14.227    539.687    548.921    540.995    539.687    539.687
 44.370    585.036    549.798     35.238    539.638    548.505    540.933    539.638    539.638
 44.470    557.187    549.466      7.720    539.591    548.182    540.876    539.591    539.591
 44.570    525.000    549.211    -24.211    539.545    547.933    540.825    539.545    539.545
 44.670    575.152    549.019     26.133    539.501    547.743    540.778    539.501    539.501
 44.770    569.000    548.879     20.121    539.458    547.602    540.735    539.458    539.458
 44.870    546.000    548.783     -2.783    539.416    547.503    540.696    539.416    539.416
 44.970    553.000    548.725      4.275    539.376    547.441    540.661    539.376    539.376
 45.070    575.000    548.702     26.298    539.338    547.410    540.630    539.338    539.338
 45.170    509.000    548.709    -39.709    539.300    547.408    540.602    539.300    539.300
 45.270    595.000    548.746     46.254    539.264    547.433    540.577    539.264    539.264
 45.370    601.000    548.809     52.191    539.230    547.483    540.556    539.230    539.230
 45.470    553.000    548.899      4.101    539.197    547.557    540.539    539.197    539.197
 45.570    536.885    549.015    -12.130    539.165    547.654    540.526    539.165    539.165
 45.670    504.000    549.157    -45.157    539.135    547.775    540.516    539.135    539.135
 45.770    500.119    549.325    -49.206    539.106    547.920    540.510    539.106    539.106
 45.870    590.062    549.521     40.541    539.078    548.090    540.509    539.078    539.078
 45.970    567.000    549.747     17.253    539.052    548.286    540.512    539.052    539.052
 46.070    580.000    550.004     29.996    539.027    548.511    540.519    539.027    539.027
 46.170    587.585    550.295     37.289    539.003    548.766    540.532    539.003    539.003
 46.270    576.000    550.625     25.375    538.981    549.055    540.550    538.981    538.981
 46.370    595.000    550.996     44.004    538.960    549.382    540.574    538.960    538.960
 46.470    531.817    551.416    -19.600    538.940    549.751    540.604    538.940    538.940
 46.570    512.000    551.892    -39.892    538.922    550.171    540.642    538.922    538.922
 46.670    571.000    552.433     18.567    538.905    550.649    540.687    538.905    538.905
 46.770    565.000    553.052     11.948    538.889    551.197    540.743    538.889    538.889
 46.870    506.000    553.768    -47.768    538.874    551.832    540.809    538.874    538.874
 46.970    571.606    554.613     16.993    538.861    552.583    540.889    538.861    538.861
 47.070    555.000    555.641     -0.641    538.849    553.500    540.987    538.849    538.849
 47.170    563.106    556.959      6.148    538.838    554.680    541.113    538.838    538.838
 47.270    508.000    558.762    -50.762    538.829    556.305    541.282    538.829    538.829
 47.370    589.701    561.394     28.307    538.820    558.686    541.521    538.820    538.820
 47.470    611.000    565.373     45.627    538.813    562.305    541.873    538.813    538.813
 47.570    561.000    571.374    -10.374    538.807    567.778    542.391    538.807    538.807
 47.670    574.000    580.062     -6.062    538.802    575.718    543.127    538.802    538.802
 47.770    589.720    591.796     -2.076    538.799    586.455    544.113    538.799    538.799
 47.870    586.000    606.214    -20.214    538.796    599.655    545.319    538.796    538.796
 47.970    586.173    621.773    -35.600    538.795    613.896    546.626    538.795    538.795
 48.070    697.000    635.386     61.614    538.795    626.336    547.790    538.795    538.795
 48.170    635.000    642.951     -7.951    538.796    633.198    548.491    538.796    538.796
 48.270    619.261    641.840    -22.579    538.798    632.061    548.523    538.798    538.798
 48.370    617.704    633.278    -15.574    538.802    624.048    547.986    538.802    538.802
 48.470    615.000    621.132     -6.132    538.806    612.715    547.187    538.806    538.806
 48.570    560.315    609.105    -48.790    538.812    601.466    546.424    538.812    538.812
 48.670    580.707    599.467    -18.760    538.818    592.385    545.881    538.818    538.818
 48.770    578.000    593.139    -15.139    538.826    586.312    545.639    538.826    538.826
 48.870    618.000    590.139     27.861    538.835    583.256    545.708    538.835    538.835
 48.970    607.280    590.033     17.247    538.845    582.805    546.065    538.845    538.845
 49.070    568.000    592.313    -24.313    538.856    584.475    546.687    538.856    538.856
 49.170    548.000    596.660    -48.660    538.868    587.947    547.575    538.868    538.868
 49.270    619.075    603.134     15.941    538.881    593.231    548.778    538.881    538.881
 49.370    607.000    612.456     -5.456    538.895    600.898    550.446    538.895    538.895
 49.470    573.000    626.637    -53.637    538.910    612.595    552.942    538.910    538.910
 49.570    646.000    650.270     -4.270    538.926    632.107    557.077    538.926    538.926
 49.670    682.000    692.558    -10.558    538.943    667.021    564.458    538.943    538.943
 49.770    717.000    769.352    -52.352    538.961    730.420    577.856    538.961    538.961
 49.870    860.000    903.171    -43.171    538.980    840.883    601.204    538.980    538.980
 49.970   1058.562   1118.170    -59.609    539.000   1018.348    638.721    539.000    539.000
 50.070   1382.000   1428.324    -46.324    539.022   1274.351    692.847    539.022    539.022
 50.170   1800.000   1821.105    -21.105    539.044   1598.568    761.395    539.044    539.044
 50.270   2166.000   2243.024    -77.024    539.066   1946.869    835.023    539.066    539.066
 50.370   2556.993   2595.279    -38.286    539.090   2237.731    896.471    539.090    539.090
 50.470   2661.382   2757.682    -96.300    539.115   2371.982    924.736    539.115    539.115
 50.570   2735.552   2661.865     73.687    539.141   2293.195    907.846    539.141    539.141
 50.670   2319.000   2351.744    -32.744    539.168   2037.619    853.421    539.168    539.168
 50.770   1984.000   1941.818     42.182    539.195   1699.793    781.392    539.195    539.195
 50.870   1499.000   1539.994    -40.994    539.223   1368.857    710.529    539.223    539.223
 50.970   1176.205   1212.254    -36.049    539.253   1099.356    652.291    539.253    539.253
 51.070    966.000    981.068    -15.068    539.283    909.877    610.580    539.283    539.283
 51.170    802.000    837.695    -35.695    539.314    793.151    583.933    539.314    539.314
 51.270    784.555    758.363     26.192    539.346    729.400    568.364    539.346    539.346
 51.370    726.000    717.678      8.322    539.378    697.203    559.898    539.378    539.378
 51.470    715.503    695.482     20.022    539.412    679.392    555.540    539.412    539.412
 51.570    688.000    679.326      8.674    539.446    665.352    553.453    539.446    539.446
 51.670    703.000    664.226     38.774    539.481    650.998    552.736    539.481    539.481
 51.770    662.026    649.864     12.162    539.517    636.428    552.975    539.517    539.517
 51.870    656.000    637.384     18.616    539.554    623.041    553.911    539.554    539.554
 51.970    645.000    627.600     17.400    539.592    611.958    555.243    539.592    539.592
 52.070    652.543    620.546     31.998    539.630    603.657    556.523    539.630    539.630
 52.170    628.000    615.601     12.399    539.669    598.081    557.190    539.669    539.669
 52.270    652.000    611.950     40.050    539.709    594.859    556.799    539.709    539.709
 52.370    675.000    609.116     65.884    539.749    593.545    555.319    539.749    539.749
 52.470    608.461    607.151      1.310    539.790    593.792    553.149    539.790    539.790
 52.570    592.000    606.446    -14.446    539.832    595.467    550.812    539.832    539.832
 52.670    643.000    607.576     35.424    539.875    598.742    548.708    539.875    539.875
 52.770    622.000    611.372     10.628    539.918    604.235    547.056    539.918    539.918
 52.870    586.000    619.185    -33.185    539.962    613.222    545.924    539.962    539.962
 52.970    624.000    633.212     -9.212    540.007    627.921    545.297    540.007    540.007
 53.070    707.961    656.755     51.205    540.052    651.675    545.130    540.052    540.052
 53.170    698.184    694.103      4.082    540.098    688.801    545.396    540.098    540.098
 53.270    806.804    749.741     57.063    540.145    743.786    546.094    540.145    540.145
 53.370    828.000    826.754      1.246    540.192    819.713    547.225    540.192    540.192
 53.470    938.000    924.606     13.394    540.240    916.086    548.751    540.240    540.240
 53.570    987.039   1036.699    -49.660    540.288   1026.434    550.544    540.288    540.288
 53.670   1148.000   1148.015     -0.015    540.337   1136.001    552.344    540.337    540.337
 53.770   1226.000   1234.237     -8.237    540.387   1220.885    553.737    540.387    540.387
 53.870   1257.563   1267.983    -10.421    540.437   1254.169    554.259    540.437    540.437
 53.970   1224.000   1236.120    -12.120    540.488   1222.939    553.686    540.488    540.488
 54.070   1141.000   1151.424    -10.424    540.539   1139.754    552.233    540.539    540.539
 54.170    987.008   1041.177    -54.169    540.591   1031.437    550.357    540.591    540.591
 54.270    872.000    929.803    -57.803    540.644    922.006    548.465    540.644    540.644
 54.370    814.000    832.439    -18.439    540.697    826.376    546.779    540.697    540.697
 54.470    771.000    755.856     15.144    540.750    751.164    545.457    540.750    540.750
 54.570    692.000    700.674     -8.674    540.804    696.964    544.525    540.804    540.804
 54.670    666.000    663.781      2.219    540.859    660.740    543.907    540.859    540.859
 54.770    642.000    640.631      1.369    540.914    638.027    543.522    540.914    540.914
 54.870    601.000    626.829    -25.829    540.969    624.504    543.297    540.969    540.969
 54.970    642.000    618.959     23.041    541.025    616.814    543.172    541.025    541.025
 55.070    601.304    614.743    -13.439    541.081    612.716    543.110    541.081    541.081
 55.170    643.000    612.838     30.162    541.138    610.891    543.085    541.138    541.138
 55.270    636.000    612.534     23.466    541.195    610.643    543.087    541.195    541.195
 55.370    652.297    613.503     38.794    541.253    611.648    543.107    541.253    541.253
 55.470    608.000    615.628     -7.628    541.311    613.795    543.144    541.311    541.311
 55.570    593.000    618.931    -25.931    541.369    617.105    543.194    541.369    541.369
 55.670    606.756    623.547    -16.792    541.428    621.716    543.259    541.428    541.428
 55.770    604.000    629.778    -25.778    541.487    627.925    543.339    541.487    541.487
 55.870    621.167    638.210    -17.042    541.547    636.318    543.437    541.547    541.547
 55.970    621.000    649.982    -28.982    541.607    648.027    543.559    541.607    541.607
 56.070    656.000    667.236    -11.236    541.667    665.181    543.717    541.667    541.667
 56.170    702.008    693.775      8.233    541.728    691.562    543.933    541.728    541.728
 56.270    788.238    735.812     52.426    541.789    733.346    544.241    541.789    541.789
 56.370    812.354    802.442      9.911    541.850    799.577    544.693    541.850    541.850
 56.470    877.120    905.230    -28.109    541.912    901.753    545.354    541.912    541.912
 56.570   1036.273   1056.229    -19.956    541.973   1051.861    546.292    541.973    541.973
 56.670   1175.000   1264.115    -89.115    542.036   1258.530    547.556    542.036    542.036
 56.770   1470.156   1528.849    -58.693    542.098   1521.725    549.147    542.098    542.098
 56.870   1859.000   1835.932     23.068    542.161   1827.033    550.984    542.161    542.161
 56.970   2143.000   2151.422     -8.422    542.224   2140.710    552.878    542.224    542.224
 57.070   2509.000   2420.202     88.798    542.287   2407.952    554.521    542.287    542.287
 57.170   2605.821   2575.701     30.120    542.350   2562.561    555.540    542.350    542.350
 57.270   2531.145   2569.755    -38.610    542.414   2556.620    555.668    542.414    542.414
 57.370   2426.641   2404.890     21.752    542.477   2392.616    554.921    542.477    542.477
 57.470   2188.000   2132.291     55.709    542.541   2121.429    553.593    542.541    542.541
 57.570   1780.000   1818.322    -38.322    542.606   1809.045    552.063    542.606    542.606
 57.670   1439.847   1516.516    -76.669    542.670   1508.694    550.647    542.670    542.670
 57.770   1190.958   1259.248    -68.289    542.735   1252.549    549.554    542.735    542.735
 57.870   1030.557   1059.934    -29.376    542.799   1053.902    548.918    542.799    542.799
 57.970    902.000    918.227    -16.227    542.864    912.303    548.846    542.864    542.864
 58.070    790.000    825.940    -35.940    542.929    819.416    549.487    542.929    542.929
 58.170    717.961    772.480    -54.518    542.994    764.396    551.094    542.994    542.994
 58.270    712.000    748.686    -36.686    543.059    737.695    554.053    543.059    543.059
 58.370    802.000    748.590     53.410    543.125    732.869    558.835    543.125    543.125
 58.470    795.563    769.328     26.235    543.190    746.635    565.862    543.190    543.190
 58.570    739.000    809.849    -70.849    543.255    777.808    575.263    543.255    543.255
 58.670    857.000    869.096    -12.096    543.321    825.752    586.622    543.321    543.321
 58.770    981.000    944.202     36.798    543.387    888.776    598.761    543.387    543.387
 58.870   1001.615   1029.079    -27.464    543.452    962.779    609.700    543.452    543.452
 58.970   1091.000   1114.245    -23.245    543.518   1040.768    616.949    543.518    543.518
 59.070   1219.000   1189.114     29.886    543.584   1114.247    618.419    543.584    543.584
 59.170   1172.836   1245.979    -73.143    543.649   1175.955    613.661    543.649    543.649
 59.270   1317.000   1281.135     35.865    543.715   1220.644    604.212    543.715    543.715
 59.370   1297.000   1292.310      4.690    543.781   1243.537    592.576    543.781    543.781
 59.470   1316.000   1278.807     37.193    543.847   1241.664    581.024    543.847    543.847
 59.570   1264.084   1245.865     18.219    543.912   1218.744    571.065    543.912    543.912
 59.670   1252.000   1205.785     46.215    543.978   1186.387    563.391    543.978    543.978
 59.770   1177.000   1172.700      4.300    544.044   1158.702    558.027    544.044    544.044
 59.870   1221.000   1157.197     63.803    544.109   1146.674    554.579    544.109    544.109
 59.970   1216.962   1165.264     51.698    544.175   1156.843    552.498    544.175    544.175
 60.070   1210.000   1199.915     10.085    544.240   1192.726    551.283    544.240    544.240
 60.170   1313.000   1261.432     51.568    544.306   1254.964    550.579    544.306    544.306
 60.270   1306.000   1344.559    -38.559    544.371   1338.517    550.172    544.371    544.371
 60.370   1465.000   1435.453     29.547    544.436   1429.674    549.942    544.436    544.436
 60.470   1602.000   1511.545     90.455    544.501   1505.943    549.818    544.501    544.501
 60.570   1689.000   1546.563    142.437    544.566   1541.108    549.751    544.566    544.566
 60.670   1515.779   1522.111     -6.332    544.631   1516.797    549.713    544.631    544.631
 60.770   1372.160   1438.765    -66.605    544.695   1433.581    549.699    544.695    544.695
 60.870   1292.030   1314.970    -22.940    544.760   1309.876    549.723    544.760    544.760
 60.970   1198.000   1175.495     22.505    544.824   1170.419    549.810    544.824    544.824
 61.070   1133.000   1041.480     91.520    544.888   1036.315    549.993    544.888    544.888
 61.170    985.000    926.834     58.166    544.952    921.432    550.314    544.952    544.952
 61.270    868.000    838.456     29.544    545.016    832.603    550.839    545.016    545.016
 61.370    809.000    777.935     31.065    545.079    771.310    551.677    545.079    545.079
 61.470    713.289    743.885    -30.596    545.142    735.992    553.006    545.142    545.142
 61.570    826.000    734.272     91.728    545.206    724.345    555.094    545.206    545.206
 61.670    781.000    748.076     32.924    545.268    734.990    558.303    545.268    545.268
 61.770    768.000    785.858    -17.858    545.331    768.061    563.058    545.331    545.331
 61.870    858.266    849.106      9.160    545.393    824.645    569.760    545.393    545.393
 61.970    933.000    938.606     -5.606    545.455    905.288    578.649    545.455    545.455
 62.070   1007.000   1052.304    -45.304    545.517   1008.031    589.636    545.517    545.517
 62.170   1147.535   1183.228    -35.693    545.579   1126.494    602.130    545.579    545.579
 62.270   1344.000   1317.930     26.070    545.640   1248.446    614.923    545.640    545.640
 62.370   1484.000   1436.109     47.891    545.701   1355.448    626.156    545.701    545.701
 62.470   1542.865   1513.256     29.608    545.761   1425.247    633.581    545.761    545.761
 62.570   1421.000   1528.948   -107.948    545.821   1439.294    635.318    545.821    545.821
 62.670   1443.619   1478.112    -34.494    545.881   1392.970    630.905    545.881    545.881
 62.770   1400.907   1374.588     26.319    545.941   1298.824    621.623    545.941    545.941
 62.870   1216.000   1242.392    -26.392    546.000   1178.648    609.690    546.000    546.000
 62.970   1109.000   1104.571      4.429    546.059   1053.359    597.239    546.059    546.059
 63.070    943.629    977.814    -34.186    546.117    938.100    585.813    546.117    546.117
 63.170    862.362    871.688     -9.326    546.175    841.553    576.299    546.175    546.175
 63.270    790.331    789.631      0.700    546.233    766.836    569.020    546.233    546.233
 63.370    681.000    730.588    -49.588    546.290    712.988    563.882    546.290    546.290
 63.470    700.000    690.905      9.095    546.347    676.687    560.556    546.347    546.347
 63.570    655.346    666.081    -10.735    546.403    653.839    558.635    546.403    546.403
 63.670    632.000    652.049    -20.049    546.459    640.738    557.758    546.459    546.459
 63.770    654.000    645.870      8.130    546.514    634.690    557.681    546.514    546.514
 63.870    679.685    646.046     33.639    546.570    634.279    558.320    546.570    546.570
 63.970    657.385    652.357      5.027    546.624    639.206    559.754    546.624    546.624
 64.070    678.000    665.742     12.258    546.678    650.145    562.248    546.678    546.678
 64.170    705.000    687.985     17.015    546.732    668.427    566.252    546.732    546.732
 64.270    734.000    721.279     12.721    546.785    695.629    572.384    546.785    546.785
 64.370    787.000    767.618     19.382    546.837    733.030    581.357    546.837    546.837
 64.470    826.000    828.015     -2.015    546.890    780.978    593.837    546.890    546.890
 64.570    993.000    901.605     91.395    546.941    838.205    610.229    546.941    546.941
 64.670   1061.000    984.752     76.248    546.992    901.195    630.413    546.992    546.992
 64.770   1114.000   1070.330     43.670    547.043    963.725    653.491    547.043    547.043
 64.870   1226.000   1147.690     78.310    547.093   1017.030    677.584    547.093    547.093
 64.970   1207.000   1204.404      2.596    547.142   1051.612    699.766    547.142    547.142
 65.070   1178.092   1230.157    -52.066    547.191   1060.881    716.313    547.191    547.191
 65.170   1276.000   1220.699     55.301    547.239   1044.190    723.619    547.239    547.239
 65.270   1281.000   1179.241    101.759    547.287   1006.632    719.796    547.287    547.287
 65.370   1081.000   1114.993    -33.993    547.334    956.450    705.811    547.334    547.334
 65.470   1050.478   1039.685     10.792    547.380    902.128    684.901    547.380    547.380
 65.570    928.085    963.801    -35.715    547.426    850.273    660.940    547.426    547.426
 65.670    891.000    894.406     -3.406    547.471    804.689    637.192    547.471    547.471
 65.770    882.393    834.852     47.540    547.516    766.508    615.875    547.516    547.516
 65.870    749.000    785.674    -36.674    547.559    735.081    598.174    547.559    547.559
 65.970    671.000    745.981    -74.981    547.603    709.186    584.420    547.603    547.603
 66.070    702.024    714.553    -12.528    547.645    687.884    574.334    547.645    547.645
 66.170    722.172    690.218     31.955    547.687    670.627    567.293    547.687    547.687
 66.270    717.000    671.856     45.144    547.728    657.034    562.561    547.728    547.728
 66.370    629.000    658.432    -29.432    547.769    646.754    559.453    547.769    547.769
 66.470    659.000    649.072      9.928    547.809    639.465    557.419    547.809    547.809
 66.570    637.000    643.103     -6.103    547.848    634.888    556.064    547.848    547.848
 66.670    643.000    640.038      2.962    547.886    632.794    555.130    547.886    547.886
 66.770    682.245    639.569     42.676    547.924    633.033    554.459    547.924    547.924
 66.870    597.000    641.596    -44.596    547.961    635.593    553.962    547.961    547.961
 66.970    656.000    646.319      9.681    547.997    640.724    553.592    547.997    547.997
 67.070    699.910    654.397     45.513    548.033    649.101    553.328    548.033    548.033
 67.170    671.061    667.162      3.900    548.068    662.058    553.168    548.068    548.068
 67.270    683.549    686.887     -3.338    548.102    681.856    553.128    548.102    548.102
 67.370    735.401    717.045     18.356    548.135    711.935    553.238    548.135    548.135
 67.470    781.000    762.440     18.560    548.167    757.051    553.546    548.167    548.167
 67.570    801.000    829.053    -28.053    548.199    823.126    554.112    548.199    548.199
 67.670    856.000    923.410    -67.410    548.230    916.616    555.004    548.230    548.230
 67.770   1102.315   1051.359     50.956    548.260   1043.312    556.283    548.260    548.260
 67.870   1187.000   1216.311    -29.311    548.289   1206.589    557.986    548.289    548.289
 67.970   1410.000   1417.165     -7.165    548.317   1405.366    560.096    548.317    548.317
 68.070   1658.000   1646.304     11.696    548.345   1632.112    562.529    548.345    548.345
 68.170   1880.000   1887.944     -7.944    548.371   1871.222    565.110    548.371    548.371
 68.270   2091.000   2117.258    -26.258    548.397   2098.144    567.565    548.397    548.397
 68.370   2278.000   2301.570    -23.570    548.422   2280.562    569.533    548.422    548.422
 68.470   2381.000   2406.572    -25.572    548.446   2384.542    570.637    548.446    548.446
 68.570   2421.000   2408.846     12.154    548.470   2386.911    570.619    548.470    548.470
 68.670   2379.000   2307.838     71.162    548.492   2287.110    569.471    548.492    548.492
 68.770   2154.331   2126.196     28.135    548.514   2107.532    567.441    548.514    548.514
 68.870   1921.545   1898.083     23.461    548.534   1881.966    564.905    548.534    548.534
 68.970   1674.000   1656.433     17.567    548.554   1642.991    562.224    548.554    548.554
 69.070   1364.000   1426.448    -62.448    548.573   1415.539    559.675    548.573    548.573
 69.170   1194.047   1224.268    -30.221    548.590   1215.580    557.434    548.590    548.590
 69.270   1017.000   1057.814    -40.814    548.607   1050.952    555.589    548.607    548.607
 69.370    889.000    928.407    -39.407    548.623    922.966    554.153    548.623    548.623
 69.470    811.000    832.772    -21.772    548.638    828.383    553.090    548.638    548.638
 69.570    751.000    765.107    -14.107    548.652    761.465    552.338    548.652    548.652
 69.670    775.579    718.861     56.718    548.666    715.734    551.822    548.666    548.666
 69.770    680.134    687.978     -7.844    548.678    685.202    551.474    548.678    548.678
 69.870    671.678    667.553      4.125    548.689    665.010    551.246    548.689    548.689
 69.970    675.000    653.978     21.022    548.699    651.592    551.095    548.699    548.699
 70.070    631.000    644.815    -13.815    548.708    642.535    550.995    548.708    548.708
 70.170    610.000    638.524    -28.524    548.717    636.317    550.928    548.717    548.717
 70.270    668.000    634.192     33.808    548.724    632.034    550.884    548.724    548.724
 70.370    647.000    631.304     15.696    548.730    629.176    550.859    548.730    548.730
 70.470    630.000    629.596      0.404    548.735    627.482    550.848    548.735    548.735
 70.570    640.000    628.964     11.036    548.740    626.849    550.852    548.740    548.740
 70.670    621.609    629.432     -7.823    548.743    627.299    550.872    548.743    548.743
 70.770    588.496    631.158    -42.662    548.745    628.988    550.909    548.745    548.745
 70.870    646.185    634.485     11.700    548.746    632.253    550.971    548.746    548.746
 70.970    644.000    640.029      3.971    548.746    637.700    551.066    548.746    548.746
 71.070    701.000    648.805     52.195    548.745    646.327    551.210    548.745    548.745
 71.170    623.000    662.371    -39.371    548.743    659.668    551.427    548.743    548.743
 71.270    727.000    682.962     44.038    548.740    679.923    551.753    548.740    548.740
 71.370    731.000    713.547     17.453    548.735    710.012    552.233    548.735    548.735
 71.470    740.078    757.723    -17.646    548.730    753.479    552.923    548.730    548.730
 71.570    822.397    819.380      3.017    548.724    814.150    553.882    548.724    548.724
 71.670    939.000    902.056     36.944    548.716    895.510    555.167    548.716    548.716
 71.770    972.000   1008.039    -36.039    548.708    999.809    556.813    548.708    548.708
 71.870   1173.000   1137.299     35.701    548.698   1127.019    558.819    548.698    548.698
 71.970   1261.000   1286.434    -25.434    548.687   1273.793    561.135    548.687    548.687
 72.070   1414.000   1447.774    -33.774    548.675   1432.580    563.643    548.675    548.675
 72.170   1597.000   1608.758    -11.758    548.662   1591.017    566.152    548.662    548.662
 72.270   1831.000   1751.903     79.097    548.648   1731.893    568.393    548.648    548.648
 72.370   1854.000   1856.460     -2.460    548.632   1834.781    570.049    548.632    548.632
 72.470   1868.892   1903.364    -34.472    548.616   1880.912    570.827    548.616    548.616
 72.570   1921.000   1882.823     38.177    548.598   1860.639    570.579    548.598    548.598
 72.670   1766.000   1799.255    -33.255    548.579   1778.303    569.371    548.579    548.579
 72.770   1687.007   1668.863     18.144    548.559   1649.851    567.454    548.559    548.559
 72.870   1504.214   1512.383     -8.170    548.538   1495.697    565.143    548.538    548.538
 72.970   1356.000   1348.879      7.121    548.516   1334.615    562.728    548.516    548.516
 73.070   1181.900   1192.933    -11.033    548.492   1180.969    560.424    548.492    548.492
 73.170   1037.000   1054.132    -17.132    548.468   1044.211    558.372    548.468    548.468
 73.270    990.000    937.506     52.494    548.442    929.302    556.637    548.442    548.442
 73.370    825.186    844.331    -19.145    548.415    837.504    555.236    548.415    548.415
 73.470    778.000    773.146      4.854    548.386    767.380    554.149    548.386    548.386
 73.570    693.392    720.844    -27.452    548.357    715.859    553.339    548.357    548.357
 73.670    703.000    683.645     19.355    548.326    679.203    552.765    548.326    548.326
 73.770    684.544    657.842     26.702    548.294    653.743    552.390    548.294    548.294
 73.870    649.000    640.254      8.746    548.261    636.327    552.185    548.261    548.261
 73.970    657.000    628.419     28.581    548.227    624.509    552.135    548.227    548.227
 74.070    631.000    620.586     10.414    548.191    616.545    552.233    548.191    548.191
 74.170    628.000    615.599     12.401    548.154    611.274    552.482    548.154    548.154
 74.270    570.486    612.733    -42.247    548.116    607.965    552.890    548.116    548.116
 74.370    638.000    611.538     26.462    548.077    606.165    553.459    548.077    548.077
 74.470    637.000    611.703     25.297    548.036    605.570    554.183    548.036    548.036
 74.570    608.000    612.961     -4.961    547.994    605.933    555.042    547.994    547.994
 74.670    630.000    615.013     14.987    547.951    606.993    555.996    547.951    547.951
 74.770    638.000    617.490     20.510    547.907    608.445    556.982    547.907    547.907
 74.870    650.000    619.929     30.071    547.861    609.911    557.915    547.861    547.861
 74.970    685.000    621.796     63.204    547.814    610.959    558.691    547.814    547.814
 75.070    628.264    622.576      5.687    547.766    611.175    559.211    547.766    547.766
 75.170    691.000    621.943     69.057    547.717    610.291    559.412    547.717    547.717
 75.270    695.000    619.904     75.096    547.666    608.304    559.308    547.666    547.666
 75.370    675.000    616.830     58.170    547.614    605.496    558.986    547.614    547.614
 75.470    640.277    613.328     26.949    547.560    602.330    558.591    547.560    547.560
 75.570    660.000    610.096     49.904    547.506    599.338    558.291    547.506    547.506
 75.670    620.160    607.838     12.322    547.450    597.044    558.263    547.450    547.450
 75.770    553.093    607.246    -54.153    547.392    595.958    558.693    547.392    547.392
 75.870    619.279    609.008     10.271    547.334    596.570    559.777    547.334    547.334
 75.970    620.000    613.802      6.198    547.274    599.359    561.714    547.274    547.274
 76.070    647.000    622.266     24.734    547.213    604.766    564.702    547.213    547.213
 76.170    647.000    634.933     12.067    547.150    613.152    568.911    547.150    547.150
 76.270    672.000    652.130     19.870    547.086    624.736    574.451    547.086    547.086
 76.370    644.617    673.853    -29.236    547.021    639.504    581.331    547.021    547.021
 76.470    720.000    699.630     20.370    546.954    657.118    589.417    546.954    546.954
 76.570    743.000    728.404     14.596    546.887    676.838    598.392    546.887    546.887
 76.670    758.000    758.437     -0.437    546.817    697.452    607.732    546.817    546.817
 76.770    787.000    787.254     -0.254    546.747    717.239    616.682    546.747    546.747
 76.870    865.826    811.728     54.098    546.675    734.032    624.286    546.675    546.675
 76.970    820.000    828.422     -8.422    546.602    745.445    629.492    546.602    546.602
 77.070    832.387    834.460     -2.074    546.527    749.484    631.421    546.527    546.527
 77.170    870.095    828.633     41.462    546.451    745.307    629.701    546.451    546.451
 77.270    855.247    811.961     43.286    546.374    733.621    624.648    546.374    546.374
 77.370    748.000    787.202    -39.202    546.295    716.335    617.107    546.295    546.295
 77.470    743.757    757.749    -13.992    546.215    695.799    608.121    546.215    546.215
 77.570    755.423    726.745     28.678    546.133    674.191    598.654    546.133    546.133
 77.670    625.000    696.673    -71.673    546.051    653.229    589.470    546.051    546.051
 77.770    682.057    669.269     12.788    545.966    634.116    581.100    545.966    545.966
 77.870    654.000    645.562      8.438    545.881    617.567    573.863    545.881    545.881
 77.970    654.390    625.976     28.414    545.794    603.871    567.888    545.794    545.794
 78.070    625.000    610.449     14.551    545.706    592.989    563.158    545.706    545.706
 78.170    547.000    598.590    -51.590    545.616    584.648    559.553    545.616    545.616
 78.270    584.134    589.823     -5.689    545.525    578.448    556.896    545.525    545.525
 78.370    533.000    583.514    -50.514    545.433    573.948    554.995    545.433    545.433
 78.470    546.000    579.067    -33.067    545.339    570.736    553.666    545.339    545.339
 78.570    579.000    575.972      3.028    545.244    568.458    552.754    545.244    545.244
 78.670    542.000    573.833    -31.833    545.147    566.838    552.139    545.147    545.147
 78.770    535.000    572.361    -37.361    545.049    565.674    551.733    545.049    545.049
 78.870    514.000    571.356    -57.356    544.950    564.829    551.475    544.950    544.950
 78.970    542.000    570.694    -28.694    544.849    564.213    551.328    544.849    544.849
 79.070    565.000    570.301     -5.301    544.747    563.774    551.271    544.747    544.747
 79.170    533.000    570.142    -37.142    544.643    563.488    551.294    544.643    544.643
 79.270    542.530    570.210    -27.680    544.538    563.347    551.399    544.538    544.538
 79.370    539.000    570.522    -31.522    544.432    563.357    551.595    544.432    544.432
 79.470    550.861    571.114    -20.253    544.324    563.535    551.900    544.324    544.324
 79.570    575.504    572.045      3.459    544.215    563.910    552.347    544.215    544.215
 79.670    556.000    573.405    -17.405    544.104    564.519    552.987    544.104    544.104
 79.770    581.984    575.322      6.662    543.992    565.408    553.901    543.992    543.992
 79.870    555.000    577.977    -22.977    543.879    566.639    555.211    543.879    543.879
 79.970    614.000    581.629     32.371    543.764    568.291    557.096    543.764    543.764
 80.070    584.000    586.631     -2.631    543.648    570.465    559.806    543.648    543.648
 80.170    601.566    593.453      8.112    543.530    573.293    563.680    543.530    543.530
 80.270    595.000    602.689     -7.689    543.411    576.945    569.142    543.411    543.411
 80.370    645.000    615.040     29.960    543.291    581.622    576.692    543.291    543.291
 80.470    667.661    631.272     36.388    543.169    587.559    586.863    543.169    543.169
 80.570    663.273    652.147     11.127    543.046    595.014    600.157    543.046    543.046
 80.670    665.142    678.310    -13.168    542.921    604.256    616.951    542.921    542.921
 80.770    736.927    710.172     26.755    542.795    615.547    637.393    542.795    542.795
 80.870    726.739    747.731    -20.991    542.668    629.088    661.282    542.668    542.668
 80.970    806.000    790.391     15.609    542.539    644.940    687.963    542.539    542.539
 81.070    818.000    836.796    -18.796    542.409    662.934    716.246    542.409    542.409
 81.170    869.984    884.738    -14.754    542.277    682.604    744.392    542.277    542.277
 81.270    904.000    931.210    -27.210    542.144    703.164    770.179    542.144    542.144
 81.370    917.883    972.694    -54.811    542.010    723.554    791.148    542.010    542.010
 81.470   1048.815   1005.751     43.064    541.874    742.588    805.048    541.874    541.874
 81.570   1074.000   1027.762     46.238    541.737    759.141    810.381    541.737    541.737
 81.670   1003.000   1037.401    -34.401    541.598    772.308    806.726    541.598    541.598
 81.770   1022.261   1034.652    -12.391    541.458    781.465    794.691    541.458    541.458
 81.870   1009.964   1020.605    -10.641    541.316    786.302    775.675    541.316    541.316
 81.970    995.442    997.192     -1.750    541.174    786.816    751.614    541.174    541.174
 82.070   1006.000    966.832     39.168    541.029    783.224    724.708    541.029    541.029
 82.170    965.630    931.976     33.653    540.884    775.839    697.095    540.884    540.884
 82.270    916.000    894.805     21.195    540.737    765.047    670.571    540.737    540.737
 82.370    916.046    857.168     58.878    540.588    751.406    646.425    540.588    540.588
 82.470    831.000    820.604     10.396    540.438    735.696    625.419    540.438    540.438
 82.570    729.634    786.244    -56.610    540.287    718.767    607.833    540.287    540.287
 82.670    776.389    754.888     21.502    540.135    701.485    593.601    540.135    540.135
 82.770    773.122    726.744     46.378    539.981    684.397    582.387    539.981    539.981
 82.870    661.627    701.727    -40.100    539.825    667.884    573.722    539.825    539.825
 82.970    641.000    679.665    -38.665    539.669    652.267    567.114    539.669    539.669
 83.070    688.757    660.438     28.320    539.510    637.879    562.110    539.510    539.510
 83.170    607.000    644.005    -37.005    539.351    625.053    558.337    539.351    539.351
 83.270    603.000    630.369    -27.369    539.190    614.081    555.504    539.190    539.190
 83.370    577.000    619.528    -42.528    539.028    605.173    553.401    539.028    539.028
 83.470    649.221    611.450     37.771    538.864    598.445    551.879    538.864    538.864
 83.570    568.000    606.057    -38.057    538.699    593.921    550.838    538.699    538.699
 83.670    630.553    603.211     27.342    538.533    591.532    550.206    538.533    538.533
 83.770    602.000    602.694     -0.694    538.365    591.120    549.926    538.365    538.365
 83.870    574.000    604.198    -30.198    538.196    592.430    549.943    538.196    538.196
 83.970    659.214    607.314     51.900    538.026    595.117    550.193    538.026    538.026
 84.070    588.000    611.528    -23.528    537.854    598.743    550.603    537.854    537.854
 84.170    610.834    616.233     -5.399    537.681    602.789    551.084    537.681    537.681
 84.270    569.000    620.740    -51.740    537.507    606.667    551.533    537.507    537.507
 84.370    608.390    624.327    -15.937    537.331    609.765    551.844    537.331    537.331
 84.470    665.487    626.323     39.165    537.154    611.511    551.915    537.154    537.154
 84.570    590.103    626.243    -36.139    536.975    611.494    551.675    536.975    536.975
 84.670    590.000    623.924    -33.924    536.795    609.572    551.101    536.795    536.795
 84.770    606.576    619.555    -12.978    536.614    605.903    550.223    536.614    536.614
 84.870    606.000    613.594     -7.594    536.432    600.871    549.117    536.432    536.432
 84.970    593.000    606.628    -13.628    536.248    594.966    547.878    536.248    536.248
 85.070    587.000    599.242    -12.242    536.063    588.673    546.603    536.063    536.063
 85.170    576.000    591.944    -15.944    535.877    582.413    545.384    535.877    535.877
 85.270    630.369    585.142     45.227    535.689    576.513    544.298    535.689    535.689
 85.370    590.000    579.132     10.868    535.500    571.204    543.412    535.500    535.500
 85.470    592.745    574.109     18.636    535.310    566.624    542.781    535.310    535.310
 85.570    566.092    570.173     -4.081    535.118    562.826    542.453    535.118    535.118
 85.670    571.000    567.353      3.647    534.926    559.802    542.466    534.926    534.926
 85.770    523.000    565.624    -42.624    534.731    557.494    542.851    534.731    534.731
 85.870    575.000    564.928     10.072    534.536    555.823    543.629    534.536    534.536
 85.970    542.517    565.188    -22.671    534.339    554.705    544.810    534.339    534.339
 86.070    579.000    566.321     12.679    534.141    554.063    546.386    534.141    534.141
 86.170    597.000    568.242     28.758    533.942    553.844    548.325    533.942    533.942
 86.270    572.202    570.863      1.339    533.742    554.022    550.565    533.742    533.742
 86.370    552.000    574.097    -22.097    533.540    554.605    553.012    533.540    533.540
 86.470    620.000    577.855     42.145    533.337    555.635    555.534    533.337    533.337
 86.570    566.000    582.042    -16.042    533.133    557.187    557.962    533.133    533.133
 86.670    624.247    586.560     37.687    532.928    559.363    560.096    532.928    532.928
 86.770    620.000    591.321     28.679    532.721    562.288    561.719    532.721    532.721
 86.870    549.648    596.260    -46.612    532.513    566.100    562.634    532.513    532.513
 86.970    681.000    601.373     79.627    532.304    570.927    562.705    532.304    532.304
 87.070    611.556    606.733      4.823    532.094    576.876    561.898    532.094    532.094
 87.170    663.000    612.477     50.523    531.882    584.004    560.294    531.882    531.882
 87.270    645.000    618.749     26.251    531.670    592.293    558.056    531.670    531.670
 87.370    639.000    625.629     13.371    531.456    601.622    555.383    531.456    531.456
 87.470    603.441    633.075    -29.634    531.241    611.751    552.474    531.241    531.241
 87.570    700.000    640.881     59.119    531.025    622.302    549.502    531.025    531.025
 87.670    606.397    648.665    -42.268    530.807    632.751    546.610    530.807    530.807
 87.770    688.000    655.873     32.127    530.589    642.439    543.902    530.589    530.589
 87.870    660.484    661.820     -1.337    530.369    650.611    541.452    530.369    530.369
 87.970    679.000    665.793     13.207    530.148    656.513    539.299    530.148    530.148
 88.070    703.438    667.214     36.224    529.926    659.559    537.454    529.926    529.926
 88.170    616.946    665.820    -48.874    529.703    659.496    535.905    529.703    529.703
 88.270    687.000    661.753     25.247    529.479    656.494    534.627    529.479    529.479
 88.370    610.628    655.512    -44.884    529.254    651.083    533.584    529.254    529.254
 88.470    638.000    647.801     -9.801    529.027    644.002    532.741    529.027    529.027
 88.570    650.596    639.388     11.208    528.800    636.054    532.063    528.800    528.800
 88.670    605.000    631.017    -26.017    528.571    628.012    531.520    528.571    528.571
 88.770    669.627    623.356     46.270    528.341    620.569    531.087    528.341    528.341
 88.870    596.000    616.959    -20.959    528.111    614.297    530.744    528.111    528.111
 88.970    595.000    612.237    -17.237    527.879    609.623    530.476    527.879    527.879
 89.070    605.000    609.437     -4.437    527.646    606.807    530.270    527.646    527.646
 89.170    578.961    608.632    -29.671    527.412    605.933    530.116    527.412    527.412
 89.270    592.729    609.724    -16.994    527.177    606.911    530.002    527.177    527.177
 89.370    602.000    612.451    -10.451    526.941    609.495    529.920    526.941    526.941
 89.470    584.000    616.412    -32.412    526.704    613.292    529.855    526.704    526.704
 89.570    657.000    621.078     35.922    526.466    617.789    529.793    526.466    526.466
 89.670    632.102    625.826      6.276    526.227    622.379    529.719    526.227    526.227
 89.770    653.000    629.975     23.025    525.987    626.398    529.615    525.987    525.987
 89.870    649.824    632.856     16.967    525.746    629.196    529.464    525.746    525.746
 89.970    632.000    633.917     -1.917    525.504    630.231    529.251    525.504    525.504
 90.070    601.000    632.830    -31.830    525.261    629.185    528.969    525.261    525.261
 90.170    628.000    629.565     -1.565    525.017    626.027    528.618    525.017    525.017
 90.270    633.000    624.377      8.623    524.772    621.002    528.207    524.772    524.772
 90.370    612.000    617.712     -5.712    524.527    614.545    527.751    524.527    524.527
 90.470    661.161    610.098     51.063    524.280    607.165    527.265    524.280    524.280
 90.570    634.000    602.048     31.952    524.032    599.361    526.766    524.032    524.032
 90.670    619.954    594.014     25.940    523.784    591.572    526.266    523.784    523.784
 90.770    619.599    586.357     33.242    523.535    584.148    525.777    523.535    523.535
 90.870    540.000    579.347    -39.347    523.284    577.352    525.307    523.284    523.284
 90.970    563.000    573.161    -10.161    523.033    571.354    524.862    523.033    523.033
 91.070    555.000    567.892    -12.892    522.781    566.247    524.443    522.781    522.781
 91.170    566.747    563.565      3.182    522.528    562.053    524.053    522.528    522.528
 91.270    527.000    560.149    -33.149    522.275    558.743    523.689    522.275    522.275
 91.370    571.000    557.579     13.421    522.020    556.255    523.350    522.020    522.020
 91.470    547.465    555.774     -8.309    521.765    554.508    523.034    521.765    521.765
 91.570    516.000    554.653    -38.653    521.509    553.425    522.738    521.509    521.509
 91.670    534.141    554.149    -20.007    521.252    552.940    522.460    521.252    521.252
 91.770    566.004    554.220     11.784    520.995    553.014    522.198    520.995    520.995
 91.870    587.376    554.857     32.519    520.736    553.636    521.953    520.736    520.736
 91.970    527.000    556.086    -29.086    520.477    554.832    521.726    520.477    520.477
 92.070    565.000    557.972      7.028    520.217    556.665    521.517    520.217    520.217
 92.170    586.000    560.614     25.386    519.956    559.232    521.329    519.956    519.956
 92.270    527.000    564.144    -37.144    519.695    562.661    521.167    519.695    519.695
 92.370    550.000    568.719    -18.719    519.433    567.104    521.034    519.433    519.433
 92.470    559.000    574.508    -15.508    519.170    572.726    520.934    519.170    519.170
 92.570    545.000    581.680    -36.680    518.907    579.694    520.870    518.907    518.907
 92.670    575.000    590.390    -15.390    518.643    588.159    520.846    518.643    518.643
 92.770    631.674    600.757     30.917    518.378    598.239    520.862    518.378    518.378
 92.870    588.735    612.849    -24.115    518.113    610.004    520.919    518.113    518.113
 92.970    634.000    626.667      7.333    517.847    623.456    521.011    517.847    517.847
 93.070    677.762    642.128     35.634    517.580    638.519    521.135    517.580    517.580
 93.170    615.000    659.053    -44.053    517.313    655.023    521.282    517.313    517.313
 93.270    635.000    677.154    -42.154    517.046    672.690    521.441    517.046    517.046
 93.370    696.221    696.019      0.202    516.777    691.119    521.601    516.777    516.777
 93.470    725.000    715.208      9.792    516.509    709.883    521.752    516.509    516.509
 93.570    711.000    734.161    -23.161    516.239    728.431    521.883    516.239    516.239
 93.670    757.000    752.370      4.630    515.969    746.258    521.992    515.969    515.969
 93.770    789.543    769.479     20.065    515.699    762.999    522.086    515.699    515.699
 93.870    829.103    785.374     43.729    515.428    778.523    522.186    515.428    515.428
 93.970    776.000    800.212    -24.212    515.157    792.948    522.326    515.157    515.157
 94.070    824.000    814.336      9.664    514.885    806.574    522.553    514.885    514.885
 94.170    827.000    828.138     -1.138    514.612    819.739    522.918    514.612    514.612
 94.270    833.000    841.925     -8.925    514.340    832.702    523.471    514.340    514.340
 94.370    820.113    855.853    -35.740    514.067    845.576    524.252    514.067    514.067
 94.470    809.043    869.933    -60.890    513.793    858.346    525.290    513.793    513.793
 94.570    930.194    884.106     46.087    513.519    870.944    526.593    513.519    513.519
 94.670    897.192    898.305     -1.112    513.245    883.315    528.148    513.245    513.245
 94.770    899.000    912.449    -13.449    512.970    895.421    529.915    512.970    512.970
 94.870    955.241    926.369     28.872    512.695    907.156    531.827    512.695    512.695
 94.970    954.000    939.681     14.319    512.420    918.231    533.792    512.420    512.420
 95.070    954.000    951.698      2.302    512.144    928.076    535.694    512.144    512.144
 95.170    968.000    961.421      6.579    511.869    935.825    537.398    511.869    511.869
 95.270    917.000    967.620    -50.620    511.592    940.392    538.759    511.592    511.592
 95.370    939.000    969.027    -30.027    511.316    940.649    539.642    511.316    511.316
 95.470    976.000    964.616     11.384    511.039    935.674    539.938    511.039    511.039
 95.570    935.000    953.891    -18.891    510.763    925.029    539.591    510.763    510.763
 95.670    974.234    937.075     37.159    510.485    908.928    538.609    510.485    510.485
 95.770    928.328    915.107     13.221    510.208    888.240    537.061    510.208    510.208
 95.870    938.000    889.463     48.537    509.931    864.322    535.063    509.931    509.931
 95.970    896.960    861.907     35.053    509.653    838.802    532.754    509.653    509.653
 96.070    807.751    834.281    -26.529    509.376    813.379    530.276    509.376    509.376
 96.170    808.000    808.366     -0.366    509.098    789.705    527.758    509.098    509.098
 96.270    772.221    785.821    -13.599    508.820    769.321    525.318    508.820    508.820
 96.370    719.784    768.117    -48.333    508.542    753.609    523.045    508.542    508.542
 96.470    795.000    756.546     38.454    508.264    743.792    521.008    508.264    508.264
 96.570    775.224    752.201     23.024    507.986    740.920    519.251    507.986    507.986
 96.670    736.000    755.975    -19.975    507.708    745.862    517.797    507.708    507.708
 96.770    777.000    768.554      8.446    507.430    759.298    516.653    507.430    507.430
 96.870    825.659    790.406     35.253    507.152    781.705    515.809    507.152    507.152
 96.970    897.000    821.757     75.243    506.873    813.327    515.249    506.873    506.873
 97.070    891.896    862.561     29.335    506.595    854.144    514.947    506.595    506.595
 97.170    915.000    912.453      2.547    506.318    903.817    514.875    506.318    506.318
 97.270    980.000    970.691      9.309    506.040    961.638    515.002    506.040    506.040
 97.370    992.014   1036.072    -44.058    505.762   1026.440    515.292    505.762    505.762
 97.470   1055.437   1106.989    -51.551    505.484   1096.653    515.708    505.484    505.484
 97.570   1167.701   1181.296    -13.594    505.207   1170.177    516.207    505.207    505.207
 97.670   1311.599   1256.249     55.350    504.930   1244.315    516.739    504.930    504.930
 97.770   1386.135   1328.607     57.528    504.653   1315.882    517.252    504.653    504.653
 97.870   1446.757   1394.699     52.057    504.376   1381.263    517.688    504.376    504.376
 97.970   1476.000   1450.631     25.369    504.099   1436.626    517.988    504.099    504.099
 98.070   1564.201   1492.671     71.530    503.823   1478.295    518.095    503.823    503.823
 98.170   1549.000   1517.805     31.195    503.547   1503.300    517.965    503.547    503.547
 98.270   1521.000   1524.305     -3.305    503.271   1509.934    517.574    503.271    503.271
 98.370   1550.000   1512.061     37.939    502.996   1498.086    516.923    502.996    502.996
 98.470   1450.000   1482.596    -32.596    502.721   1469.254    516.034    502.721    502.721
 98.570   1377.000   1438.707    -61.707    502.446   1426.190    514.952    502.446    502.446
 98.670   1398.000   1383.940     14.060    502.172   1372.389    513.726    502.172    502.172
 98.770   1292.000   1322.110    -30.110    501.898   1311.611    512.412    501.898    501.898
 98.870   1251.000   1256.950     -5.950    501.624   1247.538    511.060    501.624    501.624
 98.970   1203.439   1191.895     11.544    501.351   1183.560    509.714    501.351    501.351
 99.070   1178.000   1129.974     48.026    501.078   1122.670    508.410    501.078    501.078
 99.170   1025.235   1073.768    -48.533    500.806   1067.422    507.178    500.806    500.806
 99.270   1010.000   1025.420    -15.420    500.535   1019.937    506.039    500.535    500.535
 99.370    956.000    986.662    -30.662    500.264    981.935    505.006    500.264    500.264
 99.470    959.000    958.858      0.142    499.993    954.775    504.086    499.993    499.993
 99.570    991.532    943.036     48.496    499.723    939.481    503.280    499.723    499.723
 99.670    972.919    939.904     33.015    499.454    936.768    502.584    499.454    499.454
 99.770    991.953    949.873     42.079    499.185    947.055    501.990    499.185    499.185
 99.870    974.000    973.065      0.935    498.918    970.473    501.490    498.918    498.918
 99.970   1086.000   1009.312     76.688    498.650   1006.866    501.071    498.650    498.650
100.070   1120.000   1058.160     61.840    498.384   1055.792    500.722    498.384    498.384
100.170   1112.000   1118.838     -6.838    498.118   1116.494    500.430    498.118    498.118
100.270   1178.000   1190.241    -12.241    497.853   1187.877    500.185    497.853    497.853
100.370   1328.835   1270.878     57.957    497.588   1268.463    499.974    497.588    497.588
100.470   1298.000   1358.841    -60.841    497.325   1356.356    499.786    497.325    497.325
100.570   1457.542   1451.773      5.769    497.062   1449.207    499.612    497.062    497.062
100.670   1586.000   1546.881     39.119    496.800   1544.234    499.443    496.800    496.800
100.770   1592.000   1641.027    -49.027    496.539   1638.309    499.269    496.539    496.539
100.870   1696.000   1730.924    -34.924    496.279   1728.148    499.083    496.279    496.279
100.970   1840.000   1813.416     26.584    496.020   1810.602    498.882    496.020    496.020
101.070   1866.036   1885.780    -19.744    495.762   1882.949    498.663    495.762    495.762
101.170   1888.120   1945.958    -57.839    495.505   1943.127    498.426    495.505    495.505
101.270   1947.970   1992.514    -44.545    495.249   1989.697    498.177    495.249    495.249
101.370   2053.000   2024.443     28.557    494.993   2021.645    497.921    494.993    494.993
101.470   2017.000   2040.983    -23.983    494.739   2038.202    497.666    494.739    494.739
101.570   2136.516   2041.525     94.992    494.486   2038.751    497.418    494.486    494.486
101.670   2112.000   2025.746     86.254    494.234   2022.965    497.185    494.234    494.234
101.770   1949.000   1993.946    -44.946    493.984   1991.136    496.971    493.984    493.984
101.870   1965.000   1947.378     17.622    493.734   1944.514    496.780    493.734    493.734
101.970   1906.000   1888.393     17.607    493.486   1885.449    496.613    493.486    493.486
102.070   1812.936   1820.258     -7.322    493.238   1817.208    496.469    493.238    493.238
102.170   1830.695   1746.734     83.961    492.992   1743.556    496.345    492.992    492.992
102.270   1752.767   1671.574     81.193    492.748   1668.253    496.235    492.748    492.748
102.370   1560.000   1598.110    -38.110    492.504   1594.638    496.133    492.504    492.504
102.470   1497.000   1529.002    -32.002    492.262   1525.380    496.030    492.262    492.262
102.570   1385.998   1466.125    -80.128    492.022   1462.363    495.918    492.022    492.022
102.670   1358.000   1410.554    -52.554    491.782   1406.670    495.789    491.782    491.782
102.770   1308.000   1362.596    -54.596    491.544   1358.616    495.637    491.544    491.544
102.870   1380.492   1321.855     58.637    491.308   1317.809    495.457    491.308    491.308
102.970   1253.000   1287.315    -34.315    491.073   1283.238    495.246    491.073    491.073
103.070   1238.981   1257.458    -18.477    490.840   1253.386    495.002    490.840    490.840
103.170   1160.165   1230.427    -70.262    490.608   1226.398    494.724    490.608    490.608
103.270   1135.628   1204.271    -68.643    490.377   1200.324    494.409    490.377    490.377
103.370   1128.000   1177.181    -49.181    490.148   1173.355    494.059    490.148    490.148
103.470   1114.727   1147.768    -33.041    489.921   1144.100    493.673    489.921    489.921
103.570   1070.000   1115.234    -45.234    489.696   1111.756    493.257    489.696    489.696
103.670   1051.352   1079.409    -28.058    489.472   1076.149    492.815    489.472    489.472
103.770    961.000   1040.664    -79.664    489.250   1037.639    492.356    489.250    489.250
103.870    973.000    999.732    -26.732    489.029    996.954    491.886    489.029    489.029
103.970    973.000    957.538     15.462    488.811    955.010    491.414    488.811    488.811
104.070    971.000    915.051     55.949    488.594    912.768    490.947    488.594    488.594
104.170    859.000    873.194    -14.194    488.379    871.148    490.491    488.379    488.379
104.270    828.296    832.792     -4.496    488.166    830.968    490.049    488.166    488.166
104.370    797.333    794.537      2.796    487.954    792.919    489.626    487.954    487.954
104.470    728.835    758.978    -30.143    487.745    757.547    489.224    487.745    487.745
104.570    715.000    726.510    -11.510    487.538    725.245    488.844    487.538    487.538
104.670    737.166    697.375     39.791    487.332    696.257    488.486    487.332    487.332
104.770    665.000    671.673     -6.673    487.129    670.682    488.151    487.129    487.129
104.870    688.120    649.376     38.743    486.927    648.493    487.837    486.927    486.927
104.970    658.000    630.352     27.648    486.728    629.558    487.543    486.728    486.728
105.070    651.026    614.387     36.640    486.531    613.666    487.268    486.531    486.531
105.170    643.000    601.209     41.791    486.336    600.548    487.010    486.336    486.336
105.270    603.000    590.524     12.476    486.143    589.912    486.765    486.143    486.143
105.370    601.000    582.072     18.928    485.952    581.494    486.537    485.952    485.952
105.470    630.000    575.554     54.446    485.764    575.000    486.322    485.764    485.764
105.570    579.000    570.715      8.285    485.578    570.176    486.118    485.578    485.578
105.670    609.000    567.340     41.660    485.394    566.808    485.925    485.394    485.394
105.770    583.401    565.256     18.144    485.213    564.724    485.743    485.213    485.213
105.870    548.886    564.335    -15.449    485.034    563.793    485.571    485.034    485.034
105.970    533.309    564.487    -31.178    484.857    563.929    485.408    484.857    484.857
106.070    562.354    565.660     -3.307    484.683    565.078    485.256    484.683    484.683
106.170    661.000    567.835     93.165    484.511    567.220    485.115    484.511    484.511
106.270    597.000    571.016     25.984    484.342    570.359    484.985    484.342    484.342
106.370    581.000    575.223      5.777    484.175    574.515    484.866    484.175    484.175
106.470    591.000    580.488     10.512    484.011    579.718    484.761    484.011    484.011
106.570    600.360    586.841     13.519    483.850    586.000    484.668    483.850    483.850
106.670    619.000    594.307     24.693    483.691    593.383    484.588    483.691    483.691
106.770    566.000    602.887    -36.887    483.535    601.870    484.522    483.535    483.535
106.870    650.000    612.556     37.444    483.381    611.434    484.469    483.381    483.381
106.970    621.000    623.245     -2.245    483.231    622.010    484.428    483.231    483.231
107.070    602.414    634.841    -32.427    483.083    633.485    484.398    483.083    483.083
107.170    621.731    647.180    -25.449    482.938    645.696    484.377    482.938    482.938
107.270    648.045    660.041    -11.995    482.796    658.426    484.362    482.796    482.796
107.370    625.120    673.150    -48.030    482.657    671.405    484.351    482.657    482.657
107.470    716.000    686.186     29.814    482.520    684.313    484.339    482.520    482.520
107.570    692.000    698.781     -6.781    482.387    696.790    484.323    482.387    482.387
107.670    706.000    710.541     -4.541    482.257    708.444    484.298    482.257    482.257
107.770    714.000    721.066     -7.066    482.129    718.880    484.259    482.129    482.129
107.870    714.000    729.986    -15.986    482.005    727.735    484.202    482.005    482.005
107.970    774.206    737.012     37.194    481.884    734.720    484.122    481.884    481.884
108.070    732.365    741.980     -9.615    481.766    739.677    484.019    481.766    481.766
108.170    731.624    744.891    -13.267    481.652    742.605    483.891    481.652    481.652
108.270    712.000    745.918    -33.918    481.540    743.676    483.739    481.540    481.540
108.370    761.657    745.381     16.276    481.432    743.209    483.566    481.432    481.432
108.470    699.891    743.701    -43.811    481.328    741.617    483.376    481.328    481.328
108.570    790.988    741.337     49.650    481.226    739.358    483.174    481.226    481.226
108.670    696.000    738.735    -42.735    481.128    736.872    482.965    481.128    481.128
108.770    706.000    736.287    -30.287    481.034    734.546    482.753    481.034    481.034
108.870    740.000    734.302      5.698    480.942    732.684    482.542    480.942    480.942
108.970    734.000    732.991      1.009    480.855    731.496    482.336    480.855    480.855
109.070    660.000    732.458    -72.458    480.771    731.081    482.138    480.771    480.771
109.170    709.000    732.699    -23.699    480.690    731.434    481.949    480.690    480.690
109.270    788.126    733.599     54.527    480.613    732.437    481.772    480.613    480.613
109.370    738.000    734.941      3.059    480.540    733.873    481.608    480.540    480.540
109.470    695.000    736.416    -41.416    480.471    735.434    481.456    480.471    480.471
109.570    670.000    737.646    -67.646    480.405    736.740    481.317    480.405    480.405
109.670    749.976    738.213     11.763    480.343    737.376    481.191    480.343    480.343
109.770    784.525    737.705     46.820    480.285    736.928    481.075    480.285    480.285
109.870    796.000    735.765     60.235    480.231    735.042    480.969    480.231    480.231
109.970    777.115    732.140     44.974    480.181    731.466    480.873    480.181    480.181
110.070    716.000    726.719    -10.719    480.135    726.088    480.785    480.135    480.135
110.170    717.000    719.541     -2.541    480.092    718.949    480.705    480.092    480.092
110.270    706.277    710.776     -4.499    480.054    710.220    480.631    480.054    480.054
110.370    682.000    700.690    -18.690    480.020    700.171    480.560    480.020    480.020
110.470    675.000    689.624    -14.624    479.990    689.136    480.498    479.990    479.990
110.570    650.000    677.923    -27.923    479.964    677.463    480.444    479.964    479.964
110.670    666.000    665.927      0.073    479.943    665.491    480.397    479.943    479.943
110.770    668.276    653.948     14.328    479.925    653.535    480.356    479.925    479.925
110.870    653.000    642.266     10.734    479.912    641.873    480.321    479.912    479.912
110.970    651.000    631.117     19.883    479.904    630.742    480.292    479.904    479.904
111.070    617.000    620.686     -3.686    479.899    620.326    480.270    479.899    479.899
111.170    622.000    611.138     10.862    479.899    610.792    480.254    479.899    479.899
111.270    641.000    602.574     38.426    479.904    602.240    480.245    479.904    479.904
111.370    643.496    595.055     48.440    479.913    594.731    480.243    479.913    479.913
111.470    566.528    588.607    -22.079    479.927    588.290    480.247    479.927    479.927
111.570    572.000    583.222    -11.222    479.945    582.910    480.257    479.945    479.945
111.670    551.456    578.866    -27.410    479.968    578.559    480.274    479.968    479.968
111.770    589.000    575.484     13.516    479.996    575.180    480.297    479.996    479.996
111.870    574.000    573.001      0.999    480.028    572.699    480.327    480.028    480.028
111.970    603.000    571.338     31.662    480.066    571.035    480.362    480.066    480.066
112.070    556.876    570.406    -13.530    480.108    570.103    480.403    480.108    480.108
112.170    568.000    570.119     -2.119    480.155    569.815    480.451    480.155    480.155
112.270    593.000    570.393     22.607    480.206    570.087    480.503    480.206    480.206
112.370    587.000    571.152     15.848    480.263    570.844    480.562    480.263    480.263
112.470    587.000    572.327     14.673    480.325    572.016    480.625    480.325    480.325
112.570    538.000    573.859    -35.859    480.392    573.545    480.695    480.392    480.392
112.670    569.436    575.701     -6.264    480.464    575.384    480.769    480.464    480.464
112.770    589.000    577.819     11.181    480.541    577.499    480.849    480.541    480.541
112.870    634.000    580.192     53.808    480.624    579.869    480.934    480.624    480.624
112.970    605.000    582.814     22.186    480.711    582.488    481.024    480.711    480.711
113.070    589.487    585.693      3.794    480.804    585.363    481.120    480.804    480.804
113.170    549.845    588.849    -39.004    480.903    588.516    481.222    480.903    480.903
113.270    574.187    592.320    -18.133    481.006    591.982    481.330    481.006    481.006
113.370    574.000    596.156    -22.156    481.116    595.813    481.444    481.116    481.116
113.470    591.000    600.427     -9.427    481.230    600.078    481.565    481.230    481.230
113.570    585.950    605.224    -19.274    481.351    604.866    481.693    481.351    481.351
113.670    638.000    610.663     27.337    481.476    610.294    481.828    481.476    481.476
113.770    626.000    616.895      9.105    481.608    616.513    481.972    481.608    481.608
113.870    625.000    624.114      0.886    481.745    623.716    482.124    481.745    481.745
113.970    598.000    632.567    -34.567    481.888    632.149    482.285    481.888    481.888
114.070    679.000    642.568     36.432    482.037    642.125    482.456    482.037    482.037
114.170    709.000    654.515     54.485    482.191    654.042    482.638    482.191    482.191
114.270    654.000    668.903    -14.903    482.352    668.394    482.831    482.352    482.352
114.370    693.259    686.347      6.911    482.518    685.795    483.035    482.518    482.518
114.470    714.222    707.600      6.622    482.690    706.997    483.252    482.690    482.690
114.570    692.000    733.572    -41.572    482.869    732.909    483.483    482.869    482.869
114.670    738.136    765.345    -27.209    483.053    764.612    483.727    483.053    483.053
114.770    784.000    804.192    -20.192    483.244    803.379    483.986    483.244    483.244
114.870    881.000    851.579     29.421    483.441    850.675    484.261    483.441    483.441
114.970    973.000    909.170     63.830    483.644    908.162    484.550    483.644    483.644
115.070    933.000    978.814    -45.814    483.853    977.690    484.856    483.853    483.853
115.170   1021.280   1062.518    -41.238    484.069   1061.264    485.177    484.069    484.069
115.270   1137.000   1162.411    -25.411    484.291   1161.014    485.514    484.291    484.291
115.370   1276.000   1280.684     -4.684    484.520   1279.131    485.866    484.520    484.520
115.470   1452.000   1419.513     32.487    484.755   1417.791    486.233    484.755    484.755
115.570   1654.982   1580.968     74.013    484.997   1579.066    486.615    484.997    484.997
115.670   1836.000   1766.898     69.102    485.245   1764.804    487.009    485.245    485.245
115.770   1994.000   1978.807     15.193    485.500   1976.513    487.416    485.500    485.500
115.870   2248.000   2217.719     30.281    485.762   2215.219    487.833    485.762    485.762
115.970   2600.000   2484.045    115.955    486.030   2481.334    488.259    486.030    486.030
116.070   2809.000   2777.445     31.555    486.306   2774.521    488.691    486.306    486.306
116.170   3265.000   3096.709    168.291    486.588   3093.576    489.129    486.588    486.588
116.270   3513.000   3439.659     73.341    486.877   3436.321    489.570    486.877    486.877
116.370   3876.000   3803.067     72.933    487.173   3799.535    490.012    487.173    487.173
116.470   4282.000   4182.616     99.384    487.476   4178.901    490.454    487.476    487.476
116.570   4558.000   4572.864    -14.864    487.787   4568.983    490.896    487.787    487.787
116.670   4840.000   4967.348   -127.348    488.104   4963.317    491.337    488.104    488.104
116.770   5387.000   5358.600     28.400    488.429   5354.438    491.777    488.429    488.429
116.870   5704.000   5738.188    -34.188    488.761   5733.914    492.219    488.761    488.761
116.970   6024.809   6096.964    -72.155    489.100   6092.599    492.661    489.100    489.100
117.070   6332.089   6425.290    -93.201    489.447   6420.855    493.106    489.447    489.447
117.170   6831.000   6713.382    117.618    489.801   6708.899    493.553    489.801    489.801
117.270   6985.000   6951.800     33.200    490.163   6947.290    494.004    490.163    490.163
117.370   7358.000   7132.069    225.931    490.532   7127.553    494.457    490.532    490.532
117.470   7273.000   7247.378     25.622    490.909   7242.873    494.912    490.909    490.909
117.570   7242.000   7293.258    -51.258    491.293   7288.782    495.369    491.293    491.293
117.670   7372.000   7268.086    103.914    491.685   7263.653    495.825    491.685    491.685
117.770   6962.000   7173.270   -211.270    492.085   7168.889    496.280    492.085    492.085
117.870   7134.328   7013.075    121.252    492.493   7008.755    496.731    492.493    492.493
117.970   6791.000   6794.135     -3.135    492.909   6789.881    497.177    492.909    492.909
118.070   6465.063   6524.775    -59.711    493.332   6520.591    497.616    493.332    493.332
118.170   6101.000   6214.304   -113.304    493.764   6210.196    498.044    493.764    493.764
118.270   6024.398   5872.389    152.009    494.204   5868.364    498.461    494.204    494.204
118.370   5503.025   5508.563     -5.538    494.652   5504.627    498.865    494.652    494.652
118.470   5131.749   5131.858     -0.109    495.108   5128.020    499.255    495.108    495.108
118.570   4784.000   4750.565     33.435    495.572   4746.834    499.630    495.572    495.572
118.670   4397.000   4372.062     24.938    496.045   4368.449    499.994    496.045    496.045
118.770   4039.000   4002.712     36.288    496.526   3999.224    500.346    496.526    496.526
118.870   3634.476   3647.797    -13.321    497.015   3644.442    500.691    497.015    497.015
118.970   3350.000   3311.508     38.492    497.513   3308.292    501.032    497.513    497.513
119.070   2943.000   2996.963    -53.963    498.020   2993.889    501.373    498.020    498.020
119.170   2754.000   2706.269     47.731    498.535   2703.339    501.717    498.535    498.535
119.270   2498.772   2440.609     58.163    499.059   2437.821    502.069    499.059    499.059
119.370   2290.392   2200.357     90.034    499.591   2197.708    502.432    499.591    499.591
119.470   2003.000   1985.202     17.798    500.133   1982.687    502.809    500.133    500.133
119.570   1794.000   1794.278     -0.278    500.683   1791.890    503.205    500.683    500.683
119.670   1561.000   1626.292    -65.292    501.242   1624.021    503.620    501.242    501.242
119.770   1536.000   1479.639     56.361    501.810   1477.474    504.058    501.810    501.810
119.870   1380.000   1352.516     27.484    502.387   1350.443    504.522    502.387    502.387
119.970   1201.636   1243.012    -41.376    502.974   1241.018    505.012    502.974    502.974
120.070   1183.000   1149.197     33.803    503.569   1147.266    505.529    503.569    503.569
120.170   1070.000   1069.184      0.816    504.174   1067.299    506.076    504.174    504.174
120.270   1007.000   1001.187      5.813    504.788    999.329    506.653    504.788    504.788
120.370    943.726    943.551      0.175    505.411    941.702    507.260    505.411    505.411
120.470    957.000    894.784     62.216    506.044    892.925    507.899    506.044    506.044
120.570    824.684    853.563    -28.879    506.686    851.673    508.568    506.686    506.686
120.670    793.990    818.735    -24.745    507.338    816.793    509.270    507.338    507.338
120.770    764.145    789.312    -25.167    508.000    787.298    510.003    508.000    508.000
120.870    760.000    764.458     -4.458    508.671    762.350    510.768    508.671    508.671
120.970    729.000    743.474    -14.474    509.352    741.250    511.565    509.352    509.352
121.070    704.967    725.780    -20.813    510.043    723.418    512.395    510.043    510.043
121.170    697.765    710.900    -13.134    510.743    708.377    513.258    510.743    510.743
121.270    696.000    698.444     -2.444    511.454    695.736    514.155    511.454    511.454
121.370    658.078    688.094    -30.017    512.174    685.178    515.086    512.174    512.174
121.470    645.759    679.592    -33.833    512.905    676.442    516.051    512.905    512.905
121.570    645.786    672.724    -26.938    513.646    669.316    517.052    513.646    513.646
121.670    661.000    667.317     -6.317    514.397    663.624    518.090    514.397    514.397
121.770    624.346    663.225    -38.879    515.158    659.219    519.165    515.158    515.158
121.870    674.050    660.327     13.723    515.930    655.980    520.279    515.930    515.930
121.970    654.000    658.515     -4.515    516.712    653.798    521.433    516.712    516.712
122.070    605.000    657.698    -52.698    517.505    652.581    522.627    517.505    517.505
122.170    681.490    657.791     23.698    518.308    652.243    523.864    518.308    518.308
122.270    625.000    658.715    -33.715    519.122    652.703    525.142    519.122    519.122
122.370    701.721    660.390     41.331    519.946    653.884    526.463    519.946    519.946
122.470    715.907    662.741     53.166    520.781    655.710    527.825    520.781    520.781
122.570    672.000    665.687      6.313    521.627    658.102    529.228    521.627    521.627
122.670    660.000    669.145     -9.145    522.484    660.979    530.667    522.484    522.484
122.770    721.177    673.024     48.154    523.352    664.255    532.140    523.352    523.352
122.870    671.000    677.229     -6.229    524.231    667.841    533.642    524.231    524.231
122.970    690.000    681.660      8.340    525.121    671.641    535.165    525.121    525.121
123.070    640.899    686.208    -45.309    526.022    675.554    536.703    526.022    526.022
123.170    722.000    690.757     31.243    526.935    679.475    538.247    526.935    526.935
123.270    685.000    695.188    -10.188    527.858    683.293    539.788    527.858    527.858
123.370    710.000    699.378     10.622    528.794    686.894    541.314    528.794    528.794
123.470    676.000    703.201    -27.201    529.740    690.166    542.814    529.740    529.740
123.570    696.000    706.537    -10.537    530.698    693.000    544.277    530.698    530.698
123.670    713.907    709.275      4.632    531.668    695.295    545.692    531.668    531.668
123.770    699.610    711.316    -11.706    532.650    696.962    547.049    532.650    532.650
123.870    737.000    712.580     24.420    533.643    697.931    548.340    533.643    533.643
123.970    719.000    712.987      6.013    534.648    698.128    549.556    534.648    534.648
124.070    706.000    712.567     -6.567    535.665    697.587    550.695    535.665    535.665
124.170    738.976    711.313     27.663    536.693    696.303    551.754    536.693    536.693
124.270    716.000    709.246      6.754    537.734    694.298    552.734    537.734    537.734
124.370    693.000    706.419    -13.419    538.787    691.621    553.637    538.787    538.787
124.470    756.000    702.903     53.097    539.852    688.340    554.466    539.852    539.852
124.570    762.000    698.780     63.220    540.930    684.532    555.227    540.930    540.930
124.670    702.000    694.140      7.860    542.019    680.281    555.926    542.019    542.019
124.770    682.476    689.077     -6.601    543.122    675.675    556.570    543.122    543.122
124.870    648.265    683.687    -35.421    544.236    670.799    557.168    544.236    544.236
124.970    699.000    678.063     20.937    545.363    665.741    557.727    545.363    545.363
