neutron_powder_diffraction_0132
R_wp: 4.050
Temperature (K): 1048.092
Counts: 83410.00
Wavelength (Ã…): 2.52098
COMMENTS
Test file for demonstrating the .xyy file format in Reel1.0
END OF HEADER
   tth       Y_obs     Y_calc      Y_res    Background    Phase_1_Nuc    Phase_1_Mag    Phase_2_Nuc    Phase_2_Mag
  9.970    531.199    558.686    -27.487    557.730    558.610    557.730    557.805    557.730
 10.070    592.000    559.072     32.928    558.040    558.995    558.040    558.115    558.040
 10.170    608.000    559.460     48.540    558.341    559.383    558.341    558.417    558.341
 10.270    606.120    559.853     46.267    558.633    559.776    558.633    558.710    558.633
 10.370    595.000    560.254     34.746    558.917    560.177    558.917    558.994    558.917
 10.470    594.000    560.667     33.333    559.193    560.589    559.193    559.270    559.193
 10.570    598.000    561.096     36.904    559.461    561.017    559.461    559.538    559.461
 10.670    552.000    561.547     -9.547    559.720    561.469    559.720    559.797    559.720
 10.770    539.814    562.030    -22.216    559.971    561.951    559.971    560.049    559.971
 10.870    605.334    562.556     42.777    560.214    562.477    560.214    560.292    560.214
 10.970    605.000    563.144     41.856    560.449    563.064    560.449    560.527    560.449
 11.070    576.423    563.812     12.611    560.676    563.731    560.676    560.755    560.676
 11.170    590.000    564.594     25.406    560.895    564.513    560.895    560.974    560.895
 11.270    527.000    565.545    -38.545    561.106    565.463    561.106    561.186    561.106
 11.370    559.000    566.759     -7.759    561.309    566.676    561.309    561.390    561.309
 11.470    585.664    568.449     17.215    561.505    568.365    561.505    561.586    561.505
 11.570    606.000    571.154     34.846    561.694    571.069    561.694    561.774    561.694
 11.670    568.000    576.162     -8.162    561.874    576.073    561.874    561.955    561.874
 11.770    540.731    585.954    -45.223    562.048    585.859    562.048    562.129    562.048
 11.870    572.419    603.877    -31.458    562.213    603.772    562.213    562.295    562.213
 11.970    642.000    631.894     10.106    562.372    631.773    562.372    562.454    562.372
 12.070    715.000    666.173     48.827    562.523    666.033    562.523    562.606    562.523
 12.170    682.000    693.026    -11.026    562.667    692.871    562.667    562.750    562.667
 12.270    678.000    695.188    -17.188    562.804    695.031    562.804    562.888    562.804
 12.370    657.494    670.941    -13.448    562.934    670.798    562.934    563.018    562.934
 12.470    616.000    636.777    -20.777    563.057    636.652    563.057    563.141    563.057
 12.570    629.745    607.775     21.970    563.173    607.666    563.173    563.258    563.173
 12.670    579.000    588.872     -9.872    563.282    588.773    563.282    563.367    563.282
 12.770    555.000    578.533    -23.533    563.385    578.440    563.385    563.470    563.385
 12.870    619.949    573.385     46.564    563.480    573.294    563.480    563.566    563.480
 12.970    552.198    570.775    -18.576    563.569    570.685    563.569    563.655    563.569
 13.070    611.146    569.283     41.863    563.651    569.194    563.651    563.738    563.651
 13.170    589.000    568.309     20.691    563.727    568.219    563.727    563.814    563.727
 13.270    546.000    567.615    -21.615    563.797    567.526    563.797    563.884    563.797
 13.370    555.633    567.100    -11.467    563.859    567.010    563.859    563.947    563.859
 13.470    549.642    566.706    -17.065    563.916    566.617    563.916    564.004    563.916
 13.570    569.000    566.400      2.600    563.966    566.310    563.966    564.055    563.966
 13.670    566.000    566.157     -0.157    564.010    566.067    564.010    564.099    564.010
 13.770    577.000    565.960     11.040    564.048    565.870    564.048    564.138    564.048
 13.870    553.000    565.798    -12.798    564.080    565.708    564.080    564.170    564.080
 13.970    525.000    565.663    -40.663    564.106    565.572    564.106    564.196    564.106
 14.070    547.000    565.546    -18.546    564.126    565.455    564.126    564.216    564.126
 14.170    538.000    565.444    -27.444    564.140    565.353    564.140    564.231    564.140
 14.270    609.173    565.353     43.819    564.148    565.261    564.148    564.239    564.148
 14.370    552.000    565.270    -13.270    564.150    565.178    564.150    564.242    564.150
 14.470    596.331    565.193     31.139    564.146    565.100    564.146    564.239    564.146
 14.570    581.000    565.119     15.881    564.137    565.026    564.137    564.230    564.137
 14.670    531.000    565.048    -34.048    564.122    564.954    564.122    564.216    564.122
 14.770    610.357    564.978     45.380    564.102    564.883    564.102    564.196    564.102
 14.870    494.000    564.910    -70.910    564.076    564.815    564.076    564.171    564.076
 14.970    537.000    564.841    -27.841    564.045    564.746    564.045    564.140    564.045
 15.070    522.619    564.770    -42.151    564.009    564.674    564.009    564.104    564.009
 15.170    558.000    564.697     -6.697    563.967    564.601    563.967    564.063    563.967
 15.270    525.556    564.623    -39.067    563.919    564.526    563.919    564.016    563.919
 15.370    524.000    564.546    -40.546    563.867    564.449    563.867    563.964    563.867
 15.470    548.000    564.466    -16.466    563.810    564.369    563.810    563.907    563.810
 15.570    557.000    564.384     -7.384    563.747    564.286    563.747    563.845    563.747
 15.670    551.000    564.298    -13.298    563.679    564.200    563.679    563.778    563.679
 15.770    584.000    564.210     19.790    563.607    564.110    563.607    563.706    563.607
 15.870    541.000    564.118    -23.118    563.529    564.018    563.529    563.629    563.529
 15.970    572.172    564.022      8.150    563.447    563.922    563.447    563.547    563.447
 16.070    594.000    563.924     30.076    563.360    563.822    563.360    563.461    563.360
 16.170    542.738    563.822    -21.084    563.268    563.720    563.268    563.369    563.268
 16.270    552.000    563.717    -11.717    563.171    563.615    563.171    563.273    563.171
 16.370    536.000    563.608    -27.608    563.070    563.505    563.070    563.173    563.070
 16.470    558.000    563.494     -5.494    562.964    563.391    562.964    563.068    562.964
 16.570    566.000    563.378      2.622    562.854    563.273    562.854    562.958    562.854
 16.670    560.000    563.257     -3.257    562.739    563.152    562.739    562.844    562.739
 16.770    576.000    563.132     12.868    562.620    563.027    562.620    562.725    562.620
 16.870    546.000    563.004    -17.004    562.496    562.898    562.496    562.602    562.496
 16.970    562.000    562.873     -0.873    562.368    562.766    562.368    562.475    562.368
 17.070    599.000    562.737     36.263    562.236    562.630    562.236    562.344    562.236
 17.170    558.000    562.598     -4.598    562.100    562.490    562.100    562.208    562.100
 17.270    554.816    562.457     -7.641    561.959    562.348    561.959    562.068    561.959
 17.370    571.810    562.322      9.488    561.815    562.213    561.815    561.924    561.815
 17.470    610.060    562.187     47.873    561.666    562.077    561.666    561.776    561.666
 17.570    527.691    562.035    -34.344    561.514    561.924    561.514    561.624    561.514
 17.670    529.000    561.879    -32.879    561.357    561.767    561.357    561.468    561.357
 17.770    605.000    561.718     43.282    561.196    561.606    561.196    561.309    561.196
 17.870    570.000    561.555      8.445    561.032    561.442    561.032    561.145    561.032
 17.970    582.000    561.388     20.612    560.864    561.274    560.864    560.978    560.864
 18.070    570.000    561.217      8.783    560.692    561.103    560.692    560.807    560.692
 18.170    553.000    561.044     -8.044    560.517    560.928    560.517    560.632    560.517
 18.270    563.235    560.867      2.368    560.337    560.751    560.337    560.454    560.337
 18.370    555.000    560.686     -5.686    560.155    560.569    560.155    560.272    560.155
 18.470    518.284    560.503    -42.220    559.968    560.385    559.968    560.086    559.968
 18.570    598.000    560.322     37.678    559.778    560.204    559.778    559.897    559.778
 18.670    573.456    560.194     13.263    559.585    560.074    559.585    559.705    559.585
 18.770    540.000    560.054    -20.054    559.389    559.934    559.389    559.509    559.389
 18.870    590.565    559.864     30.701    559.188    559.742    559.188    559.310    559.188
 18.970    584.000    559.665     24.335    558.985    559.543    558.985    559.107    558.985
 19.070    542.954    559.465    -16.510    558.779    559.341    558.779    558.902    558.779
 19.170    518.000    559.264    -41.264    558.569    559.140    558.569    558.693    558.569
 19.270    526.273    559.058    -32.785    558.356    558.933    558.356    558.481    558.356
 19.370    492.000    558.849    -66.849    558.140    558.723    558.140    558.266    558.140
 19.470    562.271    558.637      3.634    557.921    558.510    557.921    558.048    557.921
 19.570    552.000    558.423     -6.423    557.699    558.295    557.699    557.827    557.699
 19.670    546.000    558.207    -12.207    557.473    558.078    557.473    557.603    557.473
 19.770    565.392    557.993      7.400    557.245    557.862    557.245    557.376    557.245
 19.870    565.510    557.772      7.739    557.014    557.640    557.014    557.146    557.014
 19.970    572.958    557.547     15.411    556.781    557.415    556.781    556.913    556.781
 20.070    556.000    557.321     -1.321    556.544    557.187    556.544    556.678    556.544
 20.170    564.000    557.093      6.907    556.305    556.958    556.305    556.440    556.305
 20.270    540.000    556.862    -16.862    556.063    556.726    556.063    556.199    556.063
 20.370    596.253    556.633     39.619    555.818    556.496    555.818    555.956    555.818
 20.470    534.480    556.442    -21.961    555.571    556.303    555.571    555.710    555.571
 20.570    541.000    556.233    -15.233    555.321    556.093    555.321    555.461    555.321
 20.670    544.000    555.997    -11.997    555.069    555.856    555.069    555.210    555.069
 20.770    543.000    555.758    -12.758    554.814    555.615    554.814    554.957    554.814
 20.870    540.000    555.517    -15.517    554.557    555.373    554.557    554.701    554.557
 20.970    537.577    555.275    -17.698    554.297    555.130    554.297    554.443    554.297
 21.070    514.158    555.032    -40.874    554.035    554.885    554.035    554.182    554.035
 21.170    546.054    554.789     -8.735    553.770    554.641    553.770    553.919    553.770
 21.270    531.989    554.562    -22.573    553.504    554.412    553.504    553.654    553.504
 21.370    564.460    554.348     10.112    553.235    554.197    553.235    553.387    553.235
 21.470    555.000    554.105      0.895    552.964    553.952    552.964    553.118    552.964
 21.570    545.000    553.862     -8.862    552.691    553.706    552.691    552.846    552.691
 21.670    540.891    553.616    -12.725    552.415    553.459    552.415    552.573    552.415
 21.770    546.781    553.371     -6.591    552.138    553.213    552.138    552.297    552.138
 21.870    538.000    553.125    -15.125    551.859    552.965    551.859    552.019    551.859
 21.970    529.000    552.880    -23.880    551.577    552.717    551.577    551.740    551.577
 22.070    527.000    552.636    -25.636    551.294    552.471    551.294    551.459    551.294
 22.170    551.000    552.393     -1.393    551.009    552.227    551.009    551.176    551.009
 22.270    522.000    552.153    -30.153    550.722    551.984    550.722    550.891    550.722
 22.370    561.592    551.916      9.676    550.433    551.745    550.433    550.604    550.433
 22.470    563.000    551.689     11.311    550.142    551.516    550.142    550.315    550.142
 22.570    571.904    551.463     20.440    549.850    551.288    549.850    550.025    549.850
 22.670    524.814    551.240    -26.426    549.555    551.062    549.555    549.734    549.555
 22.770    531.107    551.023    -19.916    549.260    550.843    549.260    549.440    549.260
 22.870    545.729    550.815     -5.087    548.962    550.633    548.962    549.146    548.962
 22.970    531.791    550.618    -18.827    548.663    550.433    548.663    548.849    548.663
 23.070    586.709    550.436     36.273    548.363    550.248    548.363    548.551    548.363
 23.170    554.000    550.283      3.717    548.060    550.092    548.060    548.252    548.060
 23.270    562.792    550.162     12.630    547.757    549.968    547.757    547.952    547.757
 23.370    597.000    550.067     46.933    547.452    549.870    547.452    547.650    547.452
 23.470    547.000    550.019     -3.019    547.145    549.818    547.145    547.347    547.145
 23.570    541.000    550.002     -9.002    546.837    549.799    546.837    547.042    546.837
 23.670    594.000    550.043     43.957    546.528    549.836    546.528    546.737    546.528
 23.770    520.734    550.172    -29.438    546.218    549.962    546.218    546.430    546.218
 23.870    597.670    550.436     47.234    545.906    550.222    545.906    546.122    545.906
 23.970    563.000    550.916     12.084    545.593    550.698    545.593    545.813    545.593
 24.070    592.369    551.803     40.565    545.279    551.582    545.279    545.503    545.279
 24.170    523.000    553.547    -30.547    544.963    553.323    544.963    545.192    544.963
 24.270    573.000    557.106     15.894    544.647    556.880    544.647    544.881    544.647
 24.370    602.746    564.242     38.504    544.329    564.016    544.329    544.568    544.329
 24.470    586.000    576.964      9.036    544.011    576.743    544.011    544.255    544.011
 24.570    582.611    595.899    -13.289    543.691    595.686    543.691    543.941    543.691
 24.670    592.000    617.562    -25.562    543.370    617.359    543.370    543.626    543.370
 24.770    690.000    632.422     57.578    543.049    632.224    543.049    543.310    543.049
 24.870    649.000    630.498     18.502    542.726    630.292    542.726    542.994    542.726
 24.970    583.373    613.175    -29.802    542.403    612.950    542.403    542.678    542.403
 25.070    611.000    591.046     19.954    542.079    590.798    542.079    542.361    542.079
 25.170    574.000    572.596      1.404    541.754    572.327    541.754    542.043    541.754
 25.270    564.000    560.401      3.599    541.428    560.115    541.428    541.726    541.428
 25.370    530.433    553.474    -23.041    541.101    553.174    541.101    541.408    541.101
 25.470    525.000    549.792    -24.792    540.774    549.481    540.774    541.090    540.774
 25.570    571.000    547.753     23.247    540.446    547.430    540.446    540.772    540.446
 25.670    549.823    546.478      3.345    540.117    546.144    540.117    540.454    540.117
 25.770    569.747    545.556     24.190    539.788    545.210    539.788    540.136    539.788
 25.870    560.000    544.840     15.160    539.458    544.481    539.458    539.818    539.458
 25.970    518.000    544.257    -26.257    539.127    543.884    539.127    539.501    539.127
 26.070    568.000    543.775     24.225    538.796    543.388    538.796    539.184    538.796
 26.170    537.000    543.374     -6.374    538.464    542.971    538.464    538.867    538.464
 26.270    528.000    543.042    -15.042    538.132    542.623    538.132    538.552    538.132
 26.370    569.000    542.773     26.227    537.800    542.336    537.800    538.237    537.800
 26.470    593.000    542.561     50.439    537.467    542.104    537.467    537.924    537.467
 26.570    542.000    542.409     -0.409    537.134    541.930    537.134    537.612    537.134
 26.670    587.000    542.320     44.680    536.800    541.818    536.800    537.302    536.800
 26.770    522.167    542.303    -20.136    536.466    541.776    536.466    536.993    536.466
 26.870    568.000    542.371     25.629    536.132    541.815    536.132    536.687    536.132
 26.970    540.000    542.542     -2.542    535.797    541.955    535.797    536.384    535.797
 27.070    552.444    542.843      9.601    535.462    542.221    535.462    536.083    535.462
 27.170    534.000    543.310     -9.310    535.127    542.650    535.127    535.787    535.127
 27.270    582.000    544.002     37.998    534.792    543.299    534.792    535.494    534.792
 27.370    519.302    545.009    -25.707    534.456    544.257    534.456    535.207    534.456
 27.470    560.375    546.498     13.877    534.121    545.692    534.121    534.925    534.121
 27.570    580.000    548.913     31.087    533.785    548.045    533.785    534.651    533.785
 27.670    596.957    553.770     43.187    533.449    552.831    533.449    534.385    533.449
 27.770    585.000    565.868     19.132    533.113    564.845    533.113    534.129    533.113
 27.870    617.000    596.519     20.481    532.778    595.394    532.778    533.885    532.778
 27.970    636.859    662.141    -25.282    532.442    660.888    532.442    533.656    532.442
 28.070    726.788    768.888    -42.100    532.106    767.479    532.106    533.445    532.106
 28.170    903.000    887.515     15.485    531.770    885.932    531.770    533.258    531.770
 28.270    945.354    949.090     -3.736    531.434    947.330    531.434    533.101    531.434
 28.370    955.148    906.326     48.821    531.099    904.382    531.099    532.983    531.099
 28.470    764.000    804.101    -40.101    530.763    801.924    530.763    532.915    530.763
 28.570    740.000    720.556     19.444    530.428    718.063    530.428    532.912    530.428
 28.670    750.000    699.224     50.776    530.093    696.313    530.093    532.994    530.093
 28.770    732.178    737.986     -5.808    529.758    734.546    529.758    533.180    529.758
 28.870    761.000    800.587    -39.587    529.423    796.492    529.423    533.498    529.423
 28.970    803.000    831.990    -28.990    529.089    827.096    529.089    533.970    529.089
 29.070    806.108    797.753      8.355    528.754    791.891    528.754    534.620    528.754
 29.170    676.149    722.590    -46.441    528.421    715.568    528.421    535.456    528.421
 29.270    621.000    649.230    -28.230    528.087    640.872    528.087    536.459    528.087
 29.370    591.000    599.302     -8.302    527.754    589.512    527.754    537.553    527.754
 29.470    577.000    572.911      4.089    527.421    561.759    527.421    538.578    527.421
 29.570    559.571    561.075     -1.504    527.088    548.877    527.088    539.288    527.088
 29.670    571.650    555.649     16.002    526.756    542.984    526.756    539.422    526.756
 29.770    552.271    552.295     -0.024    526.425    539.876    526.425    538.843    526.425
 29.870    565.000    549.450     15.550    526.094    537.915    526.094    537.629    526.094
 29.970    528.769    546.811    -18.042    525.763    536.558    525.763    536.016    525.763
 30.070    599.000    544.467     54.533    525.433    535.636    525.433    534.263    525.433
 30.170    549.000    542.580      6.420    525.103    535.121    525.103    532.560    525.103
 30.270    548.161    541.380      6.781    524.774    535.145    524.774    531.007    524.774
 30.370    555.000    541.389     13.611    524.445    536.193    524.445    529.637    524.445
 30.470    509.000    543.740    -34.740    524.117    539.401    524.117    528.449    524.117
 30.570    564.438    550.304     14.135    523.790    546.656    523.790    527.425    523.790
 30.670    602.000    562.882     39.118    523.463    559.784    523.463    526.539    523.463
 30.770    562.000    581.093    -19.093    523.137    578.428    523.137    525.767    523.137
 30.870    633.000    599.799     33.201    522.812    597.477    522.812    525.086    522.812
 30.970    605.000    608.795     -3.795    522.487    606.754    522.487    524.476    522.487
 31.070    611.000    600.973     10.027    522.163    599.171    522.163    523.921    522.163
 31.170    551.081    581.877    -30.796    521.840    580.277    521.840    523.410    521.840
 31.270    543.000    561.780    -18.780    521.517    560.348    521.517    522.932    521.517
 31.370    574.350    546.668     27.682    521.196    545.374    521.196    522.480    521.196
 31.470    591.000    537.530     53.470    520.875    536.352    520.875    522.048    520.875
 31.570    541.000    532.747      8.253    520.555    531.665    520.555    521.634    520.555
 31.670    527.000    530.354     -3.354    520.235    529.354    520.235    521.233    520.235
 31.770    528.000    529.061     -1.061    519.917    528.133    519.917    520.844    519.917
 31.870    572.000    528.259     43.741    519.599    527.392    519.599    520.464    519.599
 31.970    543.000    527.711     15.289    519.283    526.899    519.283    520.093    519.283
 32.070    551.000    527.334     23.666    518.967    526.570    518.967    519.730    518.967
 32.170    537.549    527.098     10.451    518.652    526.377    518.652    519.372    518.652
 32.270    587.000    526.992     60.008    518.338    526.308    518.338    519.021    518.338
 32.370    556.000    527.017     28.983    518.025    526.367    518.025    518.674    518.025
 32.470    565.000    527.183     37.817    517.713    526.563    517.713    518.332    517.713
 32.570    557.633    527.509     30.125    517.402    526.916    517.402    517.994    517.402
 32.670    554.000    528.026     25.974    517.092    527.458    517.092    517.659    517.092
 32.770    494.000    528.780    -34.780    516.783    528.234    516.783    517.328    516.783
 32.870    493.807    529.837    -36.030    516.475    529.311    516.475    517.000    516.475
 32.970    494.530    531.295    -36.766    516.168    530.787    516.168    516.675    516.168
 33.070    568.000    533.311     34.689    515.863    532.819    515.863    516.353    515.863
 33.170    489.440    536.184    -46.744    515.558    535.706    515.558    516.033    515.558
 33.270    512.000    540.599    -28.599    515.254    540.134    515.254    515.716    515.254
 33.370    590.276    548.292     41.983    514.952    547.839    514.952    515.401    514.952
 33.470    572.000    563.327      8.673    514.650    562.883    514.650    515.088    514.650
 33.570    568.000    593.503    -25.503    514.350    593.063    514.350    514.778    514.350
 33.670    654.169    649.810      4.360    514.051    649.371    514.051    514.469    514.051
 33.770    734.358    740.906     -6.548    513.753    740.463    513.753    514.163    513.753
 33.870    865.000    862.056      2.944    513.457    861.607    513.457    513.858    513.457
 33.970    990.296    982.708      7.588    513.161    982.260    513.161    513.555    513.161
 34.070   1063.000   1045.729     17.271    512.867   1045.297    512.867    513.255    512.867
 34.170   1033.167   1009.815     23.353    512.574   1009.412    512.574    512.955    512.574
 34.270    846.000    900.376    -54.376    512.282    899.999    512.282    512.658    512.282
 34.370    768.933    774.937     -6.003    511.992    774.574    511.992    512.362    511.992
 34.470    644.000    672.759    -28.759    511.703    672.402    511.703    512.069    511.703
 34.570    573.784    605.517    -31.733    511.415    605.162    511.415    511.776    511.415
 34.670    556.000    567.556    -11.556    511.128    567.201    511.128    511.486    511.128
 34.770    578.000    547.935     30.065    510.843    547.583    510.843    511.197    510.843
 34.870    550.000    537.728     12.272    510.559    537.378    510.559    510.910    510.559
 34.970    551.000    531.824     19.176    510.277    531.476    510.277    510.625    510.277
 35.070    523.000    527.888     -4.888    509.996    527.543    509.996    510.341    509.996
 35.170    533.656    524.975      8.681    509.716    524.632    509.716    510.059    509.716
 35.270    481.383    522.691    -41.308    509.437    522.350    509.437    509.778    509.437
 35.370    552.027    520.842     31.185    509.160    520.504    509.160    509.499    509.160
 35.470    506.000    519.313    -13.313    508.885    518.975    508.885    509.222    508.885
 35.570    512.000    518.024     -6.024    508.611    517.688    508.611    508.946    508.611
 35.670    502.486    516.921    -14.435    508.338    516.586    508.338    508.672    508.338
 35.770    498.000    515.964    -17.964    508.067    515.631    508.067    508.400    508.067
 35.870    526.000    515.124     10.876    507.797    514.792    507.797    508.129    507.797
 35.970    538.000    514.380     23.620    507.528    514.048    507.528    507.860    507.528
 36.070    509.000    513.714     -4.714    507.262    513.383    507.262    507.593    507.262
 36.170    524.000    513.116     10.884    506.996    512.785    506.996    507.327    506.996
 36.270    475.905    512.574    -36.670    506.732    512.244    506.732    507.063    506.732
 36.370    477.498    512.085    -34.587    506.470    511.755    506.470    506.800    506.470
 36.470    523.248    511.642     11.606    506.209    511.312    506.209    506.539    506.209
 36.570    469.896    511.243    -41.347    505.950    510.913    505.950    506.280    505.950
 36.670    516.295    510.892      5.404    505.692    510.561    505.692    506.023    505.692
 36.770    466.635    510.600    -43.965    505.436    510.269    505.436    505.767    505.436
 36.870    478.366    510.390    -32.024    505.181    510.059    505.181    505.513    505.181
 36.970    521.000    510.322     10.678    504.928    509.990    504.928    505.260    504.928
 37.070    497.000    510.518    -13.518    504.677    510.185    504.677    505.010    504.677
 37.170    557.004    511.184     45.820    504.427    510.850    504.427    504.761    504.427
 37.270    476.796    512.579    -35.783    504.178    512.245    504.178    504.513    504.178
 37.370    508.427    514.891     -6.464    503.932    514.556    503.932    504.268    503.932
 37.470    548.605    518.020     30.586    503.687    517.684    503.687    504.024    503.687
 37.570    511.000    521.319    -10.319    503.443    520.983    503.443    503.782    503.443
 37.670    486.000    523.531    -37.531    503.201    523.195    503.201    503.542    503.201
 37.770    495.000    523.488    -28.488    502.961    523.153    502.961    503.303    502.961
 37.870    523.000    521.259      1.741    502.723    520.924    502.723    503.066    502.723
 37.970    558.678    517.960     40.719    502.486    517.625    502.486    502.831    502.486
 38.070    549.318    514.598     34.719    502.251    514.262    502.251    502.598    502.251
 38.170    545.010    511.659     33.351    502.017    511.319    502.017    502.366    502.017
 38.270    494.000    509.345    -15.345    501.785    509.001    501.785    502.136    501.785
 38.370    483.000    507.672    -24.672    501.555    507.324    501.555    501.908    501.555
 38.470    522.079    506.519     15.560    501.327    506.166    501.327    501.682    501.327
 38.570    522.000    505.729     16.271    501.100    505.373    501.100    501.458    501.100
 38.670    522.000    505.170     16.830    500.875    504.810    500.875    501.235    500.875
 38.770    528.583    504.745     23.837    500.652    504.383    500.652    501.015    500.652
 38.870    511.000    504.397      6.603    500.430    504.032    500.430    500.796    500.430
 38.970    461.000    504.094    -43.094    500.210    503.726    500.210    500.579    500.210
 39.070    520.000    503.819     16.181    499.992    503.448    499.992    500.364    499.992
 39.170    471.000    503.564    -32.564    499.776    503.190    499.776    500.150    499.776
 39.270    497.026    503.325     -6.299    499.561    502.948    499.561    499.939    499.561
 39.370    468.000    503.100    -35.100    499.348    502.719    499.348    499.729    499.348
 39.470    460.812    502.887    -42.074    499.137    502.503    499.137    499.521    499.137
 39.570    480.761    502.684    -21.923    498.928    502.297    498.928    499.315    498.928
 39.670    534.817    502.492     32.325    498.720    502.102    498.720    499.111    498.720
 39.770    481.000    502.311    -21.311    498.514    501.916    498.514    498.909    498.514
 39.870    474.857    502.138    -27.281    498.310    501.740    498.310    498.709    498.310
 39.970    487.000    501.976    -14.976    498.108    501.574    498.108    498.511    498.108
 40.070    493.000    501.824     -8.824    497.908    501.418    497.908    498.315    497.908
 40.170    493.000    501.683     -8.683    497.709    501.272    497.709    498.120    497.709
 40.270    487.000    501.553    -14.553    497.512    501.138    497.512    497.928    497.512
 40.370    519.000    501.435     17.565    497.317    501.015    497.317    497.737    497.317
 40.470    479.000    501.331    -22.331    497.124    500.907    497.124    497.549    497.124
 40.570    492.391    501.242     -8.851    496.933    500.813    496.933    497.362    496.933
 40.670    450.000    501.170    -51.170    496.743    500.737    496.743    497.178    496.743
 40.770    503.000    501.119      1.881    496.555    500.680    496.555    496.995    496.555
 40.870    498.000    501.090     -3.090    496.369    500.646    496.369    496.814    496.369
 40.970    481.260    501.090    -19.829    496.185    500.640    496.185    496.636    496.185
 41.070    472.457    501.122    -28.665    496.003    500.667    496.003    496.459    496.003
 41.170    473.000    501.195    -28.195    495.822    500.735    495.822    496.284    495.822
 41.270    499.000    501.319     -2.319    495.644    500.853    495.644    496.112    495.644
 41.370    477.000    501.508    -24.508    495.467    501.035    495.467    495.941    495.467
 41.470    516.000    501.780     14.220    495.292    501.301    495.292    495.773    495.292
 41.570    481.000    502.168    -21.168    495.119    501.683    495.119    495.606    495.119
 41.670    531.567    502.732     28.836    494.948    502.240    494.948    495.442    494.948
 41.770    475.000    503.598    -28.598    494.779    503.099    494.779    495.280    494.779
 41.870    493.000    505.049    -12.049    494.611    504.544    494.611    495.120    494.611
 41.970    512.000    507.673      4.327    494.446    507.161    494.446    494.962    494.446
 42.070    515.000    512.518      2.482    494.282    512.001    494.282    494.806    494.282
 42.170    511.000    521.106    -10.106    494.120    520.585    494.120    494.652    494.120
 42.270    541.760    535.023      6.737    493.960    534.500    493.960    494.500    493.960
 42.370    550.000    554.957     -4.957    493.802    554.435    493.802    494.351    493.802
 42.470    523.000    579.334    -56.334    493.645    578.817    493.645    494.204    493.645
 42.570    561.283    603.039    -41.756    493.491    602.526    493.491    494.059    493.491
 42.670    606.000    617.619    -11.619    493.338    617.106    493.338    493.916    493.338
 42.770    615.000    615.988     -0.988    493.188    615.468    493.188    493.775    493.188
 42.870    591.778    599.023     -7.245    493.039    598.485    493.039    493.637    493.039
 42.970    539.000    574.537    -35.537    492.892    573.976    492.892    493.501    492.892
 43.070    512.000    550.511    -38.511    492.747    549.924    492.747    493.367    492.747
 43.170    468.000    531.390    -63.390    492.604    530.780    492.604    493.236    492.604
 43.270    562.238    518.269     43.969    492.463    517.639    492.463    493.107    492.463
 43.370    524.346    510.228     14.118    492.323    509.580    492.323    492.980    492.323
 43.470    514.000    505.648      8.352    492.186    504.983    492.186    492.856    492.186
 43.570    511.000    503.079      7.921    492.050    502.399    492.050    492.734    492.050
 43.670    519.680    501.560     18.119    491.916    500.865    491.916    492.615    491.916
 43.770    459.000    500.568    -41.568    491.784    499.857    491.784    492.498    491.784
 43.870    475.000    499.853    -24.853    491.654    499.125    491.654    492.384    491.654
 43.970    461.000    499.303    -38.303    491.526    498.559    491.526    492.272    491.526
 44.070    519.000    498.865     20.135    491.400    498.103    491.400    492.163    491.400
 44.170    521.000    498.511     22.489    491.275    497.730    491.275    492.057    491.275
 44.270    539.000    498.221     40.779    491.153    497.421    491.153    491.954    491.153
 44.370    513.000    497.984     15.016    491.032    497.164    491.032    491.853    491.032
 44.470    456.486    497.790    -41.303    490.913    496.949    490.913    491.755    490.913
 44.570    547.000    497.632     49.368    490.796    496.769    490.796    491.660    490.796
 44.670    474.000    497.506    -23.506    490.681    496.620    490.681    491.569    490.681
 44.770    536.000    497.408     38.592    490.568    496.497    490.568    491.480    490.568
 44.870    475.729    497.336    -21.606    490.457    496.398    490.457    491.395    490.457
 44.970    525.892    497.286     28.605    490.347    496.321    490.347    491.313    490.347
 45.070    469.240    497.259    -28.019    490.240    496.264    490.240    491.234    490.240
 45.170    489.268    497.252     -7.984    490.134    496.227    490.134    491.160    490.134
 45.270    473.100    497.266    -24.166    490.030    496.208    490.030    491.089    490.030
 45.370    525.000    497.301     27.699    489.928    496.209    489.928    491.021    489.928
 45.470    492.872    497.358     -4.486    489.828    496.228    489.828    490.958    489.828
 45.570    514.247    497.436     16.811    489.730    496.266    489.730    490.900    489.730
 45.670    518.000    497.537     20.463    489.634    496.325    489.634    490.845    489.634
 45.770    543.000    497.663     45.337    489.539    496.406    489.539    490.796    489.539
 45.870    503.000    497.815      5.185    489.446    496.510    489.446    490.752    489.446
 45.970    469.000    497.998    -28.998    489.356    496.640    489.356    490.713    489.356
 46.070    500.000    498.213      1.787    489.266    496.799    489.266    490.680    489.266
 46.170    496.000    498.465     -2.465    489.179    496.990    489.179    490.654    489.179
 46.270    474.000    498.759    -24.759    489.094    497.219    489.094    490.634    489.094
 46.370    507.000    499.104      7.896    489.011    497.492    489.011    490.621    489.011
 46.470    543.000    499.507     43.493    488.929    497.819    488.929    490.616    488.929
 46.570    474.000    499.982    -25.982    488.849    498.210    488.849    490.621    488.849
 46.670    503.000    500.549      2.451    488.771    498.685    488.771    490.634    488.771
 46.770    528.422    501.244     27.178    488.695    499.278    488.695    490.659    488.695
 46.870    515.651    502.136     13.515    488.621    500.060    488.621    490.695    488.621
 46.970    505.893    503.373      2.520    488.548    501.174    488.548    490.745    488.548
 47.070    466.471    505.240    -38.769    488.477    502.905    488.477    490.809    488.477
 47.170    481.000    508.238    -27.238    488.408    505.751    488.408    490.890    488.408
 47.270    485.000    513.105    -28.105    488.341    510.447    488.341    490.991    488.341
 47.370    521.697    520.692      1.005    488.276    517.840    488.276    491.113    488.276
 47.470    508.211    531.615    -23.404    488.212    528.543    488.212    491.262    488.212
 47.570    549.000    545.717      3.283    488.151    542.395    488.151    491.441    488.151
 47.670    532.745    561.476    -28.731    488.091    557.867    488.091    491.657    488.091
 47.770    651.000    575.593     75.407    488.033    571.657    488.033    491.917    488.033
 47.870    538.154    583.538    -45.384    487.976    579.227    487.976    492.233    487.976
 47.970    611.899    582.278     29.621    487.922    577.530    487.922    492.618    487.922
 48.070    603.026    573.059     29.967    487.869    567.792    487.869    493.093    487.869
 48.170    559.773    560.143     -0.371    487.818    554.246    487.818    493.682    487.818
 48.270    567.693    547.635     20.057    487.769    540.961    487.769    494.420    487.769
 48.370    514.000    537.996    -23.996    487.721    530.353    487.721    495.349    487.721
 48.470    522.000    532.122    -10.122    487.675    523.266    487.675    496.522    487.675
 48.570    530.634    529.829      0.805    487.631    519.455    487.631    498.000    487.631
 48.670    515.000    530.473    -15.473    487.589    518.210    487.589    499.849    487.589
 48.770    504.000    533.396    -29.396    487.548    518.806    487.548    502.136    487.548
 48.870    570.000    538.164     31.836    487.509    520.751    487.509    504.920    487.509
 48.970    557.012    544.618     12.395    487.472    523.852    487.472    508.236    487.472
 49.070    518.567    552.892    -34.325    487.437    528.258    487.437    512.069    487.437
 49.170    599.868    563.585     36.283    487.403    534.666    487.403    516.321    487.403
 49.270    540.000    578.370    -38.370    487.371    544.985    487.371    520.752    487.371
 49.370    570.934    601.424    -30.490    487.341    563.824    487.341    524.933    487.341
 49.470    637.000    641.900     -4.900    487.312    600.944    487.312    528.249    487.312
 49.570    727.000    716.614     10.386    487.285    673.817    487.285    530.043    487.285
 49.670    875.000    850.179     24.821    487.260    807.481    487.260    529.887    487.260
 49.770   1036.038   1068.242    -32.204    487.237   1027.550    487.237    527.819    487.237
 49.870   1468.000   1381.512     86.488    487.215   1344.266    487.215    524.318    487.215
 49.970   1801.000   1765.159     35.841    487.195   1732.155    487.195    520.047    487.195
 50.070   2201.458   2145.402     56.056    487.176   2116.865    487.176    515.599    487.176
 50.170   2481.713   2408.903     72.810    487.159   2384.662    487.159    511.374    487.159
 50.270   2526.028   2451.720     74.308    487.144   2431.363    487.144    507.587    487.144
 50.370   2224.000   2253.226    -29.226    487.130   2236.202    487.130    504.324    487.130
 50.470   1956.587   1895.926     60.660    487.118   1881.654    487.118    501.589    487.118
 50.570   1439.754   1500.114    -60.360    487.108   1488.060    487.108    499.344    487.108
 50.670   1188.514   1157.862     30.653    487.099   1147.575    487.099    497.529    487.099
 50.770    852.000    911.270    -59.270    487.092    902.388    487.092    496.076    487.092
 50.870    761.000    759.539      1.461    487.086    751.778    487.086    494.918    487.086
 50.970    684.000    678.205      5.795    487.082    671.343    487.082    493.997    487.082
 51.070    646.000    637.883      8.117    487.080    631.746    487.080    493.261    487.080
 51.170    630.000    615.577     14.423    487.079    610.026    487.079    492.669    487.079
 51.270    648.000    598.529     49.471    487.080    593.454    487.080    492.187    487.080
 51.370    536.049    582.560    -46.511    487.082    577.877    487.082    491.793    487.082
 51.470    607.644    567.798     39.846    487.086    563.439    487.086    491.466    487.086
 51.570    533.451    555.282    -21.831    487.092    551.195    487.092    491.194    487.092
 51.670    545.000    545.653     -0.653    487.099    541.798    487.099    490.965    487.099
 51.770    508.381    538.947    -30.566    487.107    535.290    487.107    490.773    487.107
 51.870    537.127    534.773      2.354    487.117    531.285    487.117    490.611    487.117
 51.970    549.000    532.577     16.423    487.129    529.235    487.129    490.475    487.129
 52.070    562.000    531.872     30.128    487.142    528.655    487.142    490.362    487.142
 52.170    547.000    532.364     14.636    487.157    529.255    487.157    490.269    487.157
 52.270    541.000    534.005      6.995    487.173    530.988    487.173    490.194    487.173
 52.370    569.498    537.061     32.438    487.190    534.120    487.190    490.134    487.190
 52.470    535.154    542.271     -7.117    487.209    539.395    487.209    490.088    487.209
 52.570    575.000    551.163     23.837    487.230    548.340    487.230    490.055    487.230
 52.670    620.000    566.459     53.541    487.252    563.679    487.252    490.034    487.252
 52.770    608.000    592.369     15.631    487.275    589.622    487.275    490.024    487.275
 52.870    656.000    634.368     21.632    487.300    631.645    487.300    490.023    487.300
 52.970    728.930    697.973     30.957    487.326    695.267    487.326    490.033    487.326
 53.070    744.143    786.344    -42.201    487.354    783.648    487.354    490.052    487.354
 53.170    938.000    897.066     40.934    487.383    894.375    487.383    490.079    487.383
 53.270    988.000   1018.949    -30.949    487.414   1016.260    487.414    490.114    487.414
 53.370   1118.000   1130.040    -12.040    487.446   1127.350    487.446    490.158    487.446
 53.470   1233.020   1200.364     32.657    487.479   1197.669    487.479    490.209    487.479
 53.570   1151.000   1205.095    -54.095    487.514   1202.387    487.514    490.269    487.514
 53.670   1143.000   1142.412      0.588    487.550   1139.680    487.550    490.336    487.550
 53.770   1012.000   1035.177    -23.177    487.587   1032.404    487.587    490.411    487.587
 53.870    947.800    913.834     33.966    487.626    911.011    487.626    490.493    487.626
 53.970    729.000    801.663    -72.663    487.666    798.780    487.666    490.584    487.666
 54.070    711.928    711.082      0.847    487.707    708.132    487.707    490.682    487.707
 54.170    598.000    645.389    -47.389    487.750    642.368    487.750    490.789    487.750
 54.270    617.000    601.908     15.092    487.794    598.810    487.794    490.904    487.794
 54.370    595.000    575.241     19.759    487.840    572.061    487.840    491.028    487.840
 54.470    574.000    559.813     14.187    487.886    556.544    487.886    491.162    487.886
 54.570    539.000    551.228    -12.228    487.934    547.863    487.934    491.305    487.934
 54.670    509.919    546.593    -36.674    487.984    543.122    487.984    491.458    487.984
 54.770    523.278    544.247    -20.969    488.034    540.662    488.034    491.622    488.034
 54.870    506.251    543.341    -37.090    488.086    539.633    488.086    491.798    488.086
 54.970    587.000    543.481     43.519    488.139    539.637    488.139    491.986    488.139
 55.070    560.000    544.504     15.496    488.193    540.513    488.193    492.187    488.193
 55.170    561.000    546.367     14.633    488.249    542.216    488.249    492.403    488.249
 55.270    587.000    549.109     37.891    488.305    544.783    488.305    492.634    488.305
 55.370    593.000    552.834     40.166    488.363    548.318    488.363    492.882    488.363
 55.470    626.000    557.749     68.251    488.422    553.025    488.422    493.149    488.422
 55.570    527.217    564.265    -37.047    488.482    559.314    488.482    493.436    488.482
 55.670    572.000    573.217     -1.217    488.544    568.018    488.544    493.745    488.544
 55.770    583.000    586.327     -3.327    488.607    580.856    488.607    494.079    488.607
 55.870    627.496    606.994     20.502    488.670    601.223    488.670    494.441    488.670
 55.970    596.993    641.402    -44.409    488.735    635.301    488.735    494.833    488.735
 56.070    672.542    699.607    -27.066    488.801    693.140    488.801    495.260    488.801
 56.170    813.558    795.747     17.811    488.868    788.874    488.868    495.725    488.868
 56.270    916.000    946.152    -30.152    488.937    938.828    488.937    496.234    488.937
 56.370   1089.000   1164.363    -75.363    489.006   1156.542    489.006    496.792    489.006
 56.470   1488.031   1453.357     34.673    489.076   1444.990    489.076    497.408    489.076
 56.570   1762.000   1796.942    -34.942    489.148   1787.978    489.148    498.090    489.148
 56.670   2201.638   2153.172     48.466    489.220   2143.558    489.220    498.848    489.220
 56.770   2363.741   2453.571    -89.831    489.294   2443.243    489.294    499.698    489.294
 56.870   2628.000   2617.516     10.484    489.369   2606.384    489.369    500.657    489.369
 56.970   2634.226   2591.101     43.125    489.445   2579.031    489.445    501.750    489.445
 57.070   2333.000   2384.825    -51.825    489.521   2371.619    489.521    503.008    489.521
 57.170   2017.412   2064.925    -47.513    489.599   2050.334    489.599    504.476    489.599
 57.270   1721.000   1710.934     10.066    489.678   1694.656    489.678    506.210    489.678
 57.370   1418.000   1384.334     33.666    489.757   1366.011    489.757    508.285    489.757
 57.470   1178.668   1119.612     59.056    489.838   1098.802    489.838    510.800    489.838
 57.570    965.000    927.103     37.897    489.920    903.252    489.920    513.876    489.920
 57.670    808.000    800.515      7.485    490.003    772.928    490.003    517.657    490.003
 57.770    699.934    725.700    -25.766    490.086    693.515    490.086    522.313    490.086
 57.870    647.743    687.948    -40.205    490.171    650.115    490.171    528.027    490.171
 57.970    637.108    676.221    -39.113    490.256    631.500    490.256    534.989    490.256
 58.070    702.433    684.404     18.029    490.342    631.374    490.342    543.374    490.342
 58.170    685.804    710.505    -24.701    490.430    647.607    490.430    553.320    490.430
 58.270    735.000    754.860    -19.860    490.518    680.467    490.518    564.893    490.518
 58.370    785.000    818.034    -33.034    490.607    730.582    490.607    578.033    490.607
 58.470    859.000    898.887    -39.887    490.697    797.077    490.697    592.476    490.697
 58.570   1049.463    993.046     56.418    490.787    876.161    490.787    607.640    490.787
 58.670   1103.000   1092.301     10.699    490.879    960.647    490.879    622.508    490.879
 58.770   1205.000   1185.947     19.053    490.971   1041.333    490.971    635.573    490.971
 58.870   1294.000   1263.903     30.097    491.065   1109.964    491.065    645.008    491.065
 58.970   1302.000   1318.324    -16.324    491.159   1160.338    491.159    649.167    491.159
 59.070   1369.000   1342.645     26.355    491.253   1186.694    491.253    647.244    491.253
 59.170   1358.000   1333.201     24.799    491.349   1184.944    491.349    639.657    491.349
 59.270   1275.134   1294.173    -19.039    491.445   1157.830    491.445    627.839    491.445
 59.370   1321.000   1238.436     82.564    491.542   1116.397    491.542    613.618    491.542
 59.470   1251.000   1181.901     69.099    491.640   1074.917    491.640    598.635    491.640
 59.570   1151.000   1138.813     12.187    491.739   1046.453    491.739    584.073    491.739
 59.670   1173.000   1121.589     51.411    491.838   1042.705    491.838    570.652    491.838
 59.770   1200.000   1140.373     59.627    491.938   1073.459    491.938    558.733    491.938
 59.870   1307.000   1198.919    108.081    492.039   1142.351    492.039    548.436    492.039
 59.970   1311.448   1290.110     21.338    492.140   1242.296    492.140    539.735    492.140
 60.070   1461.000   1394.473     66.527    492.242   1353.950    492.242    532.512    492.242
 60.170   1514.000   1482.187     31.813    492.345   1447.664    492.345    526.603    492.345
 60.270   1608.000   1520.589     87.411    492.449   1490.969    492.449    521.823    492.449
 60.370   1432.516   1488.725    -56.209    492.553   1463.091    492.553    517.986    492.553
 60.470   1431.108   1389.730     41.378    492.657   1367.325    492.657    514.918    492.657
 60.570   1186.556   1247.228    -60.672    492.763   1227.429    492.763    512.468    492.763
 60.670   1061.195   1090.858    -29.663    492.868   1073.166    492.868    510.508    492.868
 60.770    932.000    945.068    -13.068    492.975    929.083    492.975    508.934    492.975
 60.870    773.700    824.955    -51.255    493.082    810.359    493.082    507.667    493.082
 60.970    781.600    736.473     45.127    493.190    723.013    493.190    506.643    493.190
 61.070    678.000    678.952     -0.952    493.298    666.425    493.298    505.818    493.298
 61.170    637.749    648.620    -10.871    493.406    636.860    493.406    505.154    493.406
 61.270    643.000    641.854      1.146    493.516    630.725    493.516    504.625    493.516
 61.370    627.000    657.220    -30.220    493.625    646.608    493.625    504.205    493.625
 61.470    736.000    695.875     40.125    493.735    685.689    493.735    503.873    493.735
 61.570    766.000    760.403      5.597    493.846    750.576    493.846    503.603    493.846
 61.670    890.000    852.454     37.546    493.957    842.947    493.957    503.369    493.957
 61.770    957.000    969.844    -12.844    494.069    960.648    494.069    503.143    494.069
 61.870   1097.000   1103.967     -6.967    494.181   1095.103    494.181    502.900    494.181
 61.970   1298.916   1238.336     60.579    494.294   1229.846    494.294    502.624    494.294
 62.070   1311.000   1349.224    -38.224    494.407   1341.160    494.407    502.314    494.407
 62.170   1310.000   1410.602   -100.602    494.520   1403.009    494.520    501.979    494.520
 62.270   1371.398   1404.953    -33.556    494.634   1397.854    494.634    501.635    494.634
 62.370   1368.000   1333.642     34.358    494.748   1327.032    494.748    501.299    494.748
 62.470   1133.000   1215.931    -82.931    494.862   1209.785    494.862    500.984    494.862
 62.570   1053.000   1077.907    -24.907    494.977   1072.185    494.977    500.697    494.977
 62.670    885.000    942.390    -57.390    495.093    937.049    495.093    500.443    495.093
 62.770    772.243    824.634    -52.391    495.208    819.631    495.208    500.224    495.208
 62.870    641.000    731.900    -90.900    495.324    727.198    495.324    500.039    495.324
 62.970    686.474    664.897     21.577    495.440    660.461    495.440    499.886    495.440
 63.070    590.000    620.125    -30.125    495.557    615.925    495.557    499.761    495.557
 63.170    548.314    592.334    -44.020    495.674    588.345    495.674    499.664    495.674
 63.270    602.000    576.421     25.579    495.791    572.620    495.791    499.590    495.791
 63.370    608.000    568.501     39.499    495.908    564.868    495.908    499.536    495.908
 63.470    611.000    566.258     44.742    496.026    562.776    496.026    499.501    496.026
 63.570    599.702    568.891     30.812    496.144    565.544    496.144    499.481    496.144
 63.670    572.000    576.867     -4.867    496.262    573.641    496.262    499.474    496.262
 63.770    550.000    591.624    -41.624    496.380    588.504    496.380    499.479    496.380
 63.870    597.000    615.158    -18.158    496.498    612.132    496.498    499.495    496.498
 63.970    653.000    649.454      3.546    496.617    646.510    496.617    499.519    496.617
 64.070    755.000    695.712     59.288    496.736    692.839    496.736    499.551    496.736
 64.170    764.000    753.456     10.544    496.855    750.645    496.855    499.590    496.855
 64.270    852.585    819.682     32.903    496.974    816.927    496.974    499.636    496.974
 64.370    909.000    888.239     20.761    497.093    885.538    497.093    499.687    497.093
 64.470    897.239    949.886    -52.647    497.213    947.241    497.213    499.743    497.213
 64.570   1020.354    993.986     26.368    497.332    991.401    497.332    499.805    497.332
 64.670   1094.000   1012.304     81.696    497.452   1009.786    497.452    499.871    497.452
 64.770   1040.000   1002.551     37.449    497.571   1000.104    497.571    499.941    497.571
 64.870    937.666    968.641    -30.975    497.691    966.265    497.691    500.015    497.691
 64.970    921.775    918.412      3.363    497.811    916.103    497.811    500.092    497.811
 65.070    865.000    860.919      4.081    497.931    858.670    497.931    500.173    497.931
 65.170    788.000    803.907    -15.907    498.051    801.711    498.051    500.257    498.051
 65.270    762.000    752.228      9.772    498.171    750.077    498.171    500.345    498.171
 65.370    691.715    707.807    -16.092    498.291    705.691    498.291    500.435    498.291
 65.470    603.000    670.778    -67.778    498.411    668.690    498.411    500.528    498.411
 65.570    606.000    640.680    -34.680    498.530    638.614    498.530    500.624    498.530
 65.670    622.000    616.904      5.096    498.650    614.854    498.650    500.722    498.650
 65.770    574.000    598.687    -24.687    498.770    596.651    498.770    500.823    498.770
 65.870    591.206    585.180      6.026    498.890    583.156    498.890    500.926    498.890
 65.970    567.000    575.573     -8.573    499.010    573.559    499.010    501.031    499.010
 66.070    604.000    569.166     34.834    499.129    567.161    499.129    501.139    499.129
 66.170    571.000    565.391      5.609    499.249    563.394    499.249    501.249    499.249
 66.270    507.000    563.798    -56.798    499.368    561.808    499.368    501.361    499.368
 66.370    570.000    564.062      5.938    499.487    562.077    499.487    501.475    499.487
 66.470    583.641    566.023     17.617    499.606    564.042    499.606    501.591    499.606
 66.570    576.000    569.759      6.241    499.725    567.778    499.725    501.709    499.725
 66.670    544.844    575.713    -30.870    499.844    573.731    499.844    501.830    499.844
 66.770    559.000    584.904    -25.904    499.963    582.918    499.963    501.952    499.963
 66.870    621.000    599.234     21.766    500.081    597.241    500.081    502.077    500.081
 66.970    606.000    621.878    -15.878    500.200    619.876    500.200    502.204    500.200
 67.070    692.507    657.654     34.853    500.318    655.640    500.318    502.333    500.318
 67.170    744.240    713.160     31.079    500.436    711.130    500.436    502.464    500.436
 67.270    758.000    796.378    -38.378    500.553    794.329    500.553    502.597    500.553
 67.370    915.000    915.467     -0.467    500.671    913.400    500.671    502.733    500.671
 67.470   1084.000   1076.630      7.370    500.788   1074.547    500.788    502.872    500.788
 67.570   1342.000   1281.268     60.732    500.905   1279.175    500.905    503.013    500.905
 67.670   1583.000   1523.034     59.966    501.021   1520.939    501.021    503.156    501.021
 67.770   1793.000   1785.497      7.503    501.138   1783.411    501.138    503.303    501.138
 67.870   2049.000   2041.129      7.871    501.254   2039.065    501.254    503.452    501.254
 67.970   2373.000   2252.774    120.226    501.369   2250.740    501.369    503.605    501.369
 68.070   2406.882   2380.310     26.573    501.484   2378.308    501.484    503.761    501.484
 68.170   2443.000   2394.514     48.486    501.599   2392.530    501.599    503.921    501.599
 68.270   2325.000   2291.795     33.205    501.714   2289.797    501.714    504.084    501.714
 68.370   2183.561   2096.409     87.152    501.828   2094.359    501.828    504.252    501.828
 68.470   1818.044   1847.570    -29.526    501.942   1845.435    501.942    504.424    501.942
 68.570   1570.159   1584.106    -13.947    502.056   1581.862    502.056    504.601    502.056
 68.670   1354.341   1336.059     18.282    502.169   1333.691    502.169    504.783    502.169
 68.770   1126.000   1122.386      3.614    502.281   1119.887    502.281    504.970    502.281
 68.870    861.000    951.579    -90.579    502.393    948.948    502.393    505.164    502.393
 68.970    826.000    823.755      2.245    502.505    820.995    502.505    505.365    502.505
 69.070    793.000    733.531     59.469    502.616    730.643    502.616    505.573    502.616
 69.170    629.627    672.952    -43.324    502.727    669.936    502.727    505.789    502.727
 69.270    611.000    633.829    -22.829    502.838    630.684    502.838    506.014    502.838
 69.370    580.000    609.166    -29.166    502.948    605.885    502.948    506.249    502.948
 69.470    548.000    593.706    -45.706    503.057    590.283    503.057    506.496    503.057
 69.570    595.000    583.890     11.110    503.166    580.313    503.166    506.754    503.166
 69.670    575.000    577.497     -2.497    503.274    573.754    503.274    507.026    503.274
 69.770    584.069    573.242     10.827    503.382    569.317    503.382    507.314    503.382
 69.870    528.641    570.418    -41.777    503.489    566.294    503.489    507.619    503.489
 69.970    585.000    568.659     16.341    503.596    564.316    503.596    507.944    503.596
 70.070    597.000    567.789     29.211    503.702    563.204    503.702    508.290    503.702
 70.170    547.000    567.747    -20.747    503.807    562.894    503.807    508.662    503.807
 70.270    563.000    568.562     -5.562    503.912    563.411    503.912    509.064    503.912
 70.370    615.517    570.368     45.149    504.016    564.885    504.016    509.499    504.016
 70.470    541.000    573.463    -32.463    504.120    567.606    504.120    509.975    504.120
 70.570    563.000    578.402    -15.402    504.223    572.122    504.223    510.500    504.223
 70.670    599.000    586.158     12.842    504.325    579.394    504.325    511.083    504.325
 70.770    638.000    598.314     39.686    504.427    590.990    504.427    511.740    504.427
 70.870    585.000    617.276    -32.276    504.528    609.295    504.528    512.491    504.528
 70.970    667.054    646.416     20.638    504.628    637.654    504.628    513.363    504.628
 71.070    677.000    690.031    -13.031    504.728    680.327    504.728    514.393    504.728
 71.170    724.000    752.976    -28.976    504.827    742.118    504.827    515.629    504.827
 71.270    813.000    839.865    -26.865    504.925    827.579    504.925    517.135    504.925
 71.370   1013.286    953.846     59.440    505.022    939.778    505.022    518.991    505.022
 71.470   1101.000   1095.096      5.904    505.119   1078.798    505.119    521.294    505.119
 71.570   1227.947   1259.362    -31.414    505.215   1240.274    505.215    524.158    505.215
 71.670   1437.767   1436.851      0.916    505.310   1414.292    505.310    527.708    505.310
 71.770   1605.000   1611.759     -6.759    505.405   1584.926    505.405    532.072    505.405
 71.870   1747.000   1762.871    -15.871    505.498   1730.840    505.498    537.372    505.498
 71.970   1879.000   1866.458     12.542    505.591   1828.210    505.591    543.705    505.591
 72.070   1954.630   1902.983     51.648    505.683   1857.440    505.683    551.125    505.683
 72.170   1925.000   1865.781     59.219    505.775   1811.871    505.775    559.620    505.775
 72.270   1726.000   1764.729    -38.729    505.865   1701.481    505.865    569.081    505.865
 72.370   1550.000   1620.926    -70.926    505.955   1547.608    505.955    579.266    505.955
 72.470   1490.000   1457.762     32.238    506.043   1374.059    506.043    589.756    506.043
 72.570   1260.911   1294.909    -33.998    506.131   1201.148    506.131    599.912    506.131
 72.670   1115.000   1146.077    -31.077    506.218   1043.455    506.218    608.864    506.218
 72.770   1074.000   1018.839     55.161    506.304    909.571    506.304    615.596    506.304
 72.870    864.000    915.499    -51.499    506.389    802.744    506.389    619.166    506.389
 72.970    825.000    834.610     -9.610    506.474    722.094    506.474    619.009    506.474
 73.070    758.000    772.702    -14.702    506.557    664.108    506.557    615.167    506.557
 73.170    772.080    725.726     46.354    506.639    624.111    506.639    608.267    506.639
 73.270    736.662    689.940     46.722    506.721    597.394    506.721    599.278    506.721
 73.370    686.000    662.311     23.689    506.801    579.918    506.801    589.204    506.801
 73.470    634.432    640.603     -6.171    506.881    568.606    506.881    578.887    506.881
 73.570    639.791    623.297     16.494    506.960    561.329    506.960    568.937    506.960
 73.670    622.000    609.437     12.563    507.037    556.735    507.037    559.749    507.037
 73.770    571.000    598.446    -27.446    507.114    554.026    507.114    551.546    507.114
 73.870    585.868    589.967     -4.099    507.190    552.748    507.190    544.423    507.190
 73.970    596.336    583.729     12.606    507.264    552.628    507.264    538.384    507.264
 74.070    571.000    579.460     -8.460    507.338    553.453    507.338    533.367    507.338
 74.170    577.000    576.825      0.175    507.410    554.992    507.410    529.271    507.410
 74.270    604.514    575.405     29.109    507.482    556.947    507.482    525.973    507.482
 74.370    573.258    574.693     -1.435    507.552    558.939    507.552    523.345    507.552
 74.470    628.000    574.115     53.885    507.622    560.517    507.622    521.263    507.622
 74.570    644.000    573.110     70.890    507.690    561.232    507.690    519.614    507.690
 74.670    565.917    571.263     -5.346    507.757    560.762    507.757    518.305    507.757
 74.770    575.840    568.443      7.397    507.823    559.056    507.823    517.256    507.823
 74.870    593.000    564.843     28.157    507.889    556.367    507.889    516.406    507.889
 74.970    624.000    560.873     63.127    507.952    553.153    507.952    515.709    507.952
 75.070    518.646    557.026    -38.380    508.015    549.944    508.015    515.128    508.015
 75.170    553.687    553.801     -0.113    508.077    547.264    508.077    514.637    508.077
 75.270    553.000    551.676      1.324    508.138    545.613    508.138    514.217    508.138
 75.370    596.000    551.127     44.873    508.197    545.479    508.197    513.855    508.197
 75.470    534.002    552.634    -18.632    508.255    547.354    508.255    513.539    508.255
 75.570    577.950    556.677     21.273    508.312    551.724    508.312    513.262    508.312
 75.670    550.000    563.708    -13.708    508.368    559.049    508.368    513.018    508.368
 75.770    528.530    574.080    -45.550    508.423    569.685    508.423    512.802    508.423
 75.870    573.295    587.939    -14.644    508.476    583.783    508.476    512.610    508.476
 75.970    609.000    605.101      3.899    508.529    601.160    508.529    512.440    508.529
 76.070    667.000    624.927     42.073    508.580    621.182    508.580    512.287    508.580
 76.170    688.854    646.236     42.618    508.630    642.669    508.630    512.151    508.630
 76.270    647.000    667.264    -20.264    508.678    663.861    508.678    512.029    508.678
 76.370    643.895    685.720    -41.825    508.726    682.469    508.726    511.920    508.726
 76.470    715.378    699.030     16.348    508.772    695.922    508.772    511.822    508.772
 76.570    697.281    704.915     -7.634    508.816    701.941    508.816    511.734    508.816
 76.670    740.000    702.203     37.797    508.860    699.357    508.860    511.654    508.860
 76.770    740.643    691.357     49.287    508.902    688.631    508.902    511.583    508.902
 76.870    638.725    674.238    -35.514    508.943    671.626    508.943    511.519    508.943
 76.970    606.206    653.353    -47.146    508.983    650.846    508.983    511.460    508.983
 77.070    599.561    631.136    -31.575    509.022    628.728    509.022    511.408    509.022
 77.170    622.825    609.572     13.252    509.059    607.255    509.059    511.360    509.059
 77.270    556.000    590.062    -34.062    509.095    587.828    509.095    511.317    509.095
 77.370    538.000    573.420    -35.420    509.129    571.264    509.129    511.278    509.129
 77.470    526.698    559.946    -33.248    509.162    557.861    509.162    511.242    509.162
 77.570    507.938    549.537    -41.599    509.194    547.518    509.194    511.209    509.194
 77.670    531.000    541.825    -10.825    509.224    539.867    509.224    511.180    509.224
 77.770    517.000    536.312    -19.312    509.254    534.412    509.254    511.152    509.254
 77.870    530.000    532.482     -2.482    509.281    530.635    509.281    511.127    509.281
 77.970    490.754    529.870    -39.116    509.308    528.073    509.308    511.104    509.308
 78.070    525.000    528.103     -3.103    509.333    526.353    509.333    511.082    509.333
 78.170    518.000    526.903     -8.903    509.356    525.196    509.356    511.063    509.356
 78.270    501.000    526.079    -25.079    509.378    524.413    509.378    511.044    509.378
 78.370    488.691    525.507    -36.816    509.399    523.879    509.399    511.027    509.399
 78.470    508.000    525.115    -17.115    509.419    523.522    509.419    511.011    509.419
 78.570    514.000    524.864    -10.864    509.437    523.304    509.437    510.996    509.437
 78.670    486.000    524.740    -38.740    509.453    523.210    509.453    510.982    509.453
 78.770    475.000    524.744    -49.744    509.468    523.242    509.468    510.969    509.468
 78.870    514.000    524.888    -10.888    509.482    523.412    509.482    510.958    509.482
 78.970    531.000    525.194      5.806    509.494    523.740    509.494    510.947    509.494
 79.070    542.535    525.685     16.850    509.505    524.251    509.505    510.937    509.505
 79.170    567.123    526.376     40.747    509.514    524.960    509.514    510.929    509.514
 79.270    500.000    527.299    -27.299    509.522    525.897    509.522    510.922    509.522
 79.370    533.872    528.528      5.345    509.528    527.137    509.528    510.917    509.528
 79.470    539.978    530.070      9.909    509.533    528.687    509.533    510.913    509.533
 79.570    499.000    531.965    -32.965    509.537    530.587    509.537    510.911    509.537
 79.670    571.179    534.275     36.904    509.539    532.899    509.539    510.911    509.539
 79.770    540.757    537.093      3.664    509.539    535.716    509.539    510.912    509.539
 79.870    506.192    540.557    -34.365    509.538    539.176    509.538    510.914    509.538
 79.970    543.000    544.872     -1.872    509.535    543.485    509.535    510.917    509.535
 80.070    567.000    550.327     16.673    509.531    548.933    509.531    510.922    509.531
 80.170    514.853    557.300    -42.447    509.525    555.897    509.525    510.926    509.525
 80.270    582.000    566.224     15.776    509.518    564.813    509.518    510.929    509.518
 80.370    503.000    577.503    -74.503    509.510    576.086    509.510    510.929    509.510
 80.470    583.664    591.405     -7.741    509.499    589.984    509.499    510.926    509.499
 80.570    578.107    607.958    -29.851    509.488    606.538    509.488    510.917    509.488
 80.670    625.000    626.872     -1.872    509.474    625.461    509.474    510.901    509.474
 80.770    643.000    647.498     -4.498    509.459    646.102    509.459    510.876    509.459
 80.870    662.661    668.839     -6.178    509.443    667.466    509.443    510.843    509.443
 80.970    685.000    689.652     -4.652    509.425    688.309    509.425    510.802    509.425
 81.070    721.000    708.618     12.382    509.405    707.310    509.405    510.755    509.405
 81.170    664.000    724.515    -60.515    509.384    723.246    509.384    510.702    509.384
 81.270    773.000    736.334     36.666    509.361    735.105    509.361    510.646    509.361
 81.370    729.000    743.351    -14.351    509.337    742.161    509.337    510.588    509.337
 81.470    729.000    745.205    -16.205    509.311    744.054    509.311    510.529    509.311
 81.570    775.296    741.924     33.371    509.283    740.808    509.283    510.470    509.283
 81.670    698.000    733.878    -35.878    509.254    732.793    509.254    510.411    509.254
 81.770    725.000    721.749      3.251    509.224    720.692    509.224    510.354    509.224
 81.870    733.502    706.529     26.973    509.191    705.496    509.191    510.297    509.191
 81.970    655.000    689.418    -34.418    509.157    688.405    509.157    510.240    509.157
 82.070    648.358    671.587    -23.229    509.122    670.590    509.122    510.185    509.122
 82.170    684.000    653.950     30.050    509.085    652.966    509.085    510.130    509.085
 82.270    596.000    637.071    -41.071    509.046    636.098    509.046    510.076    509.046
 82.370    647.000    621.233     25.767    509.005    620.269    509.005    510.022    509.005
 82.470    635.736    606.593     29.143    508.963    605.634    508.963    509.968    508.963
 82.570    597.000    593.303      3.697    508.920    592.349    508.920    509.915    508.920
 82.670    625.535    581.548     43.987    508.874    580.597    508.874    509.860    508.874
 82.770    580.000    571.517      8.483    508.827    570.566    508.827    509.806    508.827
 82.870    546.000    563.362    -17.362    508.779    562.411    508.779    509.751    508.779
 82.970    555.000    557.188     -2.188    508.728    556.235    508.728    509.695    508.728
 83.070    562.000    553.040      8.960    508.676    552.085    508.676    509.638    508.676
 83.170    564.000    550.897     13.103    508.623    549.939    508.623    509.581    508.623
 83.270    574.403    550.655     23.747    508.568    549.693    508.568    509.522    508.568
 83.370    546.000    552.115     -6.115    508.511    551.148    508.511    509.462    508.511
 83.470    541.000    554.974    -13.974    508.452    554.002    508.452    509.401    508.452
 83.570    543.014    558.824    -15.810    508.392    557.848    508.392    509.339    508.392
 83.670    537.000    563.162    -26.162    508.330    562.181    508.330    509.276    508.330
 83.770    544.000    567.408    -23.408    508.267    566.424    508.267    509.211    508.267
 83.870    563.000    570.947     -7.947    508.201    569.960    508.201    509.145    508.201
 83.970    553.000    573.192    -20.192    508.134    572.204    508.134    509.078    508.134
 84.070    612.936    573.704     39.232    508.066    572.716    508.066    509.010    508.066
 84.170    591.000    572.301     18.699    507.996    571.314    507.996    508.940    507.996
 84.270    514.000    569.111    -55.111    507.924    568.127    507.924    508.869    507.924
 84.370    547.000    564.510    -17.510    507.850    563.529    507.850    508.797    507.850
 84.470    504.000    558.994    -54.994    507.775    558.017    507.775    508.723    507.775
 84.570    534.230    553.070    -18.840    507.698    552.095    507.698    508.648    507.698
 84.670    545.000    547.178     -2.178    507.619    546.206    507.619    508.571    507.619
 84.770    512.884    541.668    -28.784    507.539    540.697    507.539    508.494    507.539
 84.870    494.182    536.778    -42.596    507.457    535.808    507.457    508.414    507.457
 84.970    555.641    532.644     22.998    507.373    531.673    507.373    508.334    507.373
 85.070    513.772    529.307    -15.535    507.288    528.335    507.288    508.252    507.288
 85.170    586.000    526.740     59.260    507.201    525.765    507.201    508.169    507.201
 85.270    516.000    524.868     -8.868    507.112    523.890    507.112    508.084    507.112
 85.370    532.000    523.597      8.403    507.021    522.615    507.021    507.999    507.021
 85.470    493.892    522.835    -28.943    506.929    521.848    506.929    507.911    506.929
 85.570    535.095    522.507     12.588    506.835    521.515    506.835    507.823    506.835
 85.670    543.000    522.571     20.429    506.740    521.572    506.740    507.733    506.740
 85.770    497.938    523.017    -25.079    506.643    522.012    506.643    507.642    506.643
 85.870    547.000    523.881     23.119    506.544    522.867    506.544    507.549    506.544
 85.970    561.442    525.237     36.206    506.443    524.214    506.443    507.456    506.443
 86.070    533.000    527.196      5.804    506.341    526.163    506.341    507.361    506.341
 86.170    560.000    529.904     30.096    506.237    528.860    506.237    507.264    506.237
 86.270    482.000    533.527    -51.527    506.131    532.471    506.131    507.167    506.131
 86.370    562.000    538.231     23.769    506.024    537.160    506.024    507.068    506.024
 86.470    547.000    544.159      2.841    505.915    543.072    505.915    506.968    505.915
 86.570    508.000    551.399    -43.399    505.804    550.295    505.804    506.866    505.804
 86.670    550.000    559.954     -9.954    505.692    558.830    505.692    506.764    505.692
 86.770    597.000    569.703     27.297    505.577    568.558    505.577    506.660    505.577
 86.870    621.000    580.378     40.622    505.462    579.210    505.462    506.556    505.462
 86.970    617.000    591.542     25.458    505.344    590.352    505.344    506.450    505.344
 87.070    591.010    602.592    -11.582    505.225    601.380    505.225    506.342    505.225
 87.170    607.990    612.768     -4.778    505.104    611.534    505.104    506.234    505.104
 87.270    614.564    621.209     -6.645    504.982    619.956    504.982    506.125    504.982
 87.370    600.388    627.070    -26.682    504.858    625.801    504.858    506.015    504.858
 87.470    657.000    629.705     27.295    504.732    628.423    504.732    505.904    504.732
 87.570    644.000    628.857     15.143    504.604    627.565    504.604    505.792    504.604
 87.670    588.454    624.742    -36.288    504.475    623.443    504.475    505.679    504.475
 87.770    594.000    617.975    -23.975    504.344    616.671    504.344    505.565    504.344
 87.870    598.000    609.402    -11.402    504.212    608.092    504.212    505.450    504.212
 87.970    634.000    599.938     34.062    504.078    598.623    504.078    505.334    504.078
 88.070    591.000    590.462      0.538    503.942    589.139    503.942    505.218    503.942
 88.170    623.127    581.748     41.379    503.804    580.417    503.804    505.101    503.804
 88.270    587.609    574.425     13.184    503.665    573.083    503.665    504.984    503.665
 88.370    565.000    568.947     -3.947    503.525    567.592    503.525    504.866    503.525
 88.470    598.000    565.582     32.418    503.382    564.212    503.382    504.747    503.382
 88.570    609.408    564.412     44.997    503.238    563.025    503.238    504.628    503.238
 88.670    597.000    565.341     31.659    503.092    563.936    503.092    504.509    503.092
 88.770    523.906    568.111    -44.205    502.945    566.687    502.945    504.390    502.945
 88.870    535.201    572.325    -37.124    502.796    570.879    502.796    504.271    502.796
 88.970    590.000    577.464     12.536    502.646    575.994    502.646    504.152    502.646
 89.070    598.904    582.919     15.985    502.494    581.424    502.494    504.033    502.494
 89.170    572.000    588.021    -16.021    502.340    586.498    502.340    503.914    502.340
 89.270    634.000    592.092     41.908    502.184    590.537    502.184    503.796    502.184
 89.370    633.000    594.524     38.476    502.028    592.934    502.028    503.678    502.028
 89.470    581.000    594.889    -13.889    501.869    593.260    501.869    503.562    501.869
 89.570    577.000    593.032    -16.032    501.709    591.359    501.709    503.446    501.709
 89.670    582.892    589.094     -6.202    501.547    587.372    501.547    503.332    501.547
 89.770    567.000    583.474    -16.474    501.384    581.697    501.384    503.220    501.384
 89.870    617.496    576.706     40.790    501.219    574.869    501.219    503.110    501.219
 89.970    588.871    569.319     19.552    501.052    567.417    501.052    503.003    501.052
 90.070    566.000    561.804      4.196    500.884    559.832    500.884    502.898    500.884
 90.170    545.761    554.571     -8.810    500.715    552.523    500.715    502.798    500.715
 90.270    518.000    547.929    -29.929    500.544    545.800    500.544    502.702    500.544
 90.370    556.000    542.087     13.913    500.371    539.868    500.371    502.613    500.371
 90.470    534.000    537.153     -3.153    500.197    534.837    500.197    502.530    500.197
 90.570    541.000    533.156      7.844    500.021    530.733    500.021    502.457    500.021
 90.670    511.339    530.061    -18.722    499.844    527.521    499.844    502.394    499.844
 90.770    496.000    527.793    -31.793    499.665    525.120    499.665    502.344    499.665
 90.870    509.155    526.256    -17.101    499.485    523.435    499.485    502.310    499.485
 90.970    522.000    525.356     -3.356    499.303    522.365    499.303    502.296    499.303
 91.070    460.000    525.013    -65.013    499.119    521.830    499.119    502.304    499.119
 91.170    528.806    525.177      3.629    498.935    521.771    498.935    502.340    498.935
 91.270    548.000    525.829     22.171    498.748    522.168    498.748    502.408    498.748
 91.370    544.000    526.992     17.008    498.560    523.036    498.560    502.515    498.560
 91.470    521.000    528.731     -7.731    498.371    524.434    498.371    502.664    498.371
 91.570    541.000    531.148      9.852    498.181    526.459    498.181    502.864    498.181
 91.670    519.000    534.388    -15.388    497.988    529.249    497.988    503.120    497.988
 91.770    519.694    538.625    -18.931    497.795    532.971    497.795    503.439    497.795
 91.870    581.198    544.055     37.143    497.600    537.817    497.600    503.825    497.600
 91.970    560.627    550.885      9.743    497.403    543.987    497.403    504.285    497.403
 92.070    583.000    559.309     23.691    497.205    551.673    497.205    504.822    497.205
 92.170    571.000    569.493      1.507    497.006    561.037    497.006    505.438    497.006
 92.270    577.000    581.546     -4.546    496.806    572.188    496.806    506.133    496.806
 92.370    609.214    595.499     13.715    496.603    585.161    496.603    506.905    496.603
 92.470    628.000    611.284     16.716    496.400    599.893    496.400    507.749    496.400
 92.570    619.000    628.713     -9.713    496.195    616.205    496.195    508.655    496.195
 92.670    642.000    647.465     -5.465    495.989    633.793    495.989    509.607    495.989
 92.770    636.000    667.090    -31.090    495.782    652.227    495.782    510.584    495.782
 92.870    659.163    687.001    -27.838    495.573    670.950    495.573    511.558    495.573
 92.970    689.688    706.528    -16.840    495.363    689.330    495.363    512.492    495.363
 93.070    763.546    725.002     38.544    495.151    706.742    495.151    513.340    495.151
 93.170    779.000    741.874     37.126    494.938    722.688    494.938    514.052    494.938
 93.270    755.488    756.818     -1.330    494.724    736.896    494.724    514.574    494.724
 93.370    797.837    769.749     28.087    494.509    749.328    494.509    514.859    494.509
 93.470    751.000    780.888    -29.888    494.292    760.239    494.292    514.872    494.292
 93.570    764.000    790.518    -26.518    494.074    769.930    494.074    514.595    494.074
 93.670    818.000    798.921     19.079    493.855    778.674    493.855    514.037    493.855
 93.770    798.000    806.407     -8.407    493.635    786.754    493.635    513.226    493.635
 93.870    757.499    813.335    -55.836    493.413    794.484    493.413    512.205    493.413
 93.970    861.000    820.148     40.852    493.190    802.255    493.190    511.026    493.190
 94.070    881.075    827.339     53.737    492.966    810.508    492.966    509.743    492.966
 94.170    849.000    835.319     13.681    492.741    819.606    492.741    508.402    492.741
 94.270    868.000    844.258     23.742    492.514    829.678    492.514    507.044    492.514
 94.370    921.000    853.943     67.057    492.287    840.482    492.287    505.701    492.287
 94.470    869.424    863.747      5.678    492.058    851.363    492.058    504.398    492.058
 94.570    886.000    872.656     13.344    491.828    861.293    491.828    503.153    491.828
 94.670    858.000    879.360    -21.360    491.597    868.949    491.597    501.977    491.597
 94.770    934.000    882.456     51.544    491.365    872.919    491.365    500.877    491.365
 94.870    875.000    880.698     -5.698    491.131    871.955    491.131    499.858    491.131
 94.970    871.720    873.287     -1.567    490.897    865.256    490.897    498.920    490.897
 95.070    849.118    860.097    -10.979    490.662    852.695    490.662    498.062    490.662
 95.170    919.000    841.731     77.269    490.425    834.880    490.425    497.281    490.425
 95.270    826.835    819.403      7.432    490.188    813.027    490.188    496.573    490.188
 95.370    825.000    794.717     30.283    489.949    788.747    489.949    495.932    489.949
 95.470    822.000    769.454     52.546    489.710    763.825    489.710    495.353    489.710
 95.570    780.000    745.410     34.590    489.469    740.065    489.469    494.828    489.469
 95.670    738.000    724.302     13.698    489.228    719.188    489.228    494.354    489.228
 95.770    708.000    707.707      0.293    488.985    702.777    488.985    493.922    488.985
 95.870    718.000    697.025     20.975    488.742    692.240    488.742    493.530    488.742
 95.970    740.000    693.467     46.533    488.497    688.790    488.497    493.170    488.497
 96.070    715.484    698.038     17.446    488.252    693.439    488.252    492.839    488.252
 96.170    682.000    711.530    -29.530    488.006    706.982    488.006    492.534    488.006
 96.270    787.000    734.504     52.496    487.758    729.983    487.758    492.251    487.758
 96.370    744.000    767.254    -23.254    487.510    762.740    487.510    491.987    487.510
 96.470    825.000    809.756     15.244    487.262    805.230    487.262    491.741    487.262
 96.570    887.060    861.594     25.465    487.012    857.040    487.012    491.510    487.012
 96.670    932.623    921.887     10.736    486.761    917.291    486.761    491.294    486.761
 96.770    943.200    989.216    -46.017    486.510    984.565    486.510    491.092    486.510
 96.870   1126.691   1061.578     65.113    486.258   1056.860    486.258    490.902    486.258
 96.970   1118.000   1136.361    -18.361    486.005   1131.566    486.005    490.726    486.005
 97.070   1260.000   1210.362     49.638    485.751   1205.478    485.751    490.563    485.751
 97.170   1253.000   1279.852    -26.852    485.497   1274.869    485.497    490.414    485.497
 97.270   1336.353   1340.807     -4.454    485.242   1335.714    485.242    490.279    485.242
 97.370   1450.520   1389.180     61.340    484.986   1383.965    484.986    490.159    484.986
 97.470   1429.000   1421.434      7.566    484.729   1416.083    484.729    490.056    484.729
 97.570   1399.158   1435.165    -36.007    484.472   1429.661    484.472    489.972    484.472
 97.670   1403.257   1429.583    -26.326    484.214   1423.904    484.214    489.908    484.214
 97.770   1459.416   1405.648     53.768    483.956   1399.767    483.956    489.869    483.956
 97.870   1379.000   1365.793     13.207    483.697   1359.680    483.697    489.858    483.697
 97.970   1264.000   1313.409    -49.409    483.437   1307.028    483.437    489.878    483.437
 98.070   1261.000   1252.320      8.680    483.177   1245.627    483.177    489.937    483.177
 98.170   1171.000   1186.389    -15.389    482.916   1179.337    482.916    490.041    482.916
 98.270   1156.000   1119.280     36.720    482.655   1111.810    482.655    490.197    482.655
 98.370   1018.000   1054.310    -36.310    482.393   1046.357    482.393    490.416    482.393
 98.470    970.701    994.384    -23.682    482.130    985.870    482.130    490.708    482.130
 98.570    948.000    941.960      6.040    481.868    932.797    481.868    491.088    481.868
 98.670    919.742    899.056     20.686    481.604    889.140    481.604    491.568    481.604
 98.770    835.000    867.270    -32.270    481.341    856.482    481.341    492.167    481.341
 98.870    826.000    847.814    -21.814    481.077    836.018    481.077    492.903    481.077
 98.970    888.479    841.566     46.913    480.812    828.605    480.812    493.794    480.812
 99.070    840.000    849.109     -9.109    480.547    834.809    480.547    494.860    480.547
 99.170    883.000    870.766     12.234    480.282    854.930    480.282    496.124    480.282
 99.270    908.000    906.602      1.398    480.016    889.014    480.016    497.606    480.016
 99.370    940.000    956.405    -16.405    479.751    936.831    479.751    499.324    479.751
 99.470   1021.000   1019.641      1.359    479.485    997.828    479.485    501.298    479.485
 99.570   1135.000   1095.406     39.594    479.218   1071.087    479.218    503.540    479.218
 99.670   1134.000   1182.324    -48.324    478.952   1155.225    478.952    506.061    478.952
 99.770   1274.194   1278.504     -4.310    478.685   1248.344    478.685    508.865    478.685
 99.870   1435.000   1381.476     53.524    478.418   1347.979    478.418    511.951    478.418
 99.970   1424.000   1488.179    -64.179    478.151   1451.078    478.151    515.306    478.151
100.070   1577.000   1595.003    -18.003    477.883   1554.053    477.883    518.909    477.883
100.170   1732.000   1697.948     34.052    477.616   1652.939    477.616    522.727    477.616
100.270   1798.645   1792.898      5.747    477.348   1743.665    477.348    526.710    477.348
100.370   1849.118   1875.978    -26.860    477.081   1822.422    477.081    530.793    477.081
100.470   1936.000   1943.885     -7.885    476.813   1885.992    476.813    534.891    476.813
100.570   2093.000   1994.066     98.934    476.545   1931.926    476.545    538.894    476.545
100.670   2050.000   2024.709     25.291    476.278   1958.544    476.278    542.673    476.278
100.770   2039.000   2034.681      4.319    476.010   1964.862    476.010    546.078    476.010
100.870   2040.000   2023.576     16.424    475.743   1950.633    475.743    548.947    475.743
100.970   2028.000   1991.931     36.069    475.475   1916.556    475.475    551.120    475.475
101.070   2014.372   1941.485     72.887    475.208   1864.509    475.208    552.456    475.208
101.170   1886.000   1875.304     10.696    474.940   1797.659    474.940    552.856    474.940
101.270   1801.000   1797.504      3.496    474.673   1720.165    474.673    552.276    474.673
101.370   1661.335   1712.743    -51.408    474.406   1636.663    474.406    550.738    474.406
101.470   1573.000   1625.674    -52.674    474.140   1551.727    474.140    548.324    474.140
101.570   1469.000   1540.473    -71.473    473.873   1469.403    473.873    545.163    473.873
101.670   1483.000   1460.537     22.463    473.607   1392.935    473.607    541.411    473.607
101.770   1318.825   1388.340    -69.516    473.341   1324.635    473.341    537.231    473.341
101.870   1328.000   1325.393      2.607    473.075   1265.859    473.075    532.777    473.075
101.970   1253.000   1272.269    -19.269    472.810   1217.045    472.810    528.188    472.810
102.070   1230.278   1228.675      1.603    472.545   1177.783    472.545    523.578    472.545
102.170   1202.885   1193.552      9.333    472.281   1146.922    472.281    519.042    472.281
102.270   1194.000   1165.215     28.785    472.017   1122.705    472.017    514.651    472.017
102.370   1143.000   1141.531      1.469    471.753   1102.943    471.753    510.460    471.753
102.470   1082.000   1120.144    -38.144    471.490   1085.243    471.490    506.507    471.490
102.570   1088.391   1098.758    -10.367    471.227   1067.281    471.227    502.819    471.227
102.670   1035.000   1075.437    -40.437    470.965   1047.107    470.965    499.409    470.965
102.770   1080.000   1048.859     31.141    470.704   1023.391    470.704    496.284    470.704
102.870   1013.000   1018.435     -5.435    470.443    995.548    470.443    493.440    470.443
102.970   1004.000    984.271     19.729    470.182    963.691    470.182    490.870    470.182
103.070    978.000    947.001     30.999    469.923    928.466    469.923    488.561    469.923
103.170    903.000    907.579     -4.579    469.664    890.844    469.664    486.496    469.664
103.270    903.000    867.087     35.913    469.406    851.927    469.406    484.657    469.406
103.370    856.000    826.610     29.390    469.148    812.820    469.148    483.022    469.148
103.470    825.720    787.147     38.573    468.891    774.541    468.891    481.572    468.891
103.570    711.290    749.556    -38.267    468.635    737.974    468.635    480.285    468.635
103.670    720.000    714.531      5.469    468.380    703.828    468.380    479.142    468.380
103.770    660.000    682.577    -22.577    468.126    672.629    468.126    478.125    468.126
103.870    699.435    654.010     45.426    467.873    644.711    467.873    477.215    467.873
103.970    618.000    628.966    -10.966    467.621    620.225    467.621    476.398    467.621
104.070    583.530    607.425    -23.894    467.369    599.164    467.369    475.661    467.369
104.170    620.000    589.233     30.767    467.119    581.387    467.119    474.990    467.119
104.270    573.000    574.145     -1.145    466.869    566.658    466.869    474.377    466.869
104.370    586.000    561.850     24.150    466.621    554.676    466.621    473.812    466.621
104.470    546.632    552.010     -5.379    466.374    545.109    466.374    473.288    466.374
104.570    591.856    544.286     47.570    466.128    537.625    466.128    472.799    466.128
104.670    585.000    538.357     46.643    465.883    531.907    465.883    472.340    465.883
104.770    533.000    533.937     -0.937    465.639    527.674    465.639    471.907    465.639
104.870    543.552    530.785     12.767    465.397    524.688    465.397    471.497    465.397
104.970    554.000    528.710     25.290    465.156    522.760    465.156    471.107    465.156
105.070    530.500    527.569      2.931    464.916    521.750    464.916    470.735    464.916
105.170    559.207    527.269     31.938    464.677    521.566    464.677    470.378    464.677
105.270    545.000    527.760     17.240    464.440    522.160    464.440    470.037    464.440
105.370    562.238    529.030     33.208    464.204    523.521    464.204    469.708    464.204
105.470    526.000    531.103     -5.103    463.970    525.675    463.970    469.392    463.970
105.570    580.833    534.029     46.803    463.737    528.671    463.737    469.087    463.737
105.670    624.000    537.876     86.124    463.506    532.577    463.506    468.794    463.506
105.770    510.684    542.716    -32.032    463.276    537.469    463.276    468.510    463.276
105.870    579.000    548.621     30.379    463.048    543.416    463.048    468.237    463.048
105.970    571.858    555.639     16.219    462.821    550.469    462.821    467.973    462.821
106.070    596.663    563.787     32.875    462.596    558.645    462.596    467.718    462.596
106.170    532.000    573.044    -41.044    462.373    567.921    462.373    467.472    462.373
106.270    578.000    583.337     -5.337    462.152    578.227    462.152    467.234    462.152
106.370    600.000    594.534      5.466    461.932    589.431    461.932    467.005    461.932
106.470    568.000    606.446    -38.446    461.714    601.343    461.714    466.784    461.714
106.570    621.000    618.827      2.173    461.498    613.718    461.498    466.571    461.498
106.670    608.227    631.375    -23.147    461.284    626.254    461.284    466.367    461.284
106.770    635.000    643.737     -8.737    461.072    638.599    461.072    466.170    461.072
106.870    688.000    655.546     32.454    460.861    650.386    460.861    465.981    460.861
106.970    670.308    666.409      3.898    460.653    661.221    460.653    465.800    460.653
107.070    687.000    675.951     11.049    460.447    670.731    460.447    465.627    460.447
107.170    684.800    683.860      0.940    460.243    678.602    460.243    465.462    460.243
107.270    672.223    689.933    -17.710    460.040    684.633    460.040    465.305    460.040
107.370    709.217    694.115     15.102    459.841    688.768    459.841    465.156    459.841
107.470    645.077    696.516    -51.439    459.643    691.115    459.643    465.015    459.643
107.570    690.000    697.393     -7.393    459.447    691.934    459.447    464.883    459.447
107.670    672.349    697.110    -24.761    459.254    691.586    459.254    464.759    459.254
107.770    699.085    696.078      3.007    459.063    690.483    459.063    464.644    459.063
107.870    668.000    694.701    -26.701    458.875    689.028    458.875    464.537    458.875
107.970    664.000    693.328    -29.328    458.689    687.571    458.689    464.440    458.689
108.070    673.000    692.225    -19.225    458.505    686.377    458.505    464.352    458.505
108.170    685.000    691.555     -6.555    458.324    685.609    458.324    464.274    458.324
108.270    643.000    691.369    -48.369    458.145    685.317    458.145    464.205    458.145
108.370    646.000    691.602    -45.602    457.969    685.435    457.969    464.147    457.969
108.470    667.000    692.077    -25.077    457.796    685.788    457.796    464.099    457.796
108.570    655.000    692.520    -37.520    457.625    686.101    457.625    464.062    457.625
108.670    725.000    692.585     32.415    457.457    686.026    457.457    464.037    457.457
108.770    719.346    691.883     27.463    457.291    685.175    457.291    464.024    457.291
108.870    689.000    690.042     -1.042    457.129    683.174    457.129    464.024    457.129
108.970    649.005    686.752    -37.748    456.969    679.713    456.969    464.037    456.969
109.070    672.000    681.822     -9.822    456.812    674.600    456.812    464.064    456.812
109.170    684.000    675.207      8.793    456.658    667.791    456.658    464.106    456.658
109.270    709.460    667.006     42.454    456.507    659.382    456.507    464.163    456.507
109.370    671.000    657.439     13.561    456.359    649.593    456.359    464.238    456.359
109.470    678.360    646.806     31.554    456.214    638.722    456.214    464.330    456.214
109.570    649.286    635.447     13.839    456.072    627.108    456.072    464.441    456.072
109.670    578.358    623.708    -45.350    455.934    615.096    455.934    464.573    455.934
109.770    603.165    611.920     -8.754    455.798    603.015    455.798    464.728    455.798
109.870    597.954    600.380     -2.426    455.666    591.162    455.666    464.908    455.666
109.970    605.000    589.350     15.650    455.537    579.793    455.537    465.115    455.537
110.070    618.000    579.042     38.958    455.411    569.120    455.411    465.353    455.411
110.170    565.845    569.625     -3.780    455.289    559.306    455.289    465.624    455.289
110.270    604.000    561.217     42.783    455.170    550.468    455.170    465.933    455.170
110.370    567.284    553.893     13.391    455.055    542.675    455.055    466.284    455.055
110.470    515.560    547.684    -32.124    454.943    535.953    454.943    466.684    454.943
110.570    552.000    542.586      9.414    454.835    530.290    454.835    467.138    454.835
110.670    565.000    538.565     26.435    454.730    525.647    454.730    467.654    454.730
110.770    536.000    535.564      0.436    454.629    521.956    454.629    468.240    454.629
110.870    536.000    533.510      2.490    454.532    519.137    454.532    468.907    454.532
110.970    518.651    532.324    -13.673    454.438    517.098    454.438    469.665    454.438
111.070    536.000    531.922      4.078    454.348    515.744    454.348    470.527    454.348
111.170    569.173    532.225     36.948    454.262    514.979    454.262    471.507    454.262
111.270    592.000    533.158     58.842    454.180    514.715    454.180    472.621    454.180
111.370    537.000    534.656      2.344    454.102    514.868    454.102    473.887    454.102
111.470    512.000    536.664    -24.664    454.028    515.366    454.028    475.323    454.028
111.570    525.000    539.139    -14.139    453.959    516.143    453.959    476.950    453.959
111.670    496.839    542.049    -45.209    453.893    517.148    453.893    478.789    453.893
111.770    529.000    545.374    -16.374    453.831    518.337    453.831    480.863    453.831
111.870    526.000    549.107    -23.107    453.774    519.679    453.774    483.196    453.774
111.970    559.000    553.253      5.747    453.721    521.155    453.721    485.812    453.721
112.070    546.764    557.824    -11.060    453.672    522.754    453.672    488.735    453.672
112.170    576.000    562.826     13.174    453.627    524.460    453.627    491.988    453.627
112.270    558.179    568.306    -10.127    453.587    526.295    453.587    495.592    453.587
112.370    558.000    574.347    -16.347    453.552    528.326    453.552    499.568    453.552
112.470    582.190    580.973      1.218    453.521    530.555    453.521    503.932    453.521
112.570    629.846    588.235     41.611    453.494    533.025    453.494    508.698    453.494
112.670    566.056    596.198    -30.142    453.472    535.789    453.472    513.875    453.472
112.770    557.000    604.936    -47.936    453.455    538.920    453.455    519.465    453.455
112.870    659.255    614.538     44.717    453.443    542.509    453.443    525.466    453.443
112.970    584.000    625.110    -41.110    453.436    546.674    453.436    531.865    453.436
113.070    683.306    636.786     46.521    453.433    551.568    453.433    538.644    453.433
113.170    638.000    649.734    -11.734    453.435    557.390    453.435    545.771    453.435
113.270    643.000    664.174    -21.174    453.442    564.401    453.442    553.206    453.442
113.370    681.000    680.382      0.618    453.454    572.934    453.454    560.892    453.454
113.470    691.000    698.719     -7.719    453.472    583.416    453.472    568.762    453.472
113.570    732.298    719.641     12.657    453.494    596.390    453.494    576.728    453.494
113.670    669.000    743.722    -74.722    453.522    612.536    453.522    584.688    453.522
113.770    710.000    771.680    -61.680    453.555    632.692    453.555    592.516    453.555
113.870    746.000    804.394    -58.394    453.593    657.882    453.593    600.072    453.593
113.970    836.000    842.928     -6.928    453.636    689.330    453.636    607.193    453.636
114.070    845.000    888.552    -43.552    453.685    728.478    453.685    613.705    453.685
114.170    916.000    942.748    -26.748    453.740    776.994    453.740    619.427    453.740
114.270   1067.611   1007.224     60.387    453.800    836.762    453.800    624.179    453.800
114.370   1083.322   1083.902     -0.580    453.866    909.866    453.866    627.798    453.866
114.470   1160.000   1174.892    -14.892    453.937    998.553    453.937    630.151    453.937
114.570   1289.000   1282.454      6.546    454.014   1105.170    454.014    631.146    454.014
114.670   1447.000   1408.918     38.082    454.096   1232.086    454.096    630.746    454.096
114.770   1605.000   1556.586     48.414    454.185   1381.584    454.185    628.972    454.185
114.870   1816.000   1727.606     88.394    454.280   1555.736    454.280    625.897    454.280
114.970   2057.000   1923.810    133.190    454.380   1756.256    454.380    621.643    454.380
115.070   2111.337   2146.552    -35.215    454.486   1984.341    454.486    616.366    454.486
115.170   2467.000   2396.524     70.476    454.599   2240.508    454.599    610.242    454.599
115.270   2816.000   2673.583    142.417    454.718   2524.436    454.718    603.452    454.718
115.370   2968.000   2976.602     -8.602    454.842   2834.818    454.842    596.175    454.842
115.470   3420.000   3303.336    116.664    454.974   3169.248    454.974    588.576    454.974
115.570   3597.000   3650.340    -53.340    455.111   3524.133    455.111    580.804    455.111
115.670   3889.853   4012.922   -123.069    455.255   3894.653    455.255    572.989    455.255
115.770   4356.000   4385.153    -29.153    455.405   4274.771    455.405    565.241    455.405
115.870   4850.000   4759.927     90.073    455.562   4657.292    455.562    557.652    455.562
115.970   5073.183   5129.076    -55.894    455.725   5033.972    455.725    550.296    455.725
116.070   5490.000   5483.545      6.455    455.895   5395.700    455.895    543.232    455.895
116.170   5765.000   5813.642    -48.642    456.072   5732.739    456.072    536.507    456.072
116.270   6212.028   6109.376    102.652    456.255   6035.064    456.255    530.155    456.255
116.370   6490.000   6360.910    129.090    456.446   6292.815    456.446    524.198    456.446
116.470   6421.000   6559.134   -138.134    456.643   6496.866    456.643    518.651    456.643
116.570   6697.000   6696.337      0.663    456.847   6639.498    456.847    513.519    456.847
116.670   6899.723   6766.902    132.820    457.058   6715.091    457.058    508.802    457.058
116.770   6745.000   6767.883    -22.883    457.276   6720.700    457.276    504.492    457.276
116.870   6670.000   6699.334    -29.334    457.502   6656.391    457.502    500.578    457.502
116.970   6623.000   6564.299     58.701    457.735   6525.214    457.735    497.044    457.735
117.070   6297.000   6368.447    -71.447    457.975   6332.858    457.975    493.871    457.975
117.170   6188.000   6119.483     68.517    458.222   6087.043    458.222    491.038    458.222
117.270   5617.000   5826.449   -209.449    458.477   5796.834    458.477    488.522    458.477
117.370   5571.464   5499.060     72.404    458.739   5471.970    458.739    486.300    458.739
117.470   4965.000   5147.146   -182.146    459.009   5122.302    459.009    484.348    459.009
117.570   4803.000   4780.206     22.794    459.286   4757.357    459.286    482.641    459.286
117.670   4327.000   4407.089    -80.089    459.571   4386.007    459.571    481.158    459.571
117.770   4056.000   4035.757     20.243    459.864   4016.236    459.864    479.876    459.864
117.870   3706.000   3673.120     32.880    460.165   3654.978    460.165    478.775    460.165
117.970   3319.667   3324.942     -5.276    460.473   3308.019    460.473    477.835    460.473
118.070   2969.000   2995.800    -26.800    460.790   2979.954    460.790    477.038    460.790
118.170   2600.000   2689.095    -89.095    461.114   2674.204    461.114    476.369    461.114
118.270   2344.000   2407.113    -63.113    461.447   2393.070    461.447    475.813    461.447
118.370   2066.038   2151.117    -85.080    461.788   2137.831    461.788    475.357    461.788
118.470   1988.263   1921.471     66.793    462.137   1908.862    462.137    474.989    462.137
118.570   1701.000   1717.767    -16.767    462.495   1705.769    462.495    474.698    462.495
118.670   1556.000   1538.981     17.019    462.861   1527.535    462.861    474.478    462.861
118.770   1341.000   1383.610    -42.610    463.235   1372.665    463.235    474.320    463.235
118.870   1199.091   1249.815    -50.724    463.618   1239.327    463.618    474.218    463.618
118.970   1103.372   1135.553    -32.181    464.009   1125.485    464.009    474.166    464.009
119.070   1021.000   1038.694    -17.694    464.409   1029.013    464.409    474.159    464.409
119.170    898.866    957.116    -58.251    464.818    947.794    464.818    474.194    464.818
119.270    912.107    888.782     23.325    465.236    879.791    465.236    474.266    465.236
119.370    802.000    831.787    -29.787    465.663    823.106    465.663    474.374    465.663
119.470    748.000    784.391    -36.391    466.099    775.997    466.099    474.514    466.099
119.570    701.146    745.120    -43.974    466.543    736.994    466.543    474.686    466.543
119.670    658.640    712.616    -53.977    466.997    704.739    466.997    474.886    466.997
119.770    665.000    685.737    -20.737    467.460    678.092    467.460    475.115    467.460
119.870    673.000    663.523      9.477    467.933    656.093    467.933    475.370    467.933
119.970    615.000    645.176    -30.176    468.414    637.945    468.414    475.651    468.414
120.070    655.514    630.039     25.475    468.905    622.992    468.905    475.958    468.905
120.170    577.183    617.580    -40.397    469.406    610.702    469.406    476.289    469.406
120.270    631.265    607.368     23.898    469.916    600.644    469.916    476.645    469.916
120.370    561.153    599.058    -37.905    470.436    592.475    470.436    477.024    470.436
120.470    588.000    592.376     -4.376    470.966    585.920    470.966    477.427    470.966
120.570    559.000    587.103    -28.103    471.505    580.761    471.505    477.853    471.505
120.670    603.000    583.066     19.934    472.055    576.825    472.055    478.302    472.055
120.770    547.000    580.127    -33.127    472.614    573.975    472.614    478.774    472.614
120.870    599.000    578.175     20.825    473.183    572.099    473.183    479.268    473.183
120.970    571.000    577.121     -6.121    473.763    571.108    473.763    479.785    473.763
121.070    565.000    576.888    -11.888    474.352    570.927    474.352    480.323    474.352
121.170    597.000    577.412     19.588    474.952    571.492    474.952    480.884    474.952
121.270    560.000    578.633    -18.633    475.563    572.743    475.563    481.466    475.563
121.370    605.552    580.496     25.056    476.183    574.625    476.183    482.069    476.183
121.470    560.000    582.942    -22.942    476.815    577.080    476.815    482.693    476.815
121.570    575.038    585.913    -10.875    477.457    580.051    477.457    483.338    477.457
121.670    578.766    589.346    -10.580    478.109    583.474    478.109    484.001    478.109
121.770    578.000    593.170    -15.170    478.773    587.282    478.773    484.684    478.773
121.870    574.584    597.312    -22.728    479.447    591.399    479.447    485.385    479.447
121.970    565.437    601.688    -36.251    480.132    595.745    480.132    486.103    480.132
122.070    588.257    606.209    -17.952    480.828    600.231    480.828    486.838    480.828
122.170    580.000    610.780    -30.780    481.536    604.763    481.536    487.587    481.536
122.270    648.000    615.300     32.700    482.254    609.241    482.254    488.350    482.254
122.370    686.000    619.663     66.337    482.984    613.562    482.984    489.124    482.984
122.470    589.493    623.765    -34.272    483.725    617.623    483.725    489.909    483.725
122.570    689.000    627.502     61.498    484.477    621.322    484.477    490.702    484.477
122.670    678.784    630.776     48.007    485.241    624.563    485.241    491.501    485.241
122.770    672.000    633.505     38.495    486.017    627.266    486.017    492.304    486.017
122.870    653.000    635.619     17.381    486.804    629.365    486.804    493.108    486.804
122.970    634.000    637.074     -3.074    487.604    630.815    487.604    493.913    487.604
123.070    614.404    637.847    -23.442    488.415    631.596    488.415    494.716    488.415
123.170    601.966    637.940    -35.974    489.237    631.713    489.237    495.515    489.237
123.270    694.000    637.380     56.620    490.072    631.193    490.072    496.309    490.072
123.370    661.152    636.211     24.941    490.919    630.081    490.919    497.099    490.919
123.470    612.000    634.491    -22.491    491.779    628.435    491.779    497.883    491.779
123.570    628.919    632.291     -3.372    492.650    626.325    492.650    498.662    492.650
123.670    590.000    629.684    -39.684    493.534    623.823    493.534    499.438    493.534
123.770    632.000    626.746      5.254    494.431    621.006    494.431    500.212    494.431
123.870    617.000    623.554     -6.554    495.340    617.947    495.340    500.985    495.340
123.970    654.000    620.180     33.820    496.261    614.716    496.261    501.760    496.261
124.070    655.885    616.689     39.196    497.196    611.378    497.196    502.538    497.196
124.170    675.000    613.141     61.859    498.143    607.990    498.143    503.323    498.143
124.270    585.000    609.588    -24.588    499.103    604.601    499.103    504.115    499.103
124.370    603.000    606.070     -3.070    500.076    601.252    500.076    504.918    500.076
124.470    603.000    602.621      0.379    501.062    597.972    501.062    505.732    501.062
124.570    651.000    599.264     51.736    502.062    594.784    502.062    506.559    502.062
124.670    581.000    596.014    -15.014    503.074    591.702    503.074    507.401    503.074
124.770    589.315    592.879     -3.565    504.101    588.734    504.101    508.259    504.101
124.870    559.101    589.865    -30.764    505.140    585.882    505.140    509.134    505.140
124.970    604.000    586.970     17.030    506.193    583.146    506.193    510.026    506.193
