neutron_powder_diffraction_0044
R_wp: 3.796
Temperature (K): 612.498
Counts: 83858.00
Wavelength (Ã…): 2.52098
COMMENTS
Test file for demonstrating the .xyy file format in Reel1.0
END OF HEADER
   tth       Y_obs     Y_calc      Y_res    Background    Phase_1_Nuc    Phase_1_Mag    Phase_2_Nuc    Phase_2_Mag
  9.970    736.000    680.629     55.371    679.192    680.190    679.631    679.192    679.192
 10.070    626.437    680.059    -53.622    678.536    679.615    678.980    678.536    678.536
 10.170    698.000    679.501     18.499    677.881    679.052    678.330    677.881    677.881
 10.270    707.000    678.957     28.043    677.227    678.503    677.680    677.227    677.227
 10.370    639.615    678.429    -38.814    676.574    677.971    677.032    676.574    676.574
 10.470    646.000    677.923    -31.923    675.921    677.459    676.384    675.921    675.921
 10.570    732.000    677.441     54.559    675.269    676.972    675.737    675.269    675.269
 10.670    644.821    676.989    -32.168    674.618    676.515    675.091    674.618    674.618
 10.770    688.000    676.577     11.423    673.968    676.097    674.446    673.968    673.968
 10.870    647.000    676.212    -29.212    673.318    675.727    673.802    673.318    673.318
 10.970    668.000    675.911     -7.911    672.669    675.420    673.158    672.669    672.669
 11.070    665.607    675.691    -10.084    672.021    675.194    672.516    672.021    672.021
 11.170    659.835    675.580    -15.746    671.374    675.078    671.874    671.374    671.374
 11.270    702.000    675.620     26.380    670.728    675.112    671.234    670.728    670.728
 11.370    639.277    675.876    -36.599    670.083    675.362    670.594    670.083    670.083
 11.470    699.000    676.476     22.524    669.439    675.955    669.956    669.439    669.439
 11.570    714.530    677.703     36.826    668.795    677.175    669.319    668.795    668.795
 11.670    686.000    680.218      5.782    668.153    679.682    668.682    668.153    668.153
 11.770    680.000    685.392     -5.392    667.511    684.846    668.047    667.511    667.511
 11.870    775.000    695.495     79.505    666.871    694.938    667.413    666.871    666.871
 11.970    770.000    713.094     56.906    666.231    712.520    666.780    666.231    666.231
 12.070    816.000    739.042     76.958    665.593    738.446    666.148    665.593    665.593
 12.170    888.000    769.023    118.977    664.956    768.405    665.518    664.956    664.956
 12.270    883.000    790.653     92.347    664.319    790.015    664.888    664.319    664.319
 12.370    785.000    789.899     -4.899    663.684    789.255    664.260    663.684    663.684
 12.470    791.000    766.869     24.131    663.050    766.230    663.633    663.050    663.050
 12.570    694.000    735.636    -41.636    662.417    735.006    663.007    662.417    662.417
 12.670    736.409    708.508     27.901    661.785    707.886    662.383    661.785    661.785
 12.770    659.000    689.738    -30.738    661.155    689.118    661.759    661.155    661.155
 12.870    661.000    678.447    -17.447    660.525    677.826    661.137    660.525    660.525
 12.970    648.000    672.135    -24.135    659.897    671.508    660.517    659.897    659.897
 13.070    658.000    668.451    -10.451    659.270    667.818    659.898    659.270    659.270
 13.170    617.157    665.985    -48.828    658.644    665.346    659.280    658.644    658.644
 13.270    656.000    664.137     -8.137    658.020    663.491    658.663    658.020    658.020
 13.370    677.812    662.632     15.180    657.396    661.978    658.048    657.396    657.396
 13.470    653.447    661.343     -7.896    656.774    660.681    657.435    656.774    656.774
 13.570    613.787    660.205    -46.418    656.153    659.534    656.823    656.153    656.153
 13.670    625.000    659.176    -34.176    655.534    658.497    656.212    655.534    655.534
 13.770    673.903    658.229     15.674    654.916    657.541    655.603    654.916    654.916
 13.870    640.000    657.346    -17.346    654.299    656.648    654.995    654.299    654.299
 13.970    607.591    656.513    -48.921    653.684    655.806    654.389    653.684    653.684
 14.070    705.000    655.731     49.269    653.069    655.015    653.785    653.069    653.069
 14.170    685.423    654.982     30.441    652.457    654.256    653.182    652.457    652.457
 14.270    662.000    654.245      7.755    651.845    653.509    652.581    651.845    651.845
 14.370    632.000    653.528    -21.528    651.236    652.782    651.981    651.236    651.236
 14.470    620.000    652.829    -32.829    650.627    652.072    651.383    650.627    650.627
 14.570    653.000    652.145      0.855    650.020    651.377    650.787    650.020    650.020
 14.670    657.807    651.473      6.334    649.415    650.695    650.192    649.415    649.415
 14.770    631.000    650.813    -19.813    648.810    650.024    649.599    648.810    648.810
 14.870    638.169    650.162    -11.993    648.208    649.362    649.008    648.208    648.208
 14.970    666.000    649.521     16.479    647.607    648.709    648.418    647.607    647.607
 15.070    622.874    648.886    -26.013    647.007    648.063    647.830    647.007    647.007
 15.170    646.000    648.259     -2.259    646.409    647.424    647.244    646.409    646.409
 15.270    692.899    647.638     45.261    645.813    646.790    646.660    645.813    645.813
 15.370    650.000    647.023      2.977    645.218    646.163    646.078    645.218    645.218
 15.470    635.000    646.413    -11.413    644.624    645.540    645.497    644.624    644.624
 15.570    658.312    645.808     12.504    644.033    644.922    644.919    644.033    644.033
 15.670    662.000    645.207     16.793    643.442    644.308    644.342    643.442    643.442
 15.770    641.000    644.611     -3.611    642.854    643.698    643.767    642.854    642.854
 15.870    619.279    644.019    -24.740    642.267    643.092    643.194    642.267    642.267
 15.970    674.774    643.431     31.343    641.682    642.489    642.623    641.682    641.682
 16.070    690.103    642.847     47.256    641.098    641.890    642.054    641.098    641.098
 16.170    598.512    642.270    -43.758    640.516    641.298    641.488    640.516    640.516
 16.270    587.000    641.696    -54.696    639.936    640.709    640.923    639.936    639.936
 16.370    667.111    641.127     25.984    639.357    640.124    640.360    639.357    639.357
 16.470    641.000    640.557      0.443    638.780    639.538    639.799    638.780    638.780
 16.570    640.000    639.990      0.010    638.205    638.954    639.241    638.205    638.205
 16.670    630.000    639.425     -9.425    637.631    638.372    638.685    637.631    637.631
 16.770    601.000    638.864    -37.864    637.059    637.793    638.130    637.059    637.059
 16.870    622.000    638.306    -16.306    636.489    637.217    637.578    636.489    636.489
 16.970    623.000    637.751    -14.751    635.921    636.643    637.028    635.921    635.921
 17.070    610.774    637.199    -26.425    635.355    636.073    636.481    635.355    635.355
 17.170    630.000    636.650     -6.650    634.790    635.505    635.935    634.790    634.790
 17.270    625.000    636.104    -11.104    634.227    634.938    635.392    634.227    634.227
 17.370    576.000    635.560    -59.560    633.666    634.375    634.852    633.666    633.666
 17.470    599.443    635.022    -35.578    633.107    633.815    634.313    633.107    633.107
 17.570    621.000    634.504    -13.504    632.549    633.276    633.778    632.549    632.549
 17.670    604.669    633.981    -29.312    631.993    632.730    633.244    631.993    631.993
 17.770    656.009    633.460     22.548    631.440    632.187    632.713    631.440    631.440
 17.870    663.283    633.000     30.284    630.888    631.702    632.186    630.888    630.888
 17.970    608.000    632.482    -24.482    630.338    631.160    631.660    630.338    630.338
 18.070    603.330    631.961    -28.631    629.789    630.614    631.136    629.789    629.789
 18.170    620.465    631.448    -10.982    629.243    630.076    630.615    629.243    629.243
 18.270    605.675    630.940    -25.265    628.699    629.542    630.097    628.699    628.699
 18.370    599.000    630.428    -31.428    628.156    629.003    629.581    628.156    628.156
 18.470    630.000    629.918      0.082    627.616    628.466    629.068    627.616    627.616
 18.570    612.000    629.412    -17.412    627.077    627.931    628.558    627.077    627.077
 18.670    604.901    628.909    -24.008    626.540    627.398    628.050    626.540    626.540
 18.770    620.000    628.408     -8.408    626.005    626.868    627.546    626.005    626.005
 18.870    623.854    627.912     -4.058    625.473    626.340    627.044    625.473    625.473
 18.970    630.000    627.418      2.582    624.942    625.815    626.545    624.942    624.942
 19.070    637.404    626.928     10.476    624.413    625.292    626.050    624.413    624.413
 19.170    585.000    626.445    -41.445    623.886    624.773    625.557    623.886    623.886
 19.270    641.915    625.996     15.920    623.361    624.281    625.075    623.361    623.361
 19.370    587.000    625.558    -38.558    622.838    623.799    624.598    622.838    622.838
 19.470    641.460    625.096     16.364    622.317    623.298    624.115    622.317    622.317
 19.570    617.000    624.625     -7.625    621.798    622.788    623.635    621.798    621.798
 19.670    612.000    624.158    -12.158    621.282    622.281    623.159    621.282    621.282
 19.770    593.494    623.694    -30.200    620.767    621.776    622.685    620.767    620.767
 19.870    601.000    623.235    -22.235    620.254    621.273    622.215    620.254    620.254
 19.970    592.492    622.779    -30.287    619.743    620.773    621.749    619.743    619.743
 20.070    624.000    622.328      1.672    619.235    620.276    621.286    619.235    619.235
 20.170    587.000    621.881    -34.881    618.728    619.782    620.827    618.728    618.728
 20.270    615.000    621.439     -6.439    618.223    619.291    620.372    618.223    618.223
 20.370    614.000    621.005     -7.005    617.721    618.806    619.920    617.721    617.721
 20.470    572.384    620.572    -48.188    617.221    618.320    619.473    617.221    617.221
 20.570    667.000    620.147     46.853    616.722    617.840    619.030    616.722    616.722
 20.670    605.000    619.765    -14.765    616.226    617.395    618.597    616.226    616.226
 20.770    617.000    619.381     -2.381    615.732    616.942    618.171    615.732    615.732
 20.870    604.782    618.976    -14.194    615.240    616.475    617.741    615.240    615.240
 20.970    571.000    618.600    -47.600    614.750    616.035    617.315    614.750    614.750
 21.070    557.000    618.255    -61.255    614.263    615.623    616.895    614.263    614.263
 21.170    634.000    617.883     16.117    613.777    615.182    616.478    613.777    613.777
 21.270    599.000    617.505    -18.505    613.294    614.732    616.066    613.294    613.294
 21.370    620.000    617.125      2.875    612.812    614.277    615.660    612.812    612.812
 21.470    598.000    616.760    -18.760    612.333    613.835    615.259    612.333    612.333
 21.570    620.000    616.444      3.556    611.856    613.437    614.864    611.856    611.856
 21.670    627.000    616.091     10.909    611.382    612.999    614.473    611.382    611.382
 21.770    600.180    615.740    -15.559    610.909    612.560    614.089    610.909    610.909
 21.870    651.010    615.399     35.611    610.439    612.126    613.712    610.439    610.439
 21.970    618.000    615.074      2.926    609.970    611.701    613.343    609.970    609.970
 22.070    587.000    614.752    -27.752    609.504    611.279    612.978    609.504    609.504
 22.170    629.036    614.439     14.598    609.040    610.861    612.619    609.040    609.040
 22.270    575.000    614.138    -39.138    608.579    610.450    612.267    608.579    608.579
 22.370    596.000    613.847    -17.847    608.119    610.043    611.923    608.119    608.119
 22.470    635.000    613.568     21.432    607.662    609.644    611.587    607.662    607.662
 22.570    643.029    613.303     29.726    607.207    609.252    611.259    607.207    607.207
 22.670    628.000    613.054     14.946    606.754    608.869    610.939    606.754    606.754
 22.770    621.000    612.829      8.171    606.304    608.503    610.631    606.304    606.304
 22.870    584.000    612.617    -28.617    605.856    608.143    610.330    605.856    605.856
 22.970    566.000    612.424    -46.424    605.410    607.795    610.039    605.410    605.410
 23.070    665.000    612.254     52.746    604.966    607.461    609.759    604.966    604.966
 23.170    637.376    612.111     25.265    604.524    607.146    609.490    604.524    604.524
 23.270    580.707    612.001    -31.294    604.085    606.854    609.232    604.085    604.085
 23.370    592.000    611.925    -19.925    603.648    606.586    608.988    603.648    603.648
 23.470    600.000    611.892    -11.892    603.213    606.349    608.756    603.213    603.213
 23.570    658.179    611.910     46.269    602.780    606.152    608.539    602.780    602.780
 23.670    587.981    611.991    -24.010    602.350    606.004    608.338    602.350    602.350
 23.770    608.000    612.151     -4.151    601.922    605.922    608.153    601.922    601.922
 23.870    612.524    612.412      0.112    601.496    605.925    607.985    601.496    601.496
 23.970    598.000    612.808    -14.808    601.073    606.046    607.837    601.073    601.073
 24.070    612.941    613.397     -0.456    600.652    606.342    607.709    600.652    600.652
 24.170    658.000    614.294     43.706    600.233    606.927    607.603    600.233    600.233
 24.270    625.000    615.759      9.241    599.816    608.059    607.521    599.816    599.816
 24.370    662.000    618.352     43.648    599.402    610.295    607.464    599.402    599.402
 24.470    630.269    623.110      7.160    598.990    614.673    607.436    598.990    598.990
 24.570    673.609    631.513     42.096    598.580    622.670    607.439    598.580    598.580
 24.670    682.095    644.891     37.204    598.173    635.614    607.475    598.173    598.173
 24.770    642.907    663.069    -20.161    597.768    653.326    607.549    597.768    597.768
 24.870    635.891    682.338    -46.447    597.365    672.091    607.663    597.365    597.365
 24.970    648.175    694.330    -46.154    596.964    683.532    607.823    596.964    596.964
 25.070    717.000    691.537     25.463    596.566    680.130    608.032    596.566    596.566
 25.170    661.000    676.288    -15.288    596.170    664.208    608.297    596.170    596.170
 25.270    668.000    657.385     10.615    595.777    644.571    608.624    595.777    595.777
 25.370    625.688    641.443    -15.755    595.386    627.829    609.021    595.386    595.386
 25.470    630.000    630.644     -0.644    594.997    616.157    609.496    594.997    594.997
 25.570    637.000    624.444     12.556    594.610    609.002    610.060    594.610    594.610
 25.670    591.000    621.383    -30.383    594.226    604.889    610.725    594.226    594.226
 25.770    593.207    620.142    -26.935    593.844    602.486    611.504    593.844    593.844
 25.870    667.122    619.900     47.222    593.464    600.952    612.414    593.464    593.464
 25.970    586.000    620.250    -34.250    593.087    599.863    613.476    593.087    593.087
 26.070    628.000    621.026      6.974    592.712    599.025    614.714    592.712    592.712
 26.170    655.852    622.171     33.682    592.340    598.354    616.157    592.340    592.340
 26.270    573.330    623.678    -50.349    591.969    597.806    617.841    591.969    591.969
 26.370    631.016    625.569      5.447    591.601    597.359    619.811    591.601    591.601
 26.470    619.000    627.894     -8.894    591.236    597.005    622.124    591.236    591.236
 26.570    644.000    630.698     13.302    590.873    596.725    624.845    590.873    590.873
 26.670    579.000    634.071    -55.071    590.512    596.518    628.063    590.512    590.512
 26.770    647.500    638.131      9.368    590.153    596.390    631.892    590.153    590.153
 26.870    649.000    643.035      5.965    589.797    596.347    636.482    589.797    589.797
 26.970    671.704    648.992     22.712    589.443    596.401    642.030    589.443    589.443
 27.070    682.000    656.285     25.715    589.092    596.570    648.801    589.092    589.092
 27.170    624.574    665.308    -40.734    588.742    596.881    657.163    588.742    588.742
 27.270    663.000    676.616    -13.616    588.395    597.373    667.632    588.395    588.395
 27.370    645.455    691.017    -45.562    588.051    598.102    680.957    588.051    588.051
 27.470    752.000    709.766     42.234    587.709    599.159    698.304    587.709    587.709
 27.570    765.000    735.151     29.849    587.369    600.708    721.799    587.369    587.369
 27.670    813.924    772.733     41.191    587.032    603.141    756.602    587.032    587.032
 27.770    832.000    838.924     -6.924    586.697    607.622    817.963    586.697    586.697
 27.870    949.000    979.710    -30.710    586.364    617.399    948.602    586.364    586.364
 27.970   1236.000   1297.241    -61.241    586.033    639.681   1243.437    586.033    586.033
 28.070   2020.976   1947.044     73.931    585.705    685.447   1846.998    585.705    585.705
 28.170   2872.000   3038.031   -166.031    585.380    762.402   2860.518    585.380    585.380
 28.270   4391.153   4425.250    -34.097    585.056    860.384   4149.310    585.056    585.056
 28.370   5708.830   5556.322    152.507    584.735    940.580   5199.948    584.735    584.735
 28.470   5936.000   5741.889    194.111    584.417    954.706   5371.344    584.417    584.417
 28.570   5036.000   4892.886    143.114    584.100    897.218   4579.748    584.100    584.100
 28.670   3760.000   3695.575     64.425    583.786    817.895   3461.522    583.786    583.786
 28.770   2839.000   2861.460    -22.460    583.475    768.713   2676.242    583.475    583.475
 28.870   2552.716   2658.013   -105.297    583.165    769.467   2471.677    583.165    583.165
 28.970   2966.000   2936.500     29.500    582.858    807.501   2711.822    582.858    582.858
 29.070   3380.000   3294.764     85.236    582.554    847.512   3029.859    582.554    582.554
 29.170   3383.851   3308.387     75.463    582.251    850.737   3040.083    582.251    582.251
 29.270   2834.000   2855.185    -21.185    581.951    806.645   2630.731    581.951    581.951
 29.370   2187.000   2184.388      2.612    581.654    740.565   2025.688    581.654    581.654
 29.470   1546.000   1581.152    -35.152    581.358    681.008   1481.646    581.358    581.358
 29.570   1211.595   1166.895     44.701    581.066    640.109   1107.934    581.066    581.066
 29.670    916.000    930.849    -14.849    580.775    616.841    894.823    580.775    580.775
 29.770    855.000    810.755     44.245    580.487    605.052    786.209    580.487    580.487
 29.870    841.000    750.016     90.984    580.201    599.145    731.082    580.201    580.201
 29.970    743.000    715.725     27.275    579.917    595.873    699.775    579.917    579.917
 30.070    744.000    693.280     50.720    579.636    593.807    679.113    579.636    579.636
 30.170    716.719    677.070     39.650    579.357    592.418    664.010    579.357    579.357
 30.270    717.000    664.902     52.098    579.080    591.537    652.446    579.080    579.080
 30.370    653.000    655.861     -2.861    578.806    591.176    643.489    578.806    578.806
 30.470    754.000    649.780    104.220    578.534    591.563    636.747    578.534    578.534
 30.570    626.184    647.338    -21.155    578.264    593.294    632.301    578.264    578.264
 30.670    707.000    650.233     56.767    577.996    597.469    630.747    577.996    577.996
 30.770    687.000    660.786     26.214    577.731    605.496    632.998    577.731    577.731
 30.870    626.686    680.345    -53.659    577.469    618.209    639.566    577.469    577.469
 30.970    707.792    706.505      1.287    577.208    634.336    649.324    577.208    577.208
 31.070    744.000    730.341     13.659    576.950    648.953    658.274    576.950    576.950
 31.170    789.116    737.619     51.497    576.694    654.170    660.079    576.694    576.694
 31.270    719.801    721.011     -1.210    576.440    645.935    651.464    576.440    576.440
 31.370    733.000    690.174     42.826    576.189    629.649    636.676    576.189    576.189
 31.470    608.168    659.119    -50.951    575.940    613.139    621.896    575.940    575.940
 31.570    603.912    635.293    -31.381    575.693    600.571    610.401    575.693    575.693
 31.670    628.860    619.912      8.948    575.449    592.636    602.716    575.449    575.449
 31.770    629.000    610.994     18.006    575.207    588.243    597.952    575.207    575.207
 31.870    635.000    605.951     29.049    574.967    585.960    594.954    574.967    574.967
 31.970    644.000    602.904     41.096    574.729    584.749    592.881    574.729    574.729
 32.070    619.000    600.849     18.151    574.494    584.059    591.281    574.494    574.494
 32.170    612.000    599.346     12.654    574.261    583.653    589.951    574.261    574.261
 32.270    629.000    598.216     30.784    574.030    583.439    588.804    574.030    574.030
 32.370    583.513    597.385    -13.873    573.801    583.385    587.800    573.801    573.801
 32.470    596.724    596.822     -0.098    573.575    583.479    586.917    573.575    573.575
 32.570    655.000    596.515     58.485    573.351    583.725    586.140    573.351    573.351
 32.670    611.043    596.470     14.573    573.129    584.137    585.461    573.129    573.129
 32.770    603.000    596.707      6.293    572.910    584.739    584.876    572.910    572.910
 32.870    619.000    597.266     21.734    572.692    585.569    584.387    572.692    572.692
 32.970    577.000    598.205    -21.205    572.477    586.682    583.999    572.477    572.477
 33.070    582.004    599.618    -17.614    572.264    588.157    583.724    572.264    572.264
 33.170    637.000    601.644     35.356    572.054    590.114    583.582    572.054    572.054
 33.270    620.853    604.525     16.328    571.845    592.754    583.613    571.845    571.845
 33.370    662.000    608.734     53.266    571.639    596.474    583.896    571.639    571.639
 33.470    637.000    615.334     21.666    571.435    602.156    584.609    571.435    571.435
 33.570    709.000    626.714     82.286    571.234    611.779    586.163    571.234    571.234
 33.670    607.000    647.689    -40.689    571.034    629.332    589.381    571.034    571.034
 33.770    724.000    686.219     37.781    570.837    661.411    595.629    570.837    570.837
 33.870    792.176    752.038     40.138    570.641    716.078    606.575    570.641    570.641
 33.970    867.000    851.469     15.531    570.449    798.573    623.305    570.449    570.449
 34.070   1013.000    978.496     34.504    570.258    903.916    644.785    570.258    570.258
 34.170   1055.000   1104.323    -49.323    570.069   1008.260    666.073    570.069    570.069
 34.270   1140.610   1175.847    -35.237    569.883   1067.625    678.054    569.883    569.883
 34.370   1142.000   1151.153     -9.153    569.698   1047.289    673.535    569.698    569.698
 34.470   1059.077   1046.524     12.554    569.516    960.728    655.305    569.516    569.516
 34.570    895.000    914.970    -19.970    569.336    851.848    632.463    569.336    569.336
 34.670    808.685    798.644     10.041    569.159    755.566    612.243    569.159    569.159
 34.770    747.000    714.538     32.462    568.983    685.964    597.563    568.983    568.983
 34.870    643.000    661.761    -18.761    568.810    642.305    588.269    568.810    568.810
 34.970    630.686    631.634     -0.948    568.638    617.401    582.872    568.638    568.638
 35.070    620.000    614.978      5.022    568.469    603.650    579.797    568.469    568.469
 35.170    607.842    605.344      2.498    568.302    595.709    577.937    568.302    568.302
 35.270    639.576    599.178     40.398    568.137    590.634    576.681    568.137    568.137
 35.370    587.711    594.804     -7.093    567.974    587.036    575.741    567.974    567.974
 35.470    586.000    591.478     -5.478    567.814    584.300    574.992    567.814    567.814
 35.570    640.000    588.849     51.151    567.655    582.133    574.371    567.655    567.655
 35.670    592.458    586.725      5.733    567.498    580.376    573.847    567.498    567.498
 35.770    594.000    584.982      9.018    567.344    578.926    573.400    567.344    567.344
 35.870    557.059    583.537    -26.478    567.192    577.714    573.014    567.192    567.192
 35.970    584.000    582.329      1.671    567.041    576.687    572.682    567.041    567.041
 36.070    598.045    581.314     16.732    566.893    575.810    572.397    566.893    566.893
 36.170    560.000    580.461    -20.461    566.747    575.053    572.154    566.747    566.747
 36.270    635.000    579.746     55.254    566.603    574.396    571.952    566.603    566.603
 36.370    583.068    579.153      3.916    566.461    573.823    571.791    566.461    566.461
 36.470    601.000    578.671     22.329    566.321    573.321    571.671    566.321    566.321
 36.570    579.000    578.295      0.705    566.183    572.883    571.595    566.183    566.183
 36.670    549.000    578.024    -29.024    566.047    572.501    571.570    566.047    566.047
 36.770    578.000    577.861      0.139    565.914    572.173    571.601    565.914    565.914
 36.870    595.000    577.817     17.183    565.782    571.898    571.701    565.782    565.782
 36.970    557.000    577.913    -20.913    565.652    571.681    571.885    565.652    565.652
 37.070    539.000    578.187    -39.187    565.524    571.536    572.174    565.524    565.524
 37.170    557.551    578.709    -21.158    565.399    571.501    572.607    565.399    565.399
 37.270    532.547    579.617    -47.069    565.275    571.646    573.246    565.275    565.275
 37.370    625.000    581.167     43.833    565.153    572.096    574.224    565.153    565.153
 37.470    611.000    583.818     27.182    565.033    573.028    575.823    565.033    565.033
 37.570    610.959    588.328     22.631    564.915    574.622    578.620    564.915    564.915
 37.670    526.000    595.815    -69.815    564.800    576.966    583.647    564.800    564.800
 37.770    618.247    607.626     10.622    564.686    579.900    592.410    564.686    564.686
 37.870    659.619    624.800     34.819    564.574    582.843    606.528    564.574    564.574
 37.970    683.270    647.129     36.141    564.464    584.771    626.818    564.464    564.464
 38.070    698.875    672.338     26.537    564.356    584.798    651.891    564.356    564.356
 38.170    739.435    695.349     44.087    564.250    582.992    676.602    564.250    564.250
 38.270    746.215    707.926     38.290    564.146    580.171    691.898    564.146    564.146
 38.370    714.000    703.060     10.940    564.043    577.136    689.968    564.043    564.043
 38.470    634.000    682.340    -48.340    563.943    574.396    671.890    563.943    563.943
 38.570    675.000    654.673     20.327    563.845    572.219    646.303    563.845    563.845
 38.670    653.000    628.513     24.487    563.748    570.651    621.614    563.748    563.748
 38.770    563.849    608.104    -44.255    563.653    569.591    602.170    563.653    563.653
 38.870    622.413    594.175     28.238    563.561    568.895    588.842    563.561    563.561
 38.970    577.000    585.550     -8.550    563.470    568.437    580.584    563.470    563.470
 39.070    597.000    580.491     16.509    563.381    568.120    575.753    563.381    563.381
 39.170    555.000    577.514    -22.514    563.294    567.885    572.923    563.294    563.294
 39.270    534.000    575.648    -41.648    563.208    567.700    571.157    563.208    563.208
 39.370    621.286    574.366     46.920    563.125    567.548    569.943    563.125    563.125
 39.470    582.613    573.410      9.203    563.043    567.420    569.033    563.043    563.043
 39.570    601.110    572.659     28.450    562.963    567.311    568.312    562.963    562.963
 39.670    563.000    572.052     -9.052    562.885    567.219    567.719    562.885    562.885
 39.770    576.000    571.553      4.447    562.809    567.140    567.223    562.809    562.809
 39.870    604.000    571.139     32.861    562.735    567.075    566.799    562.735    562.735
 39.970    581.000    570.792     10.208    562.662    567.021    566.434    562.662    562.662
 40.070    589.000    570.503     18.497    562.592    566.980    566.114    562.592    562.592
 40.170    589.000    570.260     18.740    562.523    566.950    565.833    562.523    562.523
 40.270    588.000    570.059     17.941    562.455    566.932    565.582    562.455    562.455
 40.370    505.000    569.894    -64.894    562.390    566.927    565.357    562.390    562.390
 40.470    550.000    569.761    -19.761    562.326    566.934    565.153    562.326    562.326
 40.570    564.665    569.660     -4.995    562.264    566.956    564.969    562.264    562.264
 40.670    555.704    569.588    -13.884    562.204    566.992    564.800    562.204    562.204
 40.770    564.000    569.545     -5.545    562.145    567.045    564.646    562.145    562.145
 40.870    586.000    569.532     16.468    562.088    567.117    564.504    562.088    562.088
 40.970    570.000    569.550      0.450    562.033    567.211    564.373    562.033    562.033
 41.070    553.026    569.602    -16.575    561.980    567.329    564.253    561.980    561.980
 41.170    537.000    569.690    -32.690    561.928    567.477    564.142    561.928    561.928
 41.270    565.723    569.820     -4.098    561.878    567.660    564.040    561.878    561.878
 41.370    548.000    570.000    -22.000    561.830    567.885    563.946    561.830    561.830
 41.470    572.172    570.237      1.935    561.783    568.162    563.860    561.783    561.783
 41.570    576.000    570.547      5.453    561.738    568.503    563.783    561.738    561.738
 41.670    600.784    570.946     29.839    561.695    568.928    563.714    561.695    561.695
 41.770    609.000    571.463     37.537    561.653    569.463    563.654    561.653    561.653
 41.870    561.000    572.148    -11.148    561.613    570.158    563.605    561.613    561.613
 41.970    532.000    573.096    -41.096    561.575    571.103    563.570    561.575    561.575
 42.070    581.000    574.503      6.497    561.538    572.487    563.557    561.538    561.538
 42.170    584.739    576.755      7.984    561.502    574.683    563.578    561.502    561.502
 42.270    548.000    580.539    -32.539    561.469    578.353    563.661    561.469    561.469
 42.370    597.000    586.910     10.090    561.437    584.512    563.843    561.437    561.437
 42.470    556.066    597.154    -41.087    561.406    594.399    564.174    561.406    561.406
 42.570    620.513    612.343      8.170    561.377    609.047    564.693    561.377    561.377
 42.670    620.000    632.553    -12.553    561.350    628.529    565.402    561.350    561.350
 42.770    611.962    655.861    -43.898    561.324    650.994    566.231    561.324    561.324
 42.870    665.000    677.392    -12.392    561.300    671.748    566.995    561.300    561.300
 42.970    713.662    689.716     23.946    561.277    683.634    567.419    561.277    561.277
 43.070    698.000    687.171     10.829    561.256    681.198    567.289    561.256    561.256
 43.170    683.000    671.118     11.882    561.236    665.752    566.657    561.236    561.236
 43.270    627.419    648.423    -21.004    561.218    643.906    565.779    561.218    561.218
 43.370    617.000    625.832     -8.832    561.201    622.158    564.908    561.201    561.201
 43.470    628.000    607.195     20.805    561.185    604.217    564.187    561.185    561.185
 43.570    603.563    593.696      9.867    561.172    591.223    563.660    561.172    561.172
 43.670    624.000    584.851     39.149    561.159    582.710    563.310    561.159    561.159
 43.770    620.000    579.458     40.542    561.148    577.522    563.092    561.148    561.148
 43.870    555.000    576.282    -21.282    561.139    574.467    562.959    561.139    561.139
 43.970    537.232    574.386    -37.154    561.131    572.644    562.876    561.131    561.131
 44.070    581.000    573.189      7.811    561.124    571.495    562.821    561.124    561.124
 44.170    580.000    572.378      7.622    561.119    570.715    562.784    561.119    561.119
 44.270    613.602    571.794     41.808    561.115    570.153    562.757    561.115    561.115
 44.370    570.000    571.360     -1.360    561.113    569.735    562.739    561.113    561.113
 44.470    604.000    571.034     32.966    561.112    569.420    562.727    561.112    561.112
 44.570    535.804    570.792    -34.988    561.112    569.185    562.720    561.112    561.112
 44.670    558.263    570.618    -12.355    561.114    569.014    562.719    561.114    561.114
 44.770    577.000    570.499      6.501    561.117    568.894    562.722    561.117    561.117
 44.870    611.588    570.426     41.162    561.121    568.818    562.730    561.121    561.121
 44.970    558.000    570.393    -12.393    561.127    568.780    562.741    561.127    561.127
 45.070    559.741    570.396    -10.655    561.134    568.774    562.757    561.134    561.134
 45.170    571.000    570.430      0.570    561.143    568.797    562.776    561.143    561.143
 45.270    565.961    570.494     -4.533    561.152    568.847    562.799    561.152    561.152
 45.370    523.056    570.584    -47.529    561.163    568.921    562.827    561.163    561.163
 45.470    582.000    570.701     11.299    561.176    569.019    562.858    561.176    561.176
 45.570    527.000    570.843    -43.843    561.189    569.139    562.893    561.189    561.189
 45.670    555.620    571.011    -15.391    561.204    569.282    562.932    561.204    561.204
 45.770    566.620    571.204     -4.585    561.220    569.448    562.976    561.220    561.220
 45.870    585.000    571.424     13.576    561.237    569.637    563.024    561.237    561.237
 45.970    585.965    571.672     14.292    561.256    569.850    563.078    561.256    561.256
 46.070    539.000    571.950    -32.950    561.275    570.089    563.136    561.275    561.275
 46.170    560.580    572.261    -11.680    561.296    570.357    563.200    561.296    561.296
 46.270    594.747    572.607     22.140    561.318    570.655    563.269    561.318    561.318
 46.370    618.046    572.992     45.053    561.342    570.987    563.346    561.342    561.342
 46.470    566.000    573.423     -7.423    561.366    571.359    563.429    561.366    561.366
 46.570    591.000    573.905     17.095    561.392    571.775    563.520    561.392    561.392
 46.670    615.648    574.447     41.202    561.419    572.243    563.621    561.419    561.419
 46.770    572.000    575.061     -3.061    561.447    572.774    563.732    561.447    561.447
 46.870    526.976    575.763    -48.787    561.476    573.382    563.855    561.476    561.476
 46.970    561.000    576.579    -15.579    561.506    574.089    563.993    561.506    561.506
 47.070    571.000    577.554     -6.554    561.537    574.938    564.151    561.537    561.537
 47.170    532.585    578.773    -46.188    561.570    576.004    564.336    561.570    561.570
 47.270    553.000    580.398    -27.398    561.603    577.432    564.565    561.603    561.603
 47.370    583.000    582.713      0.287    561.638    579.480    564.865    561.638    561.638
 47.470    619.000    586.174     32.826    561.674    582.560    565.280    561.674    561.674
 47.570    589.803    591.409     -1.605    561.710    587.240    565.868    561.710    561.710
 47.670    549.318    599.113    -49.795    561.748    594.150    566.696    561.748    561.748
 47.770    588.888    609.808    -20.921    561.787    603.759    567.813    561.787    561.787
 47.870    637.000    623.463     13.537    561.827    616.038    569.219    561.827    561.827
 47.970    647.000    639.052      7.948    561.868    630.059    570.819    561.868    561.868
 48.070    620.455    654.152    -33.697    561.910    643.623    572.387    561.910    561.910
 48.170    715.000    664.998     50.002    561.952    653.320    573.574    561.952    561.952
 48.270    666.000    667.998     -1.998    561.996    655.893    574.045    561.996    561.996
 48.370    651.000    662.424    -11.424    562.041    650.679    573.736    562.041    562.041
 48.470    622.000    651.169    -29.169    562.087    640.293    572.922    562.087    562.087
 48.570    621.000    638.330    -17.330    562.134    628.440    571.992    562.134    562.134
 48.670    594.000    626.956    -32.956    562.181    617.876    571.238    562.181    562.181
 48.770    588.670    618.603    -29.933    562.230    610.002    570.815    562.230    562.230
 48.870    632.000    613.689     18.311    562.279    605.185    570.772    562.279    562.279
 48.970    638.000    611.954     26.046    562.330    603.175    571.100    562.330    562.330
 49.070    555.000    612.877    -57.877    562.381    603.482    571.770    562.381    562.381
 49.170    606.000    616.009    -10.009    562.433    605.668    572.769    562.433    562.433
 49.270    620.000    621.206     -1.206    562.487    609.554    574.133    562.487    562.487
 49.370    608.659    628.879    -20.220    562.540    615.410    576.004    562.540    562.540
 49.470    642.000    640.509      1.491    562.595    624.351    578.746    562.595    562.595
 49.570    635.000    659.748    -24.748    562.651    639.175    583.211    562.651    562.651
 49.670    733.883    694.340     39.543    562.707    665.842    591.185    562.707    562.707
 49.770    708.000    758.505    -50.505    562.765    715.297    605.936    562.765    562.765
 49.870    829.000    874.113    -45.113    562.823    804.383    632.487    562.823    562.823
 49.970   1029.000   1067.635    -38.635    562.882    953.493    676.919    562.882    562.882
 50.070   1402.323   1360.035     42.288    562.941   1178.784    744.042    562.941    562.941
 50.170   1690.000   1750.136    -60.136    563.002   1479.402    833.545    563.002    563.002
 50.270   2257.584   2197.522     60.062    563.063   1824.212    936.172    563.063    563.063
 50.370   2606.813   2614.003     -7.190    563.125   2145.211   1031.753    563.125    563.125
 50.470   2707.000   2877.782   -170.782    563.188   2348.660   1092.241    563.188    563.188
 50.570   2796.000   2889.780    -93.780    563.251   2358.246   1094.839    563.251    563.251
 50.670   2503.000   2645.447   -142.447    563.315   2170.467   1038.447    563.315    563.315
 50.770   2240.000   2239.170      0.830    563.380   1858.076    944.669    563.380    563.380
 50.870   1850.614   1794.299     56.315    563.446   1516.175    841.758    563.446    563.446
 50.970   1394.000   1403.199     -9.199    563.512   1216.014    750.852    563.512    563.512
 51.070   1115.040   1110.145      4.894    563.579    991.758    682.080    563.579    563.579
 51.170    943.000    918.611     24.389    563.647    846.058    636.279    563.647    563.647
 51.270    829.982    808.018     21.963    563.715    762.894    608.894    563.715    563.715
 51.370    763.000    750.512     12.488    563.784    720.457    593.882    563.784    563.784
 51.470    728.000    721.724      6.276    563.853    699.434    586.180    563.853    563.853
 51.570    702.355    704.979     -2.625    563.923    686.411    582.525    563.923    563.923
 51.670    715.000    691.619     23.381    563.994    674.447    581.195    563.994    563.994
 51.770    672.000    679.130     -7.130    564.065    661.804    581.413    564.065    564.065
 51.870    643.594    667.956    -24.362    564.137    649.322    582.787    564.137    564.137
 51.970    636.000    658.952    -22.952    564.210    638.229    584.942    564.210    564.210
 52.070    688.000    652.339     35.661    564.283    629.315    587.310    564.283    564.283
 52.170    607.479    647.584    -40.105    564.356    622.854    589.086    564.356    564.356
 52.270    654.000    643.727     10.273    564.430    618.737    589.419    564.430    564.430
 52.370    638.000    640.080     -2.080    564.505    616.656    587.926    564.505    564.505
 52.470    706.000    636.723     69.277    564.580    616.288    585.013    564.580    564.580
 52.570    656.000    634.281     21.719    564.656    617.432    581.503    564.656    564.656
 52.670    653.000    633.533     19.467    564.732    620.135    578.130    564.732    564.732
 52.770    634.000    635.354     -1.354    564.808    624.819    575.343    564.808    564.808
 52.870    612.000    640.919    -28.919    564.886    632.476    573.328    564.886    564.886
 52.970    651.366    652.020     -0.654    564.963    644.899    572.083    564.963    564.963
 53.070    679.160    671.362      7.798    565.041    664.886    571.516    565.041    565.041
 53.170    721.000    702.630     18.370    565.120    696.212    571.534    565.120    565.120
 53.270    757.427    750.004      7.422    565.198    743.120    572.078    565.198    565.198
 53.370    742.000    816.950    -74.950    565.278    809.130    573.091    565.278    565.278
 53.470    886.428    904.445    -18.016    565.357    895.247    574.547    565.357    565.357
 53.570   1066.000   1008.811     57.189    565.437    997.818    576.422    565.437    565.437
 53.670   1084.000   1119.285    -35.285    565.518   1106.348    578.449    565.518    565.518
 53.770   1144.000   1216.780    -72.780    565.599   1202.129    580.250    565.599    565.599
 53.870   1248.000   1276.447    -28.447    565.680   1260.790    581.347    565.680    565.680
 53.970   1282.000   1278.662      3.338    565.761   1263.082    581.361    565.761    565.761
 54.070   1287.725   1222.735     64.989    565.843   1208.328    580.278    565.843    565.843
 54.170   1155.141   1127.514     27.627    565.925   1115.014    578.455    565.925    565.925
 54.270   1046.000   1017.989     28.011    566.008   1007.656    576.368    566.008    566.008
 54.370    847.000    913.727    -66.727    566.090    905.451    574.389    566.090    566.090
 54.470    844.000    825.881     18.119    566.173    819.342    572.730    566.173    566.173
 54.570    758.000    758.527     -0.527    566.257    753.330    571.467    566.257    566.257
 54.670    713.000    710.857      2.143    566.340    706.620    570.586    566.340    566.340
 54.770    721.854    679.373     42.481    566.424    675.786    570.017    566.424    566.424
 54.870    673.000    659.758     13.242    566.508    656.591    569.679    566.508    566.508
 54.970    606.716    648.115    -41.399    566.592    645.213    569.496    566.592    566.592
 55.070    652.000    641.525     10.475    566.677    638.791    569.413    566.677    566.677
 55.170    628.706    638.086     -9.380    566.762    635.457    569.391    566.762    566.762
 55.270    630.000    636.691     -6.691    566.846    634.128    569.410    566.846    566.846
 55.370    640.000    636.765      3.235    566.932    634.240    569.458    566.932    566.932
 55.470    664.970    638.051     26.919    567.017    635.539    569.529    567.017    567.017
 55.570    637.986    640.474     -2.489    567.102    637.955    569.621    567.102    567.102
 55.670    669.658    644.092     25.567    567.188    641.545    569.734    567.188    567.188
 55.770    712.000    649.089     62.911    567.274    646.492    569.870    567.274    567.274
 55.870    630.000    655.860    -25.860    567.359    653.185    570.033    567.359    567.359
 55.970    614.033    665.184    -51.152    567.445    662.394    570.234    567.445    567.445
 56.070    690.000    678.590     11.410    567.531    675.627    570.490    567.531    567.531
 56.170    729.169    698.936     30.233    567.618    695.707    570.839    567.618    567.618
 56.270    688.881    731.205    -42.325    567.704    727.552    571.343    567.704    567.704
 56.370    735.000    783.280    -48.280    567.790    778.945    572.102    567.790    567.790
 56.470    852.200    866.161    -13.961    567.876    860.747    573.255    567.876    567.876
 56.570   1012.000    992.877     19.123    567.963    985.821    574.966    567.963    567.963
 56.670   1109.000   1175.389    -66.389    568.049   1165.982    577.389    568.049    568.049
 56.770   1390.000   1419.492    -29.492    568.136   1406.954    580.596    568.136    568.136
 56.870   1727.000   1718.658      8.342    568.222   1702.299    584.505    568.222    568.222
 56.970   2019.000   2048.307    -29.307    568.309   2027.752    588.808    568.309    568.309
 57.070   2384.000   2361.963     22.037    568.395   2337.431    592.919    568.395    568.395
 57.170   2667.000   2593.294     73.706    568.482   2565.835    596.003    568.482    568.482
 57.270   2771.464   2675.242     96.222    568.568   2646.735    597.213    568.568    568.568
 57.370   2643.000   2579.503     63.497    568.655   2552.154    596.197    568.655    568.655
 57.470   2421.000   2339.291     81.709    568.741   2314.869    593.375    568.741    568.741
 57.570   2075.000   2023.404     51.596    568.827   2002.810    589.623    568.827    568.827
 57.670   1692.000   1697.110     -5.110    568.913   1680.422    585.774    568.913    568.913
 57.770   1434.000   1404.933     29.067    569.000   1391.654    582.414    569.000    569.000
 57.870   1173.000   1169.726      3.274    569.086   1159.038    579.872    569.086    569.086
 57.970    997.000    996.957      0.043    569.171    987.893    578.301    569.171    569.171
 58.070    888.000    880.680      7.320    569.257    872.191    577.787    569.257    569.257
 58.170    824.271    809.852     14.419    569.343    800.752    578.466    569.343    569.343
 58.270    762.000    773.457    -11.457    569.428    762.282    580.613    569.428    569.428
 58.370    767.961    763.442      4.519    569.514    748.293    584.661    569.514    569.514
 58.470    789.832    775.412     14.420    569.599    753.898    591.101    569.599    569.599
 58.570    780.000    807.679    -27.679    569.684    777.083    600.256    569.684    569.684
 58.670    825.000    859.459    -34.459    569.769    817.216    611.977    569.769    569.769
 58.770    910.315    928.922    -18.608    569.854    873.365    625.367    569.854    569.854
 58.870   1010.000   1011.534     -1.534    569.938    942.789    638.635    569.938    569.938
 58.970   1067.000   1099.153    -32.153    570.022   1019.915    649.214    570.022    570.022
 59.070   1145.000   1181.048    -36.048    570.106   1096.699    654.419    570.106    570.106
 59.170   1238.000   1247.625     -9.625    570.190   1165.026    652.769    570.190    570.190
 59.270   1263.125   1293.458    -30.333    570.273   1218.765    644.966    570.273    570.273
 59.370   1323.585   1315.727      7.858    570.357   1252.761    633.341    570.357    570.357
 59.470   1341.000   1312.406     28.594    570.440   1262.356    620.523    570.440    570.440
 59.570   1320.000   1285.543     34.457    570.522   1247.531    608.574    570.522    570.522
 59.670   1210.573   1244.901    -34.329    570.605   1216.815    598.723    570.605    570.605
 59.770   1138.326   1204.977    -66.651    570.687   1184.282    591.392    570.687    570.687
 59.870   1129.432   1178.922    -49.490    570.769   1163.276    586.389    570.769    570.769
 59.970   1197.000   1175.491     21.509    570.850   1163.084    583.188    570.850    570.850
 60.070   1239.000   1199.412     39.588    570.931   1189.025    581.200    570.931    570.931
 60.170   1271.195   1252.235     18.960    571.012   1243.125    579.956    571.012    571.012
 60.270   1368.000   1331.055     36.945    571.092   1322.783    579.154    571.092    571.092
 60.370   1377.093   1425.700    -48.608    571.172   1417.995    578.633    571.172    571.172
 60.470   1523.000   1517.124      5.876    571.252   1509.809    578.306    571.252    571.252
 60.570   1611.000   1579.307     31.693    571.331   1572.256    578.129    571.331    571.331
 60.670   1637.000   1587.283     49.717    571.410   1580.397    578.073    571.410    571.410
 60.770   1560.000   1530.622     29.378    571.489   1523.806    578.123    571.489    571.489
 60.870   1374.946   1420.505    -45.559    571.567   1413.654    578.279    571.567    571.567
 60.970   1268.000   1281.387    -13.387    571.644   1274.382    578.551    571.644    571.644
 61.070   1151.000   1137.991     13.009    571.721   1130.682    578.962    571.721    571.721
 61.170   1038.005   1008.621     29.384    571.798   1000.817    579.555    571.798    571.798
 61.270    960.710    903.965     56.746    571.874    895.390    580.415    571.874    571.874
 61.370    812.000    828.156    -16.156    571.950    818.381    581.697    571.950    571.950
 61.470    776.000    780.932     -4.932    572.025    769.261    583.669    572.025    572.025
 61.570    740.000    760.212    -20.212    572.100    745.522    586.758    572.100    572.100
 61.670    778.000    764.340     13.660    572.174    744.894    591.578    572.174    572.174
 61.770    834.000    793.311     40.689    572.248    766.592    598.909    572.248    572.248
 61.870    840.523    848.668     -8.145    572.321    811.324    609.584    572.321    572.321
 61.970    922.000    932.154    -10.154    572.394    880.169    624.270    572.394    572.394
 62.070   1023.000   1043.539    -20.539    572.466    972.701    643.160    572.466    572.466
 62.170   1159.000   1178.223    -19.223    572.538   1084.942    665.639    572.538    572.538
 62.270   1347.000   1325.260     21.740    572.609   1207.653    690.005    572.609    572.609
 62.370   1539.301   1466.284     73.017    572.679   1325.406    713.327    572.679    572.679
 62.470   1571.000   1576.444     -5.444    572.749   1417.355    731.606    572.749    572.749
 62.570   1678.760   1630.117     48.643    572.819   1462.012    740.714    572.819    572.819
 62.670   1658.847   1612.416     46.431    572.887   1446.884    738.250    572.887    572.887
 62.770   1555.000   1528.262     26.738    572.955   1376.079    725.017    572.955    572.955
 62.870   1457.485   1398.956     58.529    573.023   1267.436    704.465    573.023    573.023
 62.970   1195.000   1250.561    -55.561    573.090   1142.792    680.814    573.090    573.090
 63.070   1101.000   1105.064     -4.064    573.156   1020.572    657.625    573.156    573.156
 63.170    999.631    977.094     22.537    573.221    913.036    637.271    573.221    573.221
 63.270    842.000    873.963    -31.963    573.286    826.308    620.938    573.286    573.286
 63.370    811.000    797.006     13.994    573.350    761.505    608.849    573.350    573.350
 63.470    754.000    743.534     10.466    573.414    716.370    600.574    573.414    573.414
 63.570    725.000    708.909     16.091    573.476    687.011    595.367    573.476    573.476
 63.670    674.000    688.279    -14.279    573.539    669.356    592.453    573.539    573.539
 63.770    682.000    677.701      4.299    573.600    660.085    591.204    573.600    573.600
 63.870    699.000    674.661     24.339    573.661    657.060    591.246    573.661    573.661
 63.970    662.000    678.175    -16.175    573.720    659.389    592.487    573.720    573.720
 64.070    675.000    688.666    -13.666    573.780    667.279    595.141    573.780    573.780
 64.170    677.000    707.719    -30.719    573.838    681.791    599.731    573.838    573.838
 64.270    747.000    737.719      9.281    573.896    704.485    607.082    573.896    573.896
 64.370    792.000    781.316     10.684    573.952    736.944    618.258    573.952    573.952
 64.470    803.758    840.659    -36.900    574.009    780.175    634.405    574.009    574.009
 64.570    913.000    916.430     -3.430    574.064    833.917    656.466    574.064    574.064
 64.670    989.000   1006.770    -17.770    574.118    895.955    684.796    574.118    574.118
 64.770   1135.881   1106.274     29.607    574.172    961.549    718.736    574.172    574.172
 64.870   1304.000   1205.398     98.602    574.225   1023.212    756.234    574.225    574.225
 64.970   1390.000   1291.012     98.988    574.277   1071.481    793.625    574.277    574.277
 65.070   1298.059   1349.029    -50.970    574.328   1097.480    825.702    574.328    574.328
 65.170   1435.335   1368.800     66.535    574.379   1096.551    846.473    574.379    574.379
 65.270   1383.000   1347.009     35.991    574.428   1070.259    851.053    574.428    574.428
 65.370   1361.524   1288.994     72.529    574.477   1025.233    838.146    574.477    574.477
 65.470   1288.000   1206.775     81.225    574.525    970.314    810.925    574.525    574.525
 65.570   1120.366   1114.453      5.914    574.571    913.779    775.212    574.571    574.571
 65.670   1008.000   1023.850    -15.850    574.617    861.556    736.899    574.617    574.617
 65.770    921.122    942.561    -21.439    574.663    816.701    700.527    574.663    574.663
 65.870    867.000    874.047     -7.047    574.707    779.813    668.954    574.707    574.707
 65.970    812.000    818.745     -6.745    574.750    750.016    643.498    574.750    574.750
 66.070    754.238    775.457    -21.220    574.792    726.019    624.249    574.792    574.792
 66.170    718.000    742.392    -24.392    574.834    706.753    610.489    574.834    574.834
 66.270    676.000    717.671    -41.671    574.874    691.461    601.098    574.874    574.874
 66.370    697.000    699.557     -2.557    574.914    679.579    594.901    574.914    574.914
 66.470    699.779    686.589     13.190    574.952    670.669    590.879    574.952    574.952
 66.570    659.785    677.663    -17.878    574.990    664.401    588.255    574.990    574.990
 66.670    712.911    672.016     40.895    575.027    660.547    586.497    575.027    575.027
 66.770    640.580    669.174    -28.594    575.062    658.968    585.268    575.062    575.062
 66.870    679.989    668.899     11.090    575.097    659.623    584.372    575.097    575.097
 66.970    666.000    671.208     -5.208    575.130    662.637    583.701    575.130    575.130
 67.070    623.000    676.473    -53.473    575.163    668.435    583.201    575.163    575.163
 67.170    648.765    685.605    -36.841    575.195    677.944    582.855    575.195    575.195
 67.270    674.000    700.307    -26.307    575.225    692.859    582.672    575.225    575.225
 67.370    694.000    723.371    -29.371    575.255    715.938    582.685    575.255    575.255
 67.470    732.204    758.934    -26.730    575.283    751.260    582.953    575.283    575.283
 67.570    777.000    812.539    -35.539    575.311    804.280    583.563    575.311    575.311
 67.670    930.287    890.804     39.482    575.337    881.513    584.618    575.337    575.337
 67.770    992.000   1000.530     -8.530    575.362    989.652    586.226    575.362    575.362
 67.870   1086.000   1147.154    -61.154    575.387   1134.050    588.474    575.387    575.387
 67.970   1337.000   1332.714      4.286    575.410   1316.716    591.393    575.410    575.410
 68.070   1503.000   1553.641    -50.641    575.432   1534.145    594.921    575.432    575.432
 68.170   1777.000   1798.820    -21.820    575.453   1775.412    598.869    575.453    575.453
 68.270   1981.000   2048.221    -67.221    575.473   2020.826    602.902    575.473    575.473
 68.370   2253.000   2272.627    -19.627    575.491   2241.660    606.531    575.491    575.491
 68.470   2483.000   2436.309     46.691    575.509   2402.781    609.160    575.509    575.509
 68.570   2575.000   2506.016     68.984    575.526   2471.487    610.233    575.526    575.526
 68.670   2437.000   2465.487    -28.487    575.541   2431.778    609.479    575.541    575.541
 68.770   2301.858   2324.560    -22.703    575.555   2293.319    607.059    575.555    575.555
 68.870   2086.000   2113.303    -27.303    575.568   2085.669    603.474    575.568    575.568
 68.970   1868.000   1867.751      0.249    575.580   1844.267    599.323    575.580    575.580
 69.070   1554.735   1619.237    -64.502    575.591   1599.931    595.128    575.591    575.591
 69.170   1403.000   1390.320     12.680    575.600   1374.852    591.265    575.600    575.600
 69.270   1255.000   1194.451     60.549    575.609   1182.264    587.953    575.609    575.609
 69.370   1086.414   1037.098     49.316    575.616   1027.546    585.288    575.616    575.616
 69.470    925.000    917.546      7.454    575.622    909.997    583.259    575.622    575.622
 69.570    809.000    831.072    -22.072    575.627    824.976    581.785    575.627    575.627
 69.670    744.618    771.067    -26.449    575.630    765.985    580.755    575.630    575.630
 69.770    833.000    730.731    102.269    575.633    726.336    580.057    575.633    575.633
 69.870    750.000    704.132     45.868    575.634    700.196    579.590    575.634    575.634
 69.970    636.331    686.674    -50.343    575.634    683.043    579.278    575.634    575.634
 70.070    622.752    675.104    -52.352    575.632    671.678    579.067    575.632    575.632
 70.170    698.000    667.296     30.704    575.630    664.010    578.921    575.630    575.630
 70.270    704.459    661.947     42.512    575.626    658.757    578.820    575.626    575.626
 70.370    691.000    658.304     32.696    575.621    655.178    578.749    575.621    575.621
 70.470    676.000    655.959     20.041    575.614    652.870    578.703    575.614    575.614
 70.570    686.000    654.714     31.286    575.607    651.640    578.680    575.607    575.607
 70.670    675.000    654.519     20.481    575.598    651.436    578.678    575.598    575.598
 70.770    659.000    655.445      3.555    575.588    652.329    578.699    575.588    575.588
 70.870    688.784    657.720     31.064    575.576    654.539    578.750    575.576    575.576
 70.970    649.000    661.784    -12.784    575.564    658.498    578.841    575.564    575.564
 71.070    659.000    668.405     -9.405    575.549    664.952    578.990    575.549    575.549
 71.170    667.000    678.813    -11.813    575.534    675.106    579.224    575.534    575.534
 71.270    683.000    694.858    -11.858    575.517    690.765    579.587    575.517    575.517
 71.370    738.995    719.128     19.867    575.499    714.457    580.137    575.499    575.499
 71.470    781.591    754.963     26.628    575.480    749.446    580.950    575.480    575.480
 71.570    821.305    806.275     15.030    575.459    799.553    582.116    575.459    575.459
 71.670    834.000    877.084    -43.084    575.437    868.705    583.727    575.437    575.437
 71.770    974.000    970.750      3.250    575.414    960.188    585.860    575.414    575.414
 71.870   1145.000   1088.955     56.045    575.389   1075.642    588.554    575.389    575.389
 71.970   1211.000   1230.564    -19.564    575.363   1213.962    591.784    575.363    575.363
 72.070   1344.000   1390.591    -46.591    575.336   1370.275    595.439    575.336    575.336
 72.170   1531.000   1559.389    -28.389    575.307   1535.155    599.300    575.307    575.307
 72.270   1701.139   1722.240    -21.101    575.277   1694.224    603.036    575.277    575.277
 72.370   1784.597   1859.812    -75.215    575.245   1828.589    606.209    575.245    575.245
 72.470   1930.000   1950.745    -20.745    575.212   1917.378    608.335    575.212    575.212
 72.570   1992.000   1977.671     14.329    575.178   1943.611    609.022    575.178    575.178
 72.670   1896.167   1934.763    -38.596    575.142   1901.589    608.139    575.142    575.142
 72.770   1782.773   1830.870    -48.097    575.105   1799.950    605.886    575.105    575.105
 72.870   1766.249   1684.987     81.262    575.067   1657.256    602.694    575.067    575.067
 72.970   1499.202   1518.502    -19.300    575.027   1494.411    599.044    575.027    575.027
 73.070   1322.000   1349.856    -27.856    574.985   1329.445    595.346    574.985    574.985
 73.170   1225.000   1192.586     32.414    574.943   1175.596    591.898    574.943    574.943
 73.270    988.000   1055.182    -67.182    574.899   1041.179    588.879    574.899    574.899
 73.370    995.694    941.637     54.057    574.853    930.107    586.368    574.853    574.853
 73.470    807.419    852.323    -44.904    574.806    842.749    584.369    574.806    574.806
 73.570    746.000    785.084    -39.084    574.757    776.993    582.840    574.757    574.757
 73.670    690.001    736.357    -46.356    574.707    729.339    581.718    574.707    574.707
 73.770    717.000    702.139     14.861    574.656    695.854    580.935    574.656    574.656
 73.870    673.000    678.682     -5.682    574.603    672.848    580.432    574.603    574.603
 73.970    695.000    662.883     32.117    574.549    657.261    580.168    574.549    574.549
 74.070    675.000    652.410     22.590    574.493    646.784    580.117    574.493    574.493
 74.170    687.000    645.649     41.351    574.436    639.813    580.272    574.436    574.436
 74.270    614.288    641.560    -27.272    574.377    635.305    580.635    574.377    574.377
 74.370    637.000    639.500     -2.500    574.317    632.612    581.211    574.317    574.317
 74.470    640.000    639.065      0.935    574.256    631.330    582.001    574.256    574.256
 74.570    604.671    639.960    -35.289    574.193    631.177    582.991    574.193    574.193
 74.670    674.000    641.903     32.097    574.128    631.904    584.147    574.128    574.128
 74.770    663.000    644.564     18.436    574.062    633.241    585.411    574.062    574.062
 74.870    662.000    647.525     14.475    573.994    634.858    586.693    573.994    573.994
 74.970    654.000    650.272      3.728    573.925    636.358    587.876    573.925    573.925
 75.070    655.000    652.233      2.767    573.855    637.300    588.829    573.855    573.855
 75.170    619.720    652.903    -33.183    573.783    637.295    589.435    573.783    573.783
 75.270    696.000    652.023     43.977    573.709    636.135    589.642    573.709    573.709
 75.370    715.000    649.720     65.280    573.634    633.900    589.497    573.634    573.634
 75.470    710.000    646.484     63.516    573.558    630.934    589.144    573.558    573.558
 75.570    659.525    643.020     16.504    573.480    627.738    588.793    573.480    573.480
 75.670    676.000    640.115     35.885    573.400    624.854    588.685    573.400    573.400
 75.770    677.653    638.566     39.087    573.319    622.821    589.081    573.319    573.319
 75.870    647.000    639.178      7.822    573.236    622.161    590.262    573.236    573.236
 75.970    663.000    642.762     20.238    573.152    623.382    592.532    573.152    573.152
 76.070    621.000    650.118    -29.118    573.066    626.971    596.205    573.066    573.066
 76.170    649.489    661.981    -12.492    572.979    633.361    601.580    572.979    572.979
 76.270    634.404    678.931    -44.527    572.890    642.888    608.905    572.890    572.890
 76.370    714.276    701.259     13.018    572.800    655.707    618.311    572.800    572.800
 76.470    738.000    728.804      9.196    572.708    671.706    629.754    572.708    572.708
 76.570    759.000    760.816     -1.816    572.615    690.422    642.944    572.615    572.615
 76.670    852.355    795.810     56.545    572.520    710.958    657.295    572.520    572.520
 76.770    822.000    831.476     -9.476    572.423    731.927    671.886    572.423    572.423
 76.870    894.000    864.675     29.325    572.325    751.451    685.454    572.325    572.325
 76.970    915.000    891.607     23.393    572.226    767.263    696.470    572.226    572.226
 77.070    930.000    908.388     21.612    572.125    777.046    703.368    572.125    572.125
 77.170    945.000    912.120     32.880    572.022    779.071    704.978    572.022    572.022
 77.270    881.000    902.027    -21.027    571.918    772.874    700.987    571.918    571.918
 77.370    829.000    879.821    -50.821    571.812    759.470    692.089    571.812    571.812
 77.470    820.000    848.939    -28.939    571.704    740.907    679.676    571.704    571.704
 77.570    836.230    813.324     22.906    571.596    719.528    665.341    571.596    571.596
 77.670    762.000    776.516    -14.516    571.485    697.444    650.518    571.485    571.485
 77.770    748.000    741.267      6.733    571.373    676.289    636.321    571.373    571.373
 77.870    684.000    709.462    -25.462    571.259    657.188    623.511    571.259    571.259
 77.970    679.000    682.183     -3.183    571.144    640.782    612.529    571.144    571.144
 78.070    622.153    659.815    -37.662    571.027    627.301    603.529    571.027    571.027
 78.170    649.617    642.206      7.411    570.909    616.654    596.451    570.909    570.909
 78.270    650.000    628.842     21.158    570.789    608.534    591.090    570.789    570.789
 78.370    673.000    619.020     53.980    570.668    602.522    587.159    570.668    570.668
 78.470    650.436    611.991     38.446    570.545    598.171    584.359    570.545    570.545
 78.570    640.000    607.060     32.940    570.420    595.067    582.408    570.420    570.420
 78.670    638.000    603.648     34.352    570.294    592.864    581.074    570.294    570.294
 78.770    572.488    601.303    -28.815    570.166    591.292    580.174    570.166    570.166
 78.870    555.457    599.702    -44.245    570.037    590.157    579.578    570.037    570.037
 78.970    564.000    598.624    -34.624    569.906    589.328    579.199    569.906    569.906
 79.070    584.000    597.932    -13.932    569.773    588.720    578.982    569.773    569.773
 79.170    574.000    597.548    -23.548    569.639    588.287    578.897    569.639    569.639
 79.270    601.000    597.435      3.565    569.503    588.005    578.930    569.503    569.503
 79.370    641.341    597.592     43.748    569.366    587.869    579.086    569.366    569.366
 79.470    569.963    598.042    -28.079    569.227    587.887    579.380    569.227    569.227
 79.570    598.432    598.836     -0.405    569.087    588.076    579.844    569.087    569.087
 79.670    589.000    600.058    -11.058    568.945    588.466    580.533    568.945    568.945
 79.770    558.344    601.832    -43.489    568.801    589.094    581.536    568.801    568.801
 79.870    590.000    604.347    -14.347    568.656    590.010    582.987    568.656    568.656
 79.970    666.000    607.872     58.128    568.510    591.282    585.092    568.510    568.510
 80.070    644.000    612.791     31.209    568.361    592.998    588.145    568.361    568.361
 80.170    566.000    619.628    -53.628    568.211    595.274    592.555    568.211    568.211
 80.270    618.101    629.068    -10.967    568.060    598.261    598.853    568.060    568.060
 80.370    651.000    641.955      9.045    567.907    602.150    607.695    567.907    567.907
 80.470    642.000    659.256    -17.256    567.752    607.166    619.820    567.752    567.752
 80.570    672.433    681.983     -9.550    567.596    613.565    635.988    567.596    567.596
 80.670    687.000    711.073    -24.073    567.439    621.617    656.862    567.439    567.439
 80.770    752.708    747.228      5.480    567.279    631.592    682.878    567.279    567.279
 80.870    832.000    790.725     41.275    567.118    643.725    714.076    567.118    567.118
 80.970    855.000    841.202     13.798    566.956    658.167    749.946    566.956    566.956
 81.070    854.000    897.449    -43.449    566.792    674.900    789.294    566.792    566.792
 81.170    930.000    957.251    -27.251    566.627    693.667    830.164    566.627    566.627
 81.270   1059.000   1017.358     41.642    566.459    713.913    869.862    566.459    566.459
 81.370   1107.000   1073.667     33.333    566.291    734.787    905.135    566.291    566.291
 81.470   1147.337   1121.711     25.626    566.121    755.214    932.593    566.121    566.121
 81.570   1098.078   1157.460    -59.382    565.949    774.037    949.361    565.949    565.949
 81.670   1142.333   1178.126    -35.793    565.775    790.187    953.719    565.775    565.775
 81.770   1144.890   1182.565    -37.675    565.601    802.784    945.401    565.601    565.601
 81.870   1137.788   1171.315    -33.527    565.424    811.268    925.505    565.424    565.424
 81.970   1199.786   1146.305     53.481    565.246    815.411    896.188    565.246    565.246
 82.070   1171.000   1110.419     60.581    565.067    815.239    860.307    565.067    565.067
 82.170   1077.000   1067.057      9.943    564.885    810.995    821.018    564.885    564.885
 82.270   1021.837   1019.513      2.324    564.703    802.998    781.293    564.703    564.703
 82.370    983.000    970.603     12.397    564.519    791.646    743.554    564.519    564.519
 82.470    880.228    922.599    -42.370    564.333    777.514    709.497    564.333    564.333
 82.570    879.375    877.243      2.132    564.146    761.387    680.078    564.146    564.146
 82.670    838.000    835.710      2.290    563.957    744.126    655.615    563.957    563.957
 82.770    826.850    798.574     28.276    563.767    726.483    635.926    563.767    563.767
 82.870    761.000    765.881     -4.881    563.575    709.016    620.502    563.575    563.575
 82.970    743.000    737.368      5.632    563.382    692.137    608.669    563.382    563.382
 83.070    760.432    712.698     47.734    563.187    676.206    599.728    563.187    563.187
 83.170    728.488    691.599     36.889    562.990    661.587    593.044    562.990    562.990
 83.270    648.000    673.896    -25.896    562.793    648.630    588.093    562.793    562.793
 83.370    655.000    659.478     -4.478    562.593    637.625    584.471    562.593    562.593
 83.470    637.000    648.253    -11.253    562.392    628.776    581.886    562.392    562.392
 83.570    637.948    640.122     -2.174    562.190    622.188    580.133    562.190    562.190
 83.670    677.101    634.953     42.149    561.986    617.866    579.073    561.986    561.986
 83.770    613.000    632.553    -19.553    561.781    615.722    578.604    561.781    561.781
 83.870    598.000    632.649    -34.649    561.574    615.564    578.642    561.574    561.574
 83.970    602.000    634.865    -32.865    561.366    617.108    579.098    561.366    561.366
 84.070    615.000    638.716    -23.716    561.156    619.971    579.869    561.156    561.156
 84.170    635.000    643.604     -8.604    560.945    623.679    580.831    560.945    560.945
 84.270    620.000    648.835    -28.835    560.732    627.685    581.837    560.732    560.732
 84.370    638.000    653.640    -15.640    560.518    631.386    582.722    560.518    560.518
 84.470    615.122    657.237    -42.115    560.302    634.171    583.316    560.302    560.302
 84.570    653.000    658.939     -5.939    560.085    635.502    583.469    560.085    560.085
 84.670    562.000    658.296    -96.296    559.867    635.030    583.081    559.867    559.867
 84.770    649.000    655.217     -6.217    559.647    632.677    582.138    559.647    559.647
 84.870    606.000    649.968    -43.968    559.425    628.644    580.705    559.425    559.425
 84.970    669.979    643.081     26.898    559.202    623.333    578.912    559.202    559.202
 85.070    601.000    635.197    -34.197    558.978    617.227    576.914    558.978    558.978
 85.170    596.000    626.944    -30.944    558.752    610.801    574.867    558.752    558.752
 85.270    602.000    618.870    -16.870    558.525    604.459    572.913    558.525    558.525
 85.370    578.000    611.413    -33.413    558.297    598.517    571.172    558.297    558.297
 85.470    584.000    604.891    -20.891    558.067    593.196    569.745    558.067    558.067
 85.570    595.168    599.513     -4.346    557.835    588.622    568.713    557.835    557.835
 85.670    631.504    595.390     36.114    557.603    584.842    568.138    557.603    557.603
 85.770    588.000    592.553     -4.553    557.369    581.841    568.068    557.369    557.369
 85.870    627.000    590.977     36.023    557.133    579.560    568.538    557.133    557.133
 85.970    579.549    590.600    -11.051    556.896    577.917    569.565    556.896    556.896
 86.070    613.000    591.337     21.663    556.658    576.828    571.152    556.658    556.658
 86.170    591.000    593.090     -2.090    556.418    576.220    573.272    556.418    556.418
 86.270    620.000    595.754     24.246    556.177    576.043    575.869    556.177    556.177
 86.370    627.907    599.211     28.696    555.935    576.275    578.849    555.935    555.935
 86.470    591.000    603.337    -12.337    555.692    576.928    582.075    555.692    555.692
 86.570    588.912    607.994    -19.082    555.447    578.050    585.361    555.447    555.447
 86.670    616.000    613.032      2.968    555.200    579.719    588.480    555.200    555.200
 86.770    655.000    618.295     36.705    554.953    582.041    591.169    554.953    554.953
 86.870    640.000    623.635     16.365    554.704    585.142    593.153    554.704    554.704
 86.970    645.936    628.946     16.990    554.454    589.158    594.194    554.454    554.454
 87.070    608.000    634.205    -26.205    554.202    594.213    594.139    554.202    554.202
 87.170    653.000    639.491     13.509    553.949    600.406    592.973    553.949    553.949
 87.270    676.110    644.968     31.142    553.695    607.782    590.811    553.695    553.695
 87.370    689.000    650.812     38.188    553.440    616.306    587.867    553.440    553.440
 87.470    677.000    657.139     19.861    553.183    625.841    584.392    553.183    553.183
 87.570    687.000    663.931     23.069    552.926    636.126    580.632    552.926    552.926
 87.670    679.377    671.009      8.369    552.667    646.764    576.802    552.667    552.667
 87.770    659.564    678.009    -18.445    552.406    657.219    573.078    552.406    552.406
 87.870    722.234    684.399     37.834    552.145    666.823    569.595    552.145    552.145
 87.970    709.000    689.519     19.481    551.882    674.827    566.442    551.882    551.882
 88.070    683.440    692.683     -9.243    551.618    680.498    563.670    551.618    551.618
 88.170    715.000    693.352     21.648    551.353    683.282    561.292    551.353    551.353
 88.270    720.000    691.296     28.704    551.086    682.965    559.293    551.086    551.086
 88.370    709.083    686.683     22.400    550.819    679.747    557.641    550.819    550.819
 88.470    725.000    680.017     44.983    550.550    674.174    556.292    550.550    550.550
 88.570    629.395    672.001    -42.607    550.280    666.994    555.200    550.280    550.280
 88.670    665.000    663.395      1.605    550.009    659.011    554.321    550.009    550.009
 88.770    641.000    654.932    -13.932    549.737    650.995    553.616    549.737    549.737
 88.870    614.000    647.263    -33.263    549.464    643.630    553.053    549.464    549.464
 88.970    642.000    640.927      1.073    549.189    637.479    552.606    549.189    549.189
 89.070    614.000    636.317    -22.317    548.914    632.958    552.255    548.914    548.914
 89.170    586.000    633.664    -47.664    548.637    630.312    551.982    548.637    548.637
 89.270    583.000    633.021    -50.021    548.359    629.610    551.774    548.359    548.359
 89.370    667.402    634.268     33.134    548.080    630.747    551.616    548.080    548.080
 89.470    607.000    637.125    -30.125    547.800    633.454    551.495    547.800    547.800
 89.570    649.629    641.164      8.465    547.519    637.321    551.395    547.519    547.519
 89.670    635.000    645.837    -10.837    547.237    641.817    551.299    547.237    547.237
 89.770    643.480    650.503     -7.023    546.954    646.318    551.188    546.954    546.954
 89.870    664.685    654.473     10.212    546.670    650.157    551.042    546.670    546.670
 89.970    652.000    657.082     -5.082    546.385    652.686    550.842    546.385    546.385
 90.070    686.926    657.795     29.131    546.099    653.386    550.572    546.099    546.099
 90.170    644.000    656.314    -12.314    545.812    651.966    550.226    545.812    545.812
 90.270    612.802    652.645    -39.843    545.523    648.430    549.804    545.523    545.523
 90.370    677.000    647.063     29.937    545.234    643.043    549.317    545.234    545.234
 90.470    618.000    640.028    -22.028    544.944    636.250    548.782    544.944    544.944
 90.570    555.000    632.070    -77.070    544.653    628.563    548.215    544.653    544.653
 90.670    604.000    623.704    -19.704    544.361    620.479    547.634    544.361    544.361
 90.770    647.000    615.380     31.620    544.068    612.435    547.054    544.068    544.068
 90.870    582.814    607.462    -24.648    543.775    604.784    546.488    543.775    543.775
 90.970    621.000    600.220     20.780    543.480    597.785    545.944    543.480    543.480
 91.070    594.136    593.831      0.305    543.184    591.610    545.428    543.184    543.184
 91.170    577.494    588.387    -10.893    542.888    586.350    544.943    542.888    542.888
 91.270    582.000    583.912     -1.912    542.591    582.027    544.489    542.591    542.591
 91.370    601.935    580.372     21.563    542.292    578.607    544.067    542.292    542.292
 91.470    573.000    577.701     -4.701    541.993    576.028    543.673    541.993    541.993
 91.570    573.000    575.816     -2.816    541.694    574.208    543.305    541.694    541.694
 91.670    599.000    574.634     24.366    541.393    573.068    542.960    541.393    541.393
 91.770    573.000    574.089     -1.089    541.091    572.544    542.636    541.091    541.091
 91.870    590.883    574.140     16.743    540.789    572.595    542.332    540.789    540.789
 91.970    585.000    574.781     10.219    540.486    573.216    542.047    540.486    540.486
 92.070    539.724    576.041    -36.317    540.182    574.435    541.783    540.182    540.182
 92.170    566.000    577.990    -11.990    539.878    576.318    541.542    539.878    539.878
 92.270    594.824    580.732     14.092    539.573    578.968    541.327    539.573    539.573
 92.370    593.981    584.404      9.578    539.267    582.516    541.142    539.267    539.267
 92.470    619.000    589.166     29.834    538.960    587.119    540.992    538.960    538.960
 92.570    587.356    595.191     -7.835    538.653    592.944    540.881    538.653    538.653
 92.670    602.000    602.650     -0.650    538.345    600.157    540.814    538.345    538.345
 92.770    582.000    611.693    -29.693    538.036    608.906    540.795    538.036    538.036
 92.870    641.881    622.435     19.446    537.727    619.304    540.823    537.727    537.727
 92.970    681.528    634.936     46.592    537.417    631.412    540.899    537.417    537.417
 93.070    651.000    649.183      1.817    537.106    645.222    541.019    537.106    537.106
 93.170    638.000    665.079    -27.079    536.795    660.642    541.177    536.795    536.795
 93.270    645.772    682.430    -36.658    536.484    677.486    541.365    536.484    536.484
 93.370    721.803    700.937     20.866    536.171    695.467    541.572    536.171    536.171
 93.470    712.000    720.198     -8.198    535.859    714.192    541.787    535.859    535.859
 93.570    739.000    739.723     -0.723    535.545    733.184    542.001    535.545    535.545
 93.670    702.754    758.981    -56.227    535.231    751.917    542.208    535.231    535.231
 93.770    793.000    777.474     15.526    534.917    769.891    542.410    534.917    534.917
 93.870    851.308    794.881     56.427    534.602    786.770    542.621    534.602    534.602
 93.970    820.000    811.131      8.869    534.287    802.451    542.873    534.287    534.287
 94.070    774.431    826.385    -51.954    533.971    817.048    543.213    533.971    533.971
 94.170    816.000    840.994    -24.994    533.655    830.854    543.701    533.655    533.655
 94.270    848.894    855.353     -6.459    533.338    844.196    544.401    533.338    533.338
 94.370    866.000    869.766     -3.766    533.021    857.320    545.375    533.021    533.021
 94.470    895.000    884.379     10.621    532.704    870.321    546.670    532.704    532.704
 94.570    897.764    899.181     -1.416    532.386    883.159    548.318    532.386    532.386
 94.670    935.000    914.072     20.928    532.068    895.729    550.322    532.068    532.068
 94.770    911.000    928.924    -17.924    531.749    907.931    552.655    531.749    531.749
 94.870    907.000    943.588    -36.588    531.431    919.676    555.258    531.431    531.431
 94.970    984.000    957.826     26.174    531.112    930.823    558.033    531.112    531.112
 95.070    960.165    971.202    -11.037    530.792    941.066    560.850    530.792    530.792
 95.170    924.709    983.004    -58.294    530.473    949.855    563.548    530.473    530.473
 95.270   1038.972    992.234     46.738    530.153    956.376    565.943    530.153    530.153
 95.370   1054.058    997.704     56.354    529.833    959.632    567.844    529.833    529.833
 95.470   1056.768    998.211     58.556    529.512    958.603    569.069    529.512    529.512
 95.570   1002.000    992.833      9.167    529.192    952.500    569.483    529.192    529.192
 95.670    940.000    981.158    -41.158    528.871    940.981    569.015    528.871    528.871
 95.770    882.000    963.470    -81.470    528.550    924.314    567.683    528.550    528.550
 95.870    948.000    940.732      7.268    528.230    903.363    565.583    528.230    528.230
 95.970    974.000    914.413     59.587    527.909    879.443    562.870    527.909    527.909
 96.070    865.758    886.260    -20.502    527.587    854.113    559.731    527.587    527.587
 96.170    845.942    858.101    -12.159    527.266    829.012    556.355    527.266    527.266
 96.270    912.000    831.715     80.285    526.945    805.741    552.919    526.945    526.945
 96.370    870.000    808.756     61.244    526.624    785.800    549.578    526.624    526.624
 96.470    801.000    790.714     10.286    526.302    770.557    546.455    526.302    526.302
 96.570    751.000    778.899    -27.899    525.981    761.227    543.644    525.981    525.981
 96.670    818.000    774.412     43.588    525.660    758.851    541.205    525.660    525.660
 96.770    830.000    778.115     51.885    525.339    764.261    539.169    525.339    525.339
 96.870    817.000    790.822     26.178    525.018    778.262    537.544    525.018    525.018
 96.970    763.594    812.950    -49.356    524.697    801.284    536.318    524.697    524.697
 97.070    916.000    844.716     71.284    524.376    833.571    535.465    524.376    524.376
 97.170    934.000    886.062     47.938    524.055    875.098    534.951    524.055    524.055
 97.270   1040.000    936.601    103.399    523.734    925.518    534.737    523.734    523.734
 97.370   1050.000    995.568     54.432    523.414    984.109    534.782    523.414    523.414
 97.470   1027.000   1061.754    -34.754    523.093   1049.707    535.038    523.093    523.093
 97.570   1092.124   1133.493    -41.369    522.773   1120.696    535.458    522.773    522.773
 97.670   1230.891   1208.577     22.314    522.453   1194.923    535.987    522.453    522.453
 97.770   1303.000   1284.270     18.730    522.134   1269.713    536.566    522.134    522.134
 97.870   1367.000   1357.334      9.666    521.815   1341.889    537.133    521.815    521.815
 97.970   1451.395   1424.111     27.284    521.496   1407.866    537.617    521.496    521.496
 98.070   1567.000   1480.739     86.261    521.177   1463.850    537.951    521.177    521.177
 98.170   1459.648   1523.523    -63.875    520.859   1506.210    538.068    520.859    520.859
 98.270   1611.000   1549.450     61.550    520.541   1531.988    537.916    520.541    520.541
 98.370   1483.000   1556.741    -73.741    520.223   1539.431    537.466    520.223    520.223
 98.470   1498.179   1545.208    -47.029    519.906   1528.352    536.716    519.906    519.906
 98.570   1536.000   1516.270     19.730    519.589   1500.142    535.690    519.589    519.589
 98.670   1464.000   1472.630     -8.630    519.273   1457.458    534.436    519.273    519.273
 98.770   1423.000   1417.781      5.219    518.957   1403.731    533.013    518.957    518.957
 98.870   1299.216   1355.531    -56.314    518.642   1342.708    531.483    518.642    518.642
 98.970   1282.000   1289.646     -7.646    518.328   1278.094    529.905    518.328    518.328
 99.070   1259.000   1223.631     35.369    518.013   1213.341    528.333    518.013    518.013
 99.170   1145.194   1160.602    -15.409    517.700   1151.520    526.813    517.700    517.700
 99.270   1073.000   1103.235    -30.235    517.387   1095.271    525.379    517.387    517.387
 99.370   1031.210   1053.756    -22.545    517.075   1046.795    524.060    517.075    517.075
 99.470   1034.000   1013.964     20.036    516.763   1007.871    522.875    516.763    516.763
 99.570    969.287    985.263    -15.976    516.452    979.895    521.833    516.452    516.452
 99.670    925.000    968.695    -43.695    516.142    963.904    520.938    516.142    516.142
 99.770    948.000    964.967    -16.967    515.832    960.608    520.187    515.832    515.832
 99.870   1013.000    974.468     38.532    515.523    970.406    519.575    515.523    515.523
 99.970   1000.000    997.289      2.711    515.215    993.399    519.088    515.215    515.215
100.070   1036.332   1033.225      3.107    514.908   1029.395    518.715    514.908    514.908
100.170   1075.000   1081.773     -6.773    514.602   1077.908    518.440    514.602    514.602
100.270   1214.000   1142.121     71.879    514.296   1138.143    518.246    514.296    514.296
100.370   1277.000   1213.119     63.881    513.992   1208.967    518.115    513.992    513.992
100.470   1350.000   1293.243     56.757    513.688   1288.874    518.031    513.688    513.688
100.570   1389.000   1380.628      8.372    513.385   1376.019    517.975    513.385    513.385
100.670   1491.000   1472.934     18.066    513.083   1468.078    517.929    513.083    513.083
100.770   1617.000   1567.439     49.561    512.783   1562.346    517.876    512.783    512.783
100.870   1707.000   1661.108     45.892    512.483   1655.809    517.799    512.483    512.483
100.970   1784.000   1750.776     33.224    512.184   1745.311    517.683    512.184    512.184
101.070   1829.000   1833.406     -4.406    511.886   1827.828    517.519    511.886    511.886
101.170   2027.000   1906.372    120.628    511.590   1900.737    517.301    511.590    511.590
101.270   1911.202   1967.646    -56.444    511.294   1962.007    517.030    511.294    511.294
101.370   1952.931   2015.804    -62.873    511.000   2010.207    516.714    511.000    511.000
101.470   2093.000   2049.869     43.131    510.707   2044.346    516.365    510.707    510.707
101.570   2129.000   2069.107     59.893    510.415   2063.675    515.998    510.415    510.415
101.670   2122.000   2072.924     49.076    510.124   2067.585    515.629    510.124    510.124
101.770   2087.000   2060.972     26.028    509.835   2055.711    515.271    509.835    509.835
101.870   2056.000   2033.423     22.577    509.546   2028.215    514.938    509.546    509.546
101.970   1981.000   1991.293    -10.293    509.260   1986.102    514.639    509.260    509.260
102.070   1950.000   1936.610     13.390    508.974   1931.395    514.379    508.974    508.974
102.170   1772.000   1872.318   -100.318    508.690   1867.034    514.161    508.690    508.690
102.270   1869.155   1801.921     67.234    508.407   1796.526    513.984    508.407    508.407
102.370   1539.000   1729.028   -190.028    508.126   1723.486    513.842    508.126    508.126
102.470   1724.149   1656.935     67.215    507.846   1651.218    513.726    507.846    507.846
102.570   1516.097   1588.343    -72.246    507.568   1582.437    513.626    507.568    507.568
102.670   1512.884   1525.223    -12.338    507.291   1519.127    513.527    507.291    507.291
102.770   1391.000   1468.773    -77.773    507.016   1462.501    513.417    507.016    507.016
102.870   1420.939   1419.444      1.495    506.742   1413.021    513.285    506.742    506.742
102.970   1332.533   1376.992    -44.459    506.470   1370.453    513.119    506.470    506.470
103.070   1332.529   1340.555     -8.026    506.200   1333.945    512.913    506.200    506.200
103.170   1244.000   1308.765    -64.765    505.931   1302.134    512.660    505.931    505.931
103.270   1287.018   1279.895      7.123    505.664   1273.300    512.353    505.664    505.664
103.370   1179.000   1252.070    -73.070    505.399   1245.572    511.989    505.399    505.399
103.470   1278.434   1223.519     54.915    505.135   1217.182    511.563    505.135    505.135
103.570   1227.094   1192.830     34.264    504.873   1186.717    511.077    504.873    504.873
103.670   1143.000   1159.139    -16.139    504.613   1153.309    510.534    504.613    504.613
103.770   1124.000   1122.192      1.808    504.355   1116.693    509.943    504.355    504.355
103.870   1138.976   1082.275     56.702    504.099   1077.147    509.315    504.099    504.099
103.970   1006.452   1040.073    -33.621    503.845   1035.341    508.661    503.845    503.845
104.070   1015.000    996.485     18.515    503.593    992.161    507.997    503.593    503.593
104.170    929.434    952.472    -23.039    503.343    948.558    507.333    503.343    503.343
104.270    944.000    908.971     35.029    503.094    905.456    506.680    503.094    503.094
104.370    905.000    866.828     38.172    502.848    863.694    506.047    502.848    502.848
104.470    839.000    826.766     12.234    502.604    823.989    505.439    502.604    502.604
104.570    844.694    789.351     55.343    502.362    786.905    504.860    502.362    502.362
104.670    806.000    755.048     50.952    502.122    752.900    504.317    502.122    502.122
104.770    731.062    724.135      6.927    501.885    722.248    503.811    501.885    501.885
104.870    758.000    696.734     61.266    501.649    695.076    503.341    501.649    501.649
104.970    709.000    672.845     36.155    501.416    671.383    502.906    501.416    501.416
105.070    654.000    652.357      1.643    501.185    651.061    502.504    501.185    501.185
105.170    601.124    635.073    -33.949    500.957    633.914    502.134    500.957    500.957
105.270    618.755    620.735     -1.979    500.730    619.689    501.791    500.730    500.730
105.370    661.000    609.053     51.947    500.506    608.097    501.474    500.506    500.506
105.470    649.000    599.727     49.273    500.285    598.840    501.180    500.285    500.285
105.570    572.706    592.467    -19.761    500.066    591.633    500.906    500.066    500.066
105.670    607.000    587.009     19.991    499.850    586.211    500.650    499.850    499.850
105.770    608.000    583.123     24.877    499.636    582.349    500.410    499.636    499.636
105.870    566.979    580.623    -13.644    499.424    579.861    500.185    499.424    499.424
105.970    618.000    579.368     38.632    499.216    578.605    499.975    499.216    499.216
106.070    575.318    579.255     -3.937    499.010    578.482    499.777    499.010    499.010
106.170    598.000    580.225     17.775    498.806    579.431    499.593    498.806    498.806
106.270    617.000    582.249     34.751    498.605    581.423    499.421    498.605    498.605
106.370    601.446    585.326     16.120    498.407    584.457    499.264    498.407    498.407
106.470    607.000    589.470     17.530    498.212    588.547    499.120    498.212    498.212
106.570    639.000    594.710     44.290    498.020    593.719    498.991    498.020    498.020
106.670    664.000    601.070     62.930    497.830    600.001    498.878    497.830    497.830
106.770    569.230    608.572    -39.342    497.644    607.411    498.779    497.644    497.644
106.870    639.000    617.214     21.786    497.460    615.949    498.696    497.460    497.460
106.970    634.000    626.968      7.032    497.279    625.588    498.627    497.279    497.279
107.070    627.000    637.768    -10.768    497.101    636.260    498.573    497.101    497.101
107.170    638.799    649.501    -10.702    496.926    647.856    498.532    496.926    496.926
107.270    655.988    662.004     -6.017    496.755    660.215    498.501    496.755    496.755
107.370    671.000    675.064     -4.064    496.586    673.126    498.477    496.586    496.586
107.470    710.714    688.411     22.303    496.421    686.323    498.458    496.421    496.421
107.570    700.000    701.729     -1.729    496.259    699.495    498.440    496.259    496.259
107.670    723.053    714.659      8.394    496.100    712.287    498.417    496.100    496.100
107.770    705.254    726.811    -21.556    495.944    724.314    498.385    495.944    495.944
107.870    752.000    737.789     14.211    495.792    735.186    498.338    495.792    495.792
107.970    743.000    747.219     -4.219    495.642    744.535    498.271    495.642    495.642
108.070    702.000    754.798    -52.798    495.497    752.060    498.181    495.497    495.497
108.170    810.558    760.336     50.222    495.355    757.575    498.064    495.355    495.355
108.270    736.000    763.797    -27.797    495.216    761.046    497.919    495.216    495.216
108.370    745.000    765.312    -20.312    495.080    762.601    497.748    495.080    495.080
108.470    750.000    765.163    -15.163    494.949    762.520    497.552    494.949    494.949
108.570    706.968    763.741    -56.772    494.821    761.190    497.336    494.821    494.821
108.670    781.000    761.491     19.509    494.696    759.050    497.106    494.696    494.696
108.770    741.035    758.859    -17.823    494.575    756.542    496.866    494.575    494.575
108.870    765.941    756.250      9.692    494.458    754.065    496.621    494.458    494.458
108.970    692.000    753.996    -61.996    494.345    751.945    496.378    494.345    494.345
109.070    744.770    752.339     -7.569    494.235    750.422    496.139    494.235    494.235
109.170    757.000    751.421      5.579    494.129    749.634    495.907    494.129    494.129
109.270    758.306    751.277      7.029    494.027    749.612    495.687    494.027    494.027
109.370    749.000    751.835     -2.835    493.929    750.283    495.479    493.929    493.929
109.470    711.206    752.921    -41.716    493.835    751.473    495.285    493.835    493.835
109.570    708.000    754.266    -46.266    493.745    752.911    495.104    493.745    493.745
109.670    749.141    755.523     -6.381    493.659    754.251    494.938    493.659    493.659
109.770    743.000    756.290    -13.290    493.577    755.096    494.781    493.577    493.577
109.870    730.000    756.154    -26.154    493.499    755.034    494.632    493.499    493.499
109.970    731.000    754.750    -23.750    493.425    753.691    494.500    493.425    493.425
110.070    703.172    751.776    -48.603    493.356    750.772    494.377    493.356    493.356
110.170    692.618    747.056    -54.438    493.291    746.104    494.262    493.291    493.291
110.270    731.000    740.563     -9.563    493.230    739.659    494.154    493.230    493.230
110.370    781.848    732.408     49.440    493.173    731.551    494.052    493.173    493.173
110.470    722.000    722.816     -0.816    493.121    722.002    493.957    493.121    493.121
110.570    734.000    712.084     21.916    493.073    711.311    493.867    493.073    493.073
110.670    698.101    700.541     -2.440    493.030    699.809    493.784    493.030    493.030
110.770    671.000    688.525    -17.525    492.991    687.830    493.706    492.991    492.991
110.870    664.000    676.370    -12.370    492.957    675.710    493.636    492.957    492.957
110.970    652.000    664.359    -12.359    492.927    663.731    493.572    492.927    492.927
111.070    641.000    652.746    -11.746    492.902    652.147    493.516    492.902    492.902
111.170    641.000    641.743     -0.743    492.882    641.172    493.467    492.882    492.882
111.270    625.000    631.523     -6.523    492.867    630.976    493.425    492.867    492.867
111.370    584.567    622.214    -37.647    492.856    621.687    493.392    492.856    492.856
111.470    555.000    613.904    -58.904    492.850    613.395    493.366    492.850    492.850
111.570    638.441    606.642     31.799    492.849    606.147    493.349    492.849    492.849
111.670    625.000    600.441     24.559    492.853    599.958    493.339    492.853    492.853
111.770    607.000    595.287     11.713    492.862    594.812    493.337    492.862    492.862
111.870    624.895    591.137     33.758    492.875    590.668    493.343    492.875    492.875
111.970    561.000    587.932    -26.932    492.894    587.467    493.357    492.894    492.894
112.070    574.000    585.597    -11.597    492.918    585.134    493.378    492.918    492.918
112.170    610.000    584.051     25.949    492.948    583.588    493.406    492.948    492.948
112.270    622.000    583.209     38.791    492.982    582.744    493.440    492.982    492.982
112.370    571.408    582.985    -11.576    493.022    582.517    493.482    493.022    493.022
112.470    571.250    583.298    -12.048    493.066    582.826    493.529    493.066    493.066
112.570    611.000    584.075     26.925    493.117    583.599    493.583    493.117    493.117
112.670    576.426    585.250     -8.824    493.172    584.769    493.643    493.172    493.172
112.770    595.653    586.769      8.884    493.234    586.284    493.708    493.234    493.234
112.870    603.000    588.591     14.409    493.300    588.100    493.779    493.300    493.300
112.970    621.000    590.687     30.313    493.372    590.192    493.856    493.372    493.372
113.070    545.109    593.044    -47.936    493.450    592.544    493.939    493.450    493.450
113.170    601.000    595.663      5.337    493.533    595.157    494.027    493.533    493.533
113.270    554.395    598.560    -44.165    493.623    598.048    494.122    493.623    493.623
113.370    608.360    601.768      6.592    493.717    601.249    494.223    493.717    493.717
113.470    620.973    605.334     15.639    493.818    604.807    494.331    493.818    493.818
113.570    654.152    609.327     44.825    493.924    608.790    494.447    493.924    493.924
113.670    624.000    613.835     10.165    494.037    613.287    494.571    494.037    494.037
113.770    609.000    618.976     -9.976    494.155    618.412    494.704    494.155    494.155
113.870    581.071    624.900    -43.828    494.279    624.316    494.846    494.279    494.279
113.970    624.498    631.798     -7.300    494.410    631.191    494.999    494.410    494.410
114.070    618.000    639.919    -21.919    494.546    639.282    495.163    494.546    494.546
114.170    659.000    649.576      9.424    494.688    648.903    495.340    494.688    494.688
114.270    628.000    661.162    -33.162    494.837    660.444    495.530    494.837    494.837
114.370    634.000    675.167    -41.167    494.992    674.396    495.734    494.992    494.992
114.470    678.000    692.197    -14.197    495.153    691.362    495.954    495.153    495.153
114.570    716.000    712.991      3.009    495.321    712.080    496.192    495.321    495.321
114.670    706.799    738.442    -31.643    495.495    737.441    496.448    495.495    495.495
114.770    776.665    769.608      7.057    495.676    768.503    496.723    495.676    495.676
114.870    819.000    807.731     11.269    495.863    806.504    497.019    495.863    495.863
114.970    872.708    854.240     18.468    496.056    852.874    497.338    496.056    496.056
115.070    905.000    910.753     -5.753    496.256    909.229    497.679    496.256    496.256
115.170    939.000    979.069    -40.069    496.463    977.365    498.044    496.463    496.463
115.270   1017.000   1061.139    -44.139    496.677   1059.234    498.435    496.677    496.677
115.370   1091.738   1159.035    -67.297    496.897   1156.908    498.850    496.897    496.897
115.470   1264.000   1274.892    -10.892    497.124   1272.520    499.290    497.124    497.124
115.570   1402.000   1410.838     -8.838    497.358   1408.198    499.756    497.358    497.358
115.670   1572.000   1568.905      3.095    497.599   1565.977    500.246    497.599    497.599
115.770   1772.957   1750.925     22.031    497.847   1747.689    500.760    497.847    497.847
115.870   1910.000   1958.410    -48.410    498.102   1954.847    501.296    498.102    498.102
115.970   2281.000   2192.427     88.573    498.364   2188.521    501.852    498.364    498.364
116.070   2542.000   2453.459     88.541    498.633   2449.198    502.426    498.633    498.633
116.170   2732.495   2741.248     -8.753    498.910   2736.626    503.014    498.910    498.910
116.270   3057.126   3054.843      2.284    499.193   3049.855    503.614    499.193    499.193
116.370   3473.000   3392.257     80.743    499.484   3386.905    504.222    499.484    499.484
116.470   3641.000   3750.521   -109.521    499.783   3744.813    504.835    499.783    499.783
116.570   4110.000   4125.636    -15.636    500.089   4119.584    505.448    500.089    500.089
116.670   4647.327   4512.546    134.781    500.402   4506.167    506.059    500.402    500.402
116.770   4807.913   4905.162    -97.249    500.723   4898.478    506.664    500.723    500.723
116.870   5288.661   5296.419     -7.758    501.051   5289.457    507.263    501.051    501.051
116.970   5765.017   5678.379     86.638    501.387   5671.167    507.853    501.387    501.387
117.070   5935.939   6042.377   -106.438    501.731   6034.946    508.434    501.731    501.731
117.170   6311.000   6379.238    -68.238    502.083   6371.622    509.004    502.083    502.083
117.270   6631.000   6679.581    -48.581    502.442   6671.816    509.562    502.442    502.442
117.370   6957.000   6934.231     22.769    502.810   6926.352    510.106    502.810    502.810
117.470   7223.267   7134.747     88.520    503.185   7126.793    510.635    503.185    503.185
117.570   7309.624   7274.043     35.581    503.568   7266.052    511.146    503.568    503.568
117.670   7328.666   7347.008    -18.342    503.960   7339.016    511.637    503.960    503.960
117.770   7400.000   7351.025     48.975    504.359   7343.066    512.107    504.359    504.359
117.870   7373.000   7286.253     86.747    504.767   7278.357    512.554    504.767    504.767
117.970   7260.121   7155.603    104.518    505.183   7147.800    512.977    505.183    505.183
118.070   6978.000   6964.416     13.584    505.607   6956.730    513.376    505.607    505.607
118.170   6677.081   6719.920    -42.840    506.040   6712.373    513.751    506.040    506.040
118.270   6454.000   6430.597     23.403    506.481   6423.210    514.100    506.481    506.481
118.370   5969.558   6105.574   -136.017    506.930   6098.367    514.426    506.930    506.930
118.470   5548.000   5754.111   -206.111    507.388   5747.102    514.727    507.388    507.388
118.570   5239.190   5385.196   -146.006    507.855   5378.404    515.005    507.855    507.855
118.670   5083.000   5007.261     75.739    508.330   5000.703    515.263    508.330    508.330
118.770   4699.000   4627.975     71.025    508.815   4621.665    515.503    508.815    508.815
118.870   4325.000   4254.102     70.898    509.307   4248.054    515.728    509.307    509.307
118.970   3882.441   3891.415     -8.974    509.809   3885.639    515.945    509.809    509.809
119.070   3637.000   3544.648     92.352    510.320   3539.149    516.157    510.320    510.320
119.170   3256.000   3217.490     38.510    510.839   3212.271    516.370    510.839    510.839
119.270   2870.171   2912.616    -42.446    511.368   2907.675    516.591    511.368    511.368
119.370   2624.000   2631.756     -7.756    511.906   2627.087    516.824    511.906    511.906
119.470   2422.771   2375.783     46.988    512.453   2371.377    517.075    512.453    512.453
119.570   2227.000   2144.829     82.171    513.009   2140.674    517.347    513.009    513.009
119.670   1991.834   1938.404     53.430    513.574   1934.484    517.646    513.574    513.574
119.770   1765.000   1755.521      9.479    514.149   1751.818    517.975    514.149    514.149
119.870   1541.513   1594.816    -53.302    514.733   1591.308    518.337    514.733    514.733
119.970   1539.000   1454.655     84.345    515.327   1451.320    518.734    515.327    515.327
120.070   1358.123   1333.241     24.882    515.930   1330.054    519.169    515.930    515.930
120.170   1291.420   1228.698     62.723    516.543   1225.631    519.644    516.543    516.543
120.270   1188.000   1139.147     48.853    517.165   1136.174    520.160    517.165    517.165
120.370   1153.000   1062.770     90.230    517.797   1059.860    520.718    517.797    517.797
120.470   1002.504    997.852      4.652    518.439    994.973    521.320    518.439    518.439
120.570    963.423    942.814     20.609    519.091    939.937    521.965    519.091    519.091
120.670    871.913    896.238    -24.325    519.753    893.328    522.654    519.753    519.753
120.770    886.000    856.867     29.133    520.425    853.892    523.388    520.425    520.425
120.870    822.000    823.612     -1.612    521.106    820.538    524.168    521.106    521.106
120.970    842.130    795.539     46.591    521.798    792.330    524.994    521.798    521.798
121.070    812.000    771.859     40.141    522.501    768.479    525.867    522.501    522.501
121.170    720.000    751.913    -31.913    523.213    748.326    526.788    523.213    523.213
121.270    700.000    735.155    -35.155    523.936    731.322    527.758    523.936    523.936
121.370    721.000    721.137     -0.137    524.669    717.018    528.779    524.669    524.669
121.470    639.000    709.492    -70.492    525.412    705.046    529.851    525.412    525.412
121.570    686.000    699.919    -13.919    526.167    695.104    530.976    526.167    526.167
121.670    699.000    692.174      6.826    526.931    686.946    532.156    526.931    526.931
121.770    658.000    686.056    -28.056    527.707    680.368    533.392    527.707    527.707
121.870    625.000    681.398    -56.398    528.493    675.204    534.686    528.493    528.493
121.970    646.000    678.061    -32.061    529.290    671.312    536.040    529.290    529.290
122.070    679.526    675.925      3.602    530.098    668.570    537.454    530.098    530.098
122.170    631.442    674.886    -43.444    530.916    666.875    538.932    530.916    530.916
122.270    690.778    674.851     15.927    531.746    666.131    540.472    531.746    531.746
122.370    667.000    675.733     -8.733    532.587    666.251    542.076    532.587    532.587
122.470    659.000    677.448    -18.448    533.439    667.153    543.744    533.439    533.439
122.570    609.000    679.915    -70.915    534.302    668.754    545.474    534.302    534.302
122.670    694.978    683.048     11.930    535.177    670.975    547.262    535.177    535.177
122.770    663.249    686.760    -23.511    536.062    673.732    549.106    536.062    536.062
122.870    678.000    690.960    -12.960    536.960    676.939    550.998    536.960    536.960
122.970    713.323    695.548     17.774    537.868    680.505    552.932    537.868    537.868
123.070    648.229    700.422    -52.193    538.789    684.338    554.896    538.789    538.789
123.170    701.000    705.469     -4.469    539.721    688.336    556.879    539.721    539.721
123.270    736.000    710.573     25.427    540.664    692.396    558.869    540.664    540.664
123.370    767.000    715.608     51.392    541.620    696.410    560.849    541.620    541.620
123.470    727.000    720.448      6.552    542.587    700.266    562.803    542.587    542.587
123.570    723.000    724.953     -1.953    543.566    703.843    564.713    543.566    543.566
123.670    713.905    728.975    -15.070    544.558    707.011    566.561    544.558    544.558
123.770    728.000    732.455     -4.455    545.561    709.728    568.329    545.561    545.561
123.870    720.601    735.250    -14.649    546.576    711.869    570.002    546.576    546.576
123.970    726.000    737.264    -11.264    547.604    713.352    571.562    547.604    547.604
124.070    692.000    738.426    -46.426    548.644    714.119    572.999    548.644    548.644
124.170    790.360    738.693     51.667    549.696    714.135    574.304    549.696    549.696
124.270    776.000    738.051     37.949    550.761    713.390    575.472    550.761    550.761
124.370    765.000    736.515     28.485    551.839    711.901    576.502    551.839    551.839
124.470    783.730    734.124     49.606    552.928    709.706    577.397    552.928    552.928
124.570    790.000    730.942     59.058    554.031    706.860    578.163    554.031    554.031
124.670    742.298    727.046     15.251    555.146    703.434    578.808    555.146    555.146
124.770    734.000    722.525     11.475    556.274    699.505    579.342    556.274    556.274
124.870    739.000    717.473     21.527    557.415    695.159    579.776    557.415    557.415
124.970    744.000    711.990     32.010    558.569    690.481    580.123    558.569    558.569
