neutron_powder_diffraction_0196
R_wp: 3.979
Temperature (K): 1074.000
Counts: 84420.00
Wavelength (Ã…): 2.52098
COMMENTS
Test file for demonstrating the .xyy file format in Reel1.0
END OF HEADER
   tth       Y_obs     Y_calc      Y_res    Background    Phase_1_Nuc    Phase_1_Mag    Phase_2_Nuc    Phase_2_Mag
  9.970    592.000    568.735     23.265    568.018    568.683    568.018    568.070    568.018
 10.070    559.000    568.856     -9.856    568.063    568.804    568.063    568.115    568.063
 10.170    554.933    568.968    -14.035    568.103    568.915    568.103    568.155    568.103
 10.270    586.000    569.082     16.918    568.138    569.029    568.138    568.191    568.138
 10.370    594.000    569.204     24.796    568.168    569.150    568.168    568.221    568.168
 10.470    607.417    569.337     38.080    568.193    569.283    568.193    568.247    568.193
 10.570    593.000    569.487     23.513    568.214    569.430    568.214    568.271    568.214
 10.670    613.000    569.656     43.344    568.230    569.597    568.230    568.288    568.230
 10.770    575.000    569.850      5.150    568.241    569.791    568.241    568.299    568.241
 10.870    576.000    570.080      5.920    568.247    570.020    568.247    568.306    568.247
 10.970    567.000    570.359     -3.359    568.249    570.299    568.249    568.309    568.249
 11.070    620.000    570.706     49.294    568.247    570.645    568.247    568.307    568.247
 11.170    534.558    571.146    -36.589    568.240    571.085    568.240    568.300    568.240
 11.270    609.284    571.722     37.561    568.228    571.660    568.228    568.289    568.228
 11.370    591.000    572.507     18.493    568.213    572.444    568.213    568.273    568.213
 11.470    609.000    573.661     35.339    568.192    573.597    568.192    568.253    568.192
 11.570    559.566    575.622    -16.056    568.168    575.557    568.168    568.229    568.168
 11.670    601.263    579.575     21.688    568.139    579.507    568.139    568.201    568.139
 11.770    624.000    588.118     35.882    568.106    588.046    568.106    568.168    568.106
 11.870    670.000    605.218     64.782    568.069    605.135    568.069    568.131    568.069
 11.970    604.236    633.695    -29.459    568.028    633.596    568.028    568.090    568.028
 12.070    673.406    669.703      3.702    567.983    669.584    567.983    568.045    567.983
 12.170    651.545    697.760    -46.214    567.933    697.624    567.933    567.996    567.933
 12.270    650.000    698.619    -48.619    567.880    698.483    567.880    567.943    567.880
 12.370    660.000    671.473    -11.473    567.823    671.352    567.823    567.886    567.823
 12.470    650.009    635.225     14.785    567.761    635.123    567.761    567.825    567.761
 12.570    593.000    606.031    -13.031    567.696    605.945    567.696    567.760    567.696
 12.670    609.682    588.268     21.415    567.627    588.192    567.627    567.692    567.627
 12.770    575.000    579.289     -4.289    567.555    579.218    567.555    567.619    567.555
 12.870    508.000    575.084    -67.084    567.478    575.015    567.478    567.543    567.478
 12.970    588.146    572.960     15.186    567.398    572.892    567.398    567.463    567.398
 13.070    561.627    571.679    -10.052    567.314    571.611    567.314    567.380    567.314
 13.170    555.000    570.781    -15.781    567.227    570.713    567.227    567.293    567.227
 13.270    553.569    570.096    -16.527    567.136    570.028    567.136    567.203    567.136
 13.370    603.000    569.553     33.447    567.041    569.483    567.041    567.110    567.041
 13.470    563.000    569.104     -6.104    566.943    569.034    566.943    567.012    566.943
 13.570    608.551    568.725     39.825    566.842    568.655    566.842    566.911    566.842
 13.670    608.000    568.397     39.603    566.737    568.327    566.737    566.806    566.737
 13.770    569.019    568.107      0.912    566.629    568.036    566.629    566.699    566.629
 13.870    574.190    567.845      6.345    566.517    567.774    566.517    566.587    566.517
 13.970    598.000    567.605     30.395    566.402    567.534    566.402    566.473    566.402
 14.070    571.536    567.381      4.155    566.284    567.309    566.284    566.355    566.284
 14.170    553.000    567.169    -14.169    566.163    567.098    566.163    566.234    566.163
 14.270    572.000    566.968      5.032    566.039    566.896    566.039    566.110    566.039
 14.370    566.448    566.774     -0.326    565.911    566.702    565.911    565.983    565.911
 14.470    545.585    566.586    -21.001    565.780    566.513    565.780    565.852    565.780
 14.570    604.492    566.402     38.089    565.646    566.329    565.646    565.719    565.646
 14.670    534.150    566.224    -32.074    565.510    566.151    565.510    565.583    565.510
 14.770    574.924    566.048      8.876    565.370    565.974    565.370    565.443    565.370
 14.870    528.000    565.871    -37.871    565.227    565.797    565.227    565.301    565.227
 14.970    543.000    565.695    -22.695    565.081    565.620    565.081    565.156    565.081
 15.070    520.000    565.520    -45.520    564.933    565.445    564.933    565.008    564.933
 15.170    557.000    565.344     -8.344    564.782    565.269    564.782    564.857    564.782
 15.270    561.000    565.169     -4.169    564.627    565.093    564.627    564.703    564.627
 15.370    521.000    564.993    -43.993    564.471    564.916    564.471    564.546    564.471
 15.470    545.000    564.816    -19.816    564.311    564.739    564.311    564.387    564.311
 15.570    572.000    564.638      7.362    564.149    564.561    564.149    564.225    564.149
 15.670    604.728    564.459     40.268    563.984    564.382    563.984    564.061    563.984
 15.770    562.601    564.279     -1.679    563.816    564.201    563.816    563.894    563.816
 15.870    603.000    564.099     38.901    563.646    564.021    563.646    563.724    563.646
 15.970    603.000    563.918     39.082    563.473    563.839    563.473    563.552    563.473
 16.070    578.758    563.734     15.024    563.298    563.655    563.298    563.377    563.298
 16.170    534.000    563.548    -29.548    563.120    563.468    563.120    563.200    563.120
 16.270    521.214    563.365    -42.151    562.940    563.280    562.940    563.025    562.940
 16.370    521.673    563.178    -41.505    562.758    563.091    562.758    562.845    562.758
 16.470    505.000    562.988    -57.988    562.573    562.900    562.573    562.661    562.573
 16.570    564.000    562.795      1.205    562.386    562.707    562.386    562.474    562.386
 16.670    568.000    562.601      5.399    562.196    562.512    562.196    562.285    562.196
 16.770    570.000    562.406      7.594    562.005    562.316    562.005    562.094    562.005
 16.870    609.000    562.208     46.792    561.811    562.118    561.811    561.901    561.811
 16.970    601.680    562.009     39.671    561.615    561.919    561.615    561.705    561.615
 17.070    560.505    561.809     -1.304    561.416    561.718    561.416    561.507    561.416
 17.170    560.825    561.606     -0.781    561.216    561.515    561.216    561.307    561.216
 17.270    558.384    561.402     -3.018    561.013    561.310    561.013    561.105    561.013
 17.370    567.000    561.199      5.801    560.809    561.106    560.809    560.901    560.809
 17.470    531.423    560.992    -29.568    560.602    560.898    560.602    560.695    560.602
 17.570    572.046    560.783     11.263    560.393    560.689    560.393    560.487    560.393
 17.670    513.000    560.572    -47.572    560.183    560.477    560.183    560.277    560.183
 17.770    548.000    560.360    -12.360    559.970    560.264    559.970    560.066    559.970
 17.870    518.000    560.146    -42.146    559.756    560.050    559.756    559.852    559.756
 17.970    594.000    559.930     34.070    559.540    559.834    559.540    559.636    559.540
 18.070    531.000    559.713    -28.713    559.322    559.616    559.322    559.419    559.322
 18.170    565.796    559.495      6.301    559.102    559.397    559.102    559.200    559.102
 18.270    595.000    559.275     35.725    558.880    559.176    558.880    558.979    558.880
 18.370    583.000    559.053     23.947    558.657    558.954    558.657    558.756    558.657
 18.470    579.000    558.830     20.170    558.431    558.730    558.431    558.532    558.431
 18.570    552.000    558.606     -6.606    558.205    558.505    558.205    558.305    558.205
 18.670    521.000    558.382    -37.382    557.976    558.280    557.976    558.078    557.976
 18.770    555.000    558.156     -3.156    557.746    558.054    557.746    557.849    557.746
 18.870    543.977    557.928    -13.951    557.514    557.825    557.514    557.618    557.514
 18.970    545.000    557.699    -12.699    557.281    557.595    557.281    557.385    557.281
 19.070    576.000    557.469     18.531    557.047    557.364    557.047    557.151    557.047
 19.170    519.000    557.237    -38.237    556.810    557.131    556.810    556.916    556.810
 19.270    578.202    557.004     21.198    556.573    556.897    556.573    556.679    556.573
 19.370    541.000    556.770    -15.770    556.334    556.662    556.334    556.441    556.334
 19.470    531.000    556.534    -25.534    556.093    556.426    556.093    556.201    556.093
 19.570    571.641    556.298     15.342    555.851    556.189    555.851    555.960    555.851
 19.670    527.926    556.061    -28.135    555.608    555.951    555.608    555.718    555.608
 19.770    532.000    555.823    -23.823    555.363    555.712    555.363    555.474    555.363
 19.870    566.000    555.585     10.415    555.117    555.473    555.117    555.229    555.117
 19.970    507.807    555.359    -47.551    554.870    555.246    554.870    554.983    554.870
 20.070    560.000    555.128      4.872    554.622    555.014    554.622    554.736    554.622
 20.170    580.400    554.888     25.512    554.372    554.773    554.372    554.487    554.372
 20.270    590.819    554.646     36.173    554.122    554.530    554.122    554.238    554.122
 20.370    555.000    554.403      0.597    553.870    554.286    553.870    553.987    553.870
 20.470    547.204    554.160     -6.956    553.617    554.042    553.617    553.735    553.617
 20.570    579.146    553.917     25.230    553.363    553.797    553.363    553.482    553.363
 20.670    555.000    553.673      1.327    553.107    553.552    553.107    553.228    553.107
 20.770    537.000    553.430    -16.430    552.851    553.307    552.851    552.975    552.851
 20.870    555.000    553.187      1.813    552.594    553.061    552.594    552.720    552.594
 20.970    536.000    552.942    -16.942    552.336    552.815    552.336    552.463    552.336
 21.070    541.000    552.697    -11.697    552.077    552.568    552.077    552.205    552.077
 21.170    569.000    552.452     16.548    551.817    552.322    551.817    551.946    551.817
 21.270    588.324    552.207     36.117    551.555    552.076    551.555    551.687    551.555
 21.370    561.000    551.963      9.037    551.294    551.830    551.294    551.426    551.294
 21.470    605.000    551.719     53.281    551.031    551.584    551.031    551.165    551.031
 21.570    563.000    551.475     11.525    550.767    551.339    550.767    550.903    550.767
 21.670    550.000    551.232     -1.232    550.503    551.095    550.503    550.640    550.503
 21.770    526.873    550.990    -24.118    550.238    550.852    550.238    550.376    550.238
 21.870    521.889    550.750    -28.861    549.972    550.609    549.972    550.112    549.972
 21.970    562.471    550.510     11.961    549.705    550.368    549.705    549.847    549.705
 22.070    495.000    550.281    -55.281    549.438    550.137    549.438    549.581    549.438
 22.170    556.314    550.125      6.189    549.170    549.979    549.170    549.315    549.170
 22.270    561.000    549.912     11.088    548.901    549.765    548.901    549.048    548.901
 22.370    588.401    549.686     38.715    548.631    549.537    548.631    548.781    548.631
 22.470    558.000    549.464      8.536    548.362    549.313    548.362    548.513    548.362
 22.570    561.000    549.243     11.757    548.091    549.089    548.091    548.244    548.091
 22.670    553.090    549.032      4.058    547.820    548.877    547.820    547.975    547.820
 22.770    567.606    548.886     18.719    547.548    548.729    547.548    547.706    547.548
 22.870    511.531    548.728    -37.196    547.276    548.568    547.276    547.436    547.276
 22.970    511.000    548.539    -37.539    547.003    548.377    547.003    547.166    547.003
 23.070    556.000    548.359      7.641    546.730    548.195    546.730    546.895    546.730
 23.170    524.000    548.193    -24.193    546.457    548.026    546.457    546.624    546.457
 23.270    579.870    548.046     31.824    546.183    547.876    546.183    546.353    546.183
 23.370    528.000    547.923    -19.923    545.908    547.751    545.908    546.081    545.908
 23.470    536.505    547.832    -11.327    545.634    547.657    545.634    545.810    545.634
 23.570    575.000    547.779     27.221    545.359    547.601    545.359    545.537    545.359
 23.670    551.000    547.779      3.221    545.083    547.598    545.083    545.265    545.083
 23.770    525.000    547.853    -22.853    544.807    547.669    544.807    544.993    544.807
 23.870    570.000    548.033     21.967    544.531    547.846    544.531    544.720    544.531
 23.970    526.812    548.380    -21.567    544.255    548.189    544.255    544.447    544.255
 24.070    519.483    549.033    -29.550    543.979    548.840    543.979    544.175    543.979
 24.170    548.000    550.381     -2.381    543.702    550.185    543.702    543.902    543.702
 24.270    506.250    553.404    -47.154    543.425    553.206    543.425    543.629    543.425
 24.370    581.000    560.042     20.958    543.148    559.845    543.148    543.356    543.148
 24.470    543.000    572.834    -29.834    542.870    572.641    542.870    543.084    542.870
 24.570    629.000    592.866     36.134    542.593    592.683    542.593    542.811    542.593
 24.670    607.000    616.192     -9.192    542.315    616.021    542.315    542.539    542.315
 24.770    606.828    631.529    -24.701    542.038    631.364    542.038    542.266    542.038
 24.870    601.000    627.785    -26.785    541.760    627.612    541.760    541.994    541.760
 24.970    649.225    607.976     41.249    541.482    607.783    541.482    541.722    541.482
 25.070    562.315    584.556    -22.241    541.204    584.340    541.204    541.451    541.204
 25.170    548.132    566.360    -18.228    540.927    566.124    540.927    541.180    540.927
 25.270    622.000    555.325     66.675    540.649    555.073    540.649    540.909    540.649
 25.370    497.615    549.611    -51.996    540.371    549.348    540.371    540.639    540.371
 25.470    545.000    546.810     -1.810    540.093    546.537    540.093    540.370    540.093
 25.570    625.000    545.303     79.697    539.816    545.020    539.816    540.101    539.816
 25.670    554.000    544.330      9.670    539.538    544.037    539.538    539.833    539.538
 25.770    555.000    543.611     11.389    539.260    543.308    539.260    539.565    539.260
 25.870    575.000    543.047     31.953    538.983    542.733    538.983    539.299    538.983
 25.970    582.000    542.583     39.417    538.706    542.256    538.706    539.033    538.706
 26.070    544.000    542.195      1.805    538.429    541.856    538.429    538.768    538.429
 26.170    526.000    541.871    -15.871    538.152    541.518    538.152    538.505    538.152
 26.270    540.830    541.602     -0.772    537.875    541.234    537.875    538.243    537.875
 26.370    573.000    541.381     31.619    537.598    540.997    537.598    537.983    537.598
 26.470    534.000    541.212     -7.212    537.322    540.810    537.322    537.724    537.322
 26.570    506.535    541.116    -34.581    537.046    540.695    537.046    537.467    537.046
 26.670    540.000    541.070     -1.070    536.770    540.627    536.770    537.212    536.770
 26.770    570.000    541.063     28.937    536.495    540.597    536.495    536.960    536.495
 26.870    549.000    541.117      7.883    536.219    540.626    536.219    536.710    536.219
 26.970    512.121    541.259    -29.138    535.945    540.740    535.945    536.464    535.945
 27.070    583.957    541.516     42.441    535.670    540.965    535.670    536.220    535.670
 27.170    565.000    541.898     23.102    535.396    541.311    535.396    535.981    535.396
 27.270    494.776    542.473    -47.697    535.122    541.847    535.122    535.747    535.122
 27.370    567.000    543.318     23.682    534.848    542.647    534.848    535.518    534.848
 27.470    536.000    544.531     -8.531    534.575    543.810    534.575    535.295    534.575
 27.570    581.000    546.471     34.529    534.303    545.692    534.303    535.079    534.303
 27.670    509.455    550.405    -40.950    534.030    549.560    534.030    534.873    534.030
 27.770    561.000    560.907      0.093    533.759    559.983    533.759    534.676    533.759
 27.870    600.682    590.273     10.409    533.487    589.252    533.487    534.492    533.487
 27.970    639.281    658.738    -19.458    533.216    657.593    533.216    534.324    533.216
 28.070    770.000    776.514     -6.514    532.946    775.215    532.946    534.174    532.946
 28.170    946.226    909.971     36.255    532.676    908.501    532.676    534.048    532.676
 28.270   1036.873    975.804     61.069    532.407    974.164    532.407    533.951    532.407
 28.370    881.000    919.317    -38.317    532.138    917.505    532.138    533.893    532.138
 28.470    796.463    798.215     -1.752    531.870    796.179    531.870    533.886    531.870
 28.570    695.000    705.352    -10.352    531.602    702.995    531.602    533.951    531.602
 28.670    748.000    687.794     60.206    531.335    684.994    531.335    534.123    531.335
 28.770    749.000    739.003      9.997    531.069    735.593    531.069    534.461    531.069
 28.870    798.724    814.821    -16.098    530.803    810.549    530.803    535.064    530.803
 28.970    810.000    850.830    -40.830    530.538    845.292    530.538    536.081    530.538
 29.070    776.000    809.430    -33.430    530.273    802.009    530.273    537.710    530.273
 29.170    707.000    724.140    -17.140    530.009    713.995    530.009    540.168    530.009
 29.270    647.000    646.622      0.378    529.746    632.750    529.746    543.627    529.746
 29.370    603.974    599.859      4.116    529.483    581.272    529.483    548.072    529.483
 29.470    594.000    580.093     13.907    529.221    556.247    529.221    553.066    529.221
 29.570    608.000    574.290     33.710    528.960    545.843    528.960    557.404    528.960
 29.670    608.000    571.944     36.056    528.700    541.396    528.700    559.244    528.700
 29.770    621.000    568.081     52.919    528.440    539.046    528.440    557.471    528.440
 29.870    557.000    562.274     -5.274    528.181    537.523    528.181    552.930    528.181
 29.970    587.895    555.980     31.915    527.923    536.457    527.923    547.442    527.923
 30.070    546.000    550.409     -4.409    527.665    535.730    527.665    542.342    527.665
 30.170    556.000    546.095      9.905    527.409    535.318    527.409    538.183    527.409
 30.270    563.000    543.213     19.787    527.153    535.328    527.153    535.035    527.153
 30.370    563.783    542.044     21.738    526.898    536.185    526.898    532.753    526.898
 30.470    513.351    543.537    -30.186    526.644    539.053    526.644    531.121    526.644
 30.570    504.115    549.714    -45.598    526.390    546.156    526.390    529.936    526.390
 30.670    607.000    562.930     44.070    526.138    560.006    526.138    529.039    526.138
 30.770    577.000    583.111     -6.111    525.886    580.635    525.886    528.325    525.886
 30.870    596.564    604.182     -7.618    525.635    602.040    525.635    527.726    525.635
 30.970    652.000    613.829     38.171    525.385    611.954    525.385    527.205    525.385
 31.070    579.000    603.930    -24.930    525.136    602.282    525.136    526.739    525.136
 31.170    575.000    582.015     -7.015    524.888    580.560    524.888    526.314    524.888
 31.270    559.151    560.392     -1.240    524.641    559.097    524.641    525.920    524.641
 31.370    585.418    545.390     40.028    524.395    544.226    524.395    525.551    524.395
 31.470    523.000    537.200    -14.200    524.149    536.144    524.149    525.202    524.149
 31.570    526.000    533.355     -7.355    523.905    532.389    523.905    524.869    523.905
 31.670    547.210    531.577     15.633    523.662    530.687    523.662    524.550    523.662
 31.770    560.000    530.631     29.369    523.419    529.807    523.419    524.242    523.419
 31.870    560.000    530.028     29.972    523.178    529.261    523.178    523.944    523.178
 31.970    564.021    529.610     34.411    522.937    528.893    522.937    523.653    522.937
 32.070    565.960    529.322     36.638    522.698    528.649    522.698    523.370    522.698
 32.170    545.000    529.145     15.855    522.459    528.510    522.459    523.093    522.459
 32.270    536.000    529.071      6.929    522.222    528.470    522.222    522.822    522.222
 32.370    611.000    529.100     81.900    521.986    528.530    521.986    522.555    521.986
 32.470    547.000    529.246     17.754    521.750    528.703    521.750    522.293    521.750
 32.570    550.000    529.519     20.481    521.516    529.000    521.516    522.034    521.516
 32.670    572.518    529.942     42.576    521.283    529.445    521.283    521.779    521.283
 32.770    587.000    530.555     56.445    521.051    530.077    521.051    521.528    521.051
 32.870    544.000    531.412     12.588    520.820    530.951    520.820    521.279    520.820
 32.970    585.000    532.591     52.409    520.590    532.147    520.590    521.033    520.590
 33.070    562.197    534.216     27.981    520.361    533.786    520.361    520.789    520.361
 33.170    533.000    536.509     -3.509    520.133    536.092    520.133    520.548    520.133
 33.270    581.090    539.985     41.105    519.906    539.579    519.906    520.310    519.906
 33.370    520.000    546.061    -26.061    519.681    545.665    519.681    520.073    519.681
 33.470    544.000    558.538    -14.538    519.456    558.151    519.456    519.839    519.456
 33.570    611.481    585.809     25.672    519.233    585.425    519.233    519.606    519.233
 33.670    642.000    641.370      0.630    519.011    640.984    519.011    519.376    519.011
 33.770    750.732    737.692     13.040    518.790    737.299    518.790    519.147    518.790
 33.870    920.000    871.198     48.802    518.570    870.795    518.570    518.921    518.570
 33.970   1025.000   1005.387     19.613    518.352   1004.982    518.352    518.696    518.352
 34.070   1008.000   1071.186    -63.186    518.134   1070.796    518.134    518.472    518.134
 34.170   1028.054   1021.809      6.245    517.918   1021.451    517.918    518.251    517.918
 34.270    884.000    893.903     -9.903    517.703    893.573    517.703    518.031    517.703
 34.370    726.677    756.966    -30.289    517.489    756.652    517.489    517.812    517.489
 34.470    673.000    653.325     19.675    517.276    653.015    517.276    517.596    517.276
 34.570    591.000    591.073     -0.073    517.065    590.764    517.065    517.381    517.065
 34.670    565.000    559.402      5.598    516.855    559.092    516.855    517.167    516.855
 34.770    504.813    544.501    -39.688    516.646    544.193    516.646    516.955    516.646
 34.870    568.000    537.118     30.882    516.438    536.812    516.438    516.744    516.438
 34.970    527.000    532.816     -5.816    516.232    532.512    516.232    516.535    516.232
 35.070    580.000    529.870     50.130    516.026    529.568    516.026    516.328    516.026
 35.170    505.000    527.653    -22.653    515.823    527.354    515.823    516.122    515.823
 35.270    571.119    525.907     45.212    515.620    525.610    515.620    515.917    515.620
 35.370    492.375    524.495    -32.119    515.418    524.199    515.418    515.714    515.418
 35.470    533.000    523.328      9.672    515.218    523.033    515.218    515.513    515.218
 35.570    534.000    522.346     11.654    515.019    522.053    515.019    515.312    515.019
 35.670    551.000    521.509     29.491    514.822    521.217    514.822    515.114    514.822
 35.770    543.000    520.784     22.216    514.626    520.493    514.626    514.917    514.626
 35.870    492.000    520.150    -28.150    514.431    519.860    514.431    514.721    514.431
 35.970    522.000    519.590      2.410    514.237    519.300    514.237    514.527    514.237
 36.070    492.000    519.090    -27.090    514.044    518.801    514.044    514.334    514.044
 36.170    513.873    518.643     -4.770    513.853    518.354    513.853    514.142    513.853
 36.270    518.000    518.240     -0.240    513.664    517.951    513.664    513.952    513.664
 36.370    520.871    517.877      2.993    513.475    517.589    513.475    513.764    513.475
 36.470    527.000    517.552      9.448    513.288    517.263    513.288    513.577    513.288
 36.570    525.000    517.262      7.738    513.102    516.973    513.102    513.391    513.102
 36.670    520.000    517.010      2.990    512.918    516.721    512.918    513.207    512.918
 36.770    509.000    516.802     -7.802    512.735    516.513    512.735    513.025    512.735
 36.870    512.000    516.659     -4.659    512.553    516.369    512.553    512.843    512.553
 36.970    543.000    516.631     26.369    512.373    516.341    512.373    512.664    512.373
 37.070    493.000    516.842    -23.842    512.194    516.550    512.194    512.486    512.194
 37.170    510.000    517.516     -7.516    512.016    517.224    512.016    512.309    512.016
 37.270    505.000    518.966    -13.966    511.840    518.673    511.840    512.133    511.840
 37.370    528.000    521.443      6.557    511.665    521.150    511.665    511.960    511.665
 37.470    489.710    524.848    -35.138    511.492    524.555    511.492    511.787    511.492
 37.570    538.000    528.415      9.585    511.320    528.122    511.320    511.616    511.320
 37.670    499.000    530.672    -31.672    511.149    530.378    511.149    511.447    511.149
 37.770    573.380    530.384     42.996    510.980    530.092    510.980    511.279    510.980
 37.870    536.000    527.864      8.136    510.812    527.572    510.812    511.112    510.812
 37.970    529.557    524.442      5.115    510.645    524.150    510.645    510.947    510.645
 38.070    523.000    521.149      1.851    510.480    520.856    510.480    510.784    510.480
 38.170    503.553    518.406    -14.853    510.316    518.109    510.316    510.622    510.316
 38.270    515.000    516.335     -1.335    510.154    516.035    510.154    510.461    510.154
 38.370    504.000    514.895    -10.895    509.993    514.590    509.993    510.302    509.993
 38.470    538.760    513.942     24.819    509.833    513.633    509.833    510.145    509.833
 38.570    511.000    513.319     -2.319    509.675    513.007    509.675    509.989    509.675
 38.670    520.992    512.898      8.094    509.519    512.583    509.519    509.834    509.519
 38.770    491.000    512.590    -21.590    509.363    512.273    509.363    509.681    509.363
 38.870    488.401    512.342    -23.941    509.209    512.022    509.209    509.530    509.209
 38.970    488.000    512.128    -24.128    509.057    511.805    509.057    509.380    509.057
 39.070    518.000    511.935      6.065    508.906    511.609    508.906    509.231    508.906
 39.170    496.000    511.757    -15.757    508.756    511.429    508.756    509.084    508.756
 39.270    534.000    511.591     22.409    508.608    511.260    508.608    508.939    508.608
 39.370    505.000    511.436     -6.436    508.461    511.102    508.461    508.795    508.461
 39.470    509.000    511.290     -2.290    508.316    510.954    508.316    508.653    508.316
 39.570    501.287    511.153     -9.866    508.172    510.814    508.172    508.512    508.172
 39.670    535.883    511.024     24.858    508.030    510.681    508.030    508.373    508.030
 39.770    508.479    510.903     -2.424    507.889    510.557    507.889    508.235    507.889
 39.870    471.548    510.789    -39.242    507.749    510.440    507.749    508.099    507.749
 39.970    476.000    510.684    -34.684    507.611    510.331    507.611    507.964    507.611
 40.070    533.904    510.586     23.318    507.474    510.229    507.474    507.831    507.474
 40.170    506.293    510.496     -4.203    507.339    510.136    507.339    507.700    507.339
 40.270    496.000    510.416    -14.416    507.206    510.052    507.206    507.570    507.206
 40.370    451.000    510.345    -59.345    507.073    509.977    507.073    507.442    507.073
 40.470    515.541    510.285      5.256    506.942    509.913    506.942    507.315    506.942
 40.570    492.000    510.237    -18.237    506.813    509.861    506.813    507.190    506.813
 40.670    512.574    510.203      2.371    506.685    509.822    506.685    507.066    506.685
 40.770    548.720    510.184     38.536    506.558    509.799    506.558    506.944    506.558
 40.870    512.897    510.185      2.713    506.433    509.795    506.433    506.824    506.433
 40.970    501.783    510.207     -8.424    506.310    509.812    506.310    506.705    506.310
 41.070    508.000    510.255     -2.255    506.188    509.856    506.188    506.588    506.188
 41.170    523.000    510.337     12.663    506.067    509.932    506.067    506.472    506.067
 41.270    481.000    510.458    -29.458    505.948    510.049    505.948    506.358    505.948
 41.370    476.028    510.632    -34.605    505.830    510.217    505.830    506.246    505.830
 41.470    540.362    510.873     29.488    505.713    510.453    505.713    506.135    505.713
 41.570    533.149    511.206     21.942    505.598    510.780    505.598    506.026    505.598
 41.670    531.000    511.676     19.324    505.485    511.244    505.485    505.918    505.485
 41.770    457.000    512.381    -55.381    505.373    511.944    505.373    505.813    505.373
 41.870    511.000    513.563     -2.563    505.262    513.119    505.262    505.709    505.262
 41.970    515.000    515.775     -0.775    505.153    515.326    505.153    505.606    505.153
 42.070    515.000    520.131     -5.131    505.046    519.677    505.046    505.506    505.046
 42.170    522.000    528.408     -6.408    504.940    527.951    504.940    505.407    504.940
 42.270    519.876    542.649    -22.773    504.835    542.191    504.835    505.309    504.835
 42.370    533.000    563.918    -30.918    504.732    563.462    504.732    505.214    504.732
 42.470    593.000    590.454      2.546    504.630    590.003    504.630    505.120    504.630
 42.570    582.207    616.072    -33.864    504.529    615.628    504.529    505.028    504.529
 42.670    590.000    630.728    -40.728    504.430    630.285    504.430    504.937    504.430
 42.770    595.000    626.763    -31.763    504.333    626.314    504.333    504.849    504.333
 42.870    652.857    606.510     46.347    504.237    606.042    504.237    504.762    504.237
 42.970    566.000    579.524    -13.524    504.142    579.033    504.142    504.677    504.142
 43.070    565.633    554.551     11.082    504.049    554.036    504.049    504.594    504.049
 43.170    518.000    535.923    -17.923    503.957    535.386    503.957    504.513    503.957
 43.270    477.478    524.089    -46.610    503.867    523.533    503.867    504.433    503.867
 43.370    515.000    517.432     -2.432    503.778    516.861    503.778    504.356    503.778
 43.470    466.481    513.939    -47.458    503.691    513.354    503.691    504.280    503.691
 43.570    485.247    512.092    -26.845    503.605    511.493    503.605    504.206    503.605
 43.670    534.000    511.021     22.979    503.520    510.409    503.520    504.135    503.520
 43.770    547.573    510.316     37.257    503.437    509.690    503.437    504.065    503.437
 43.870    501.000    509.803     -8.803    503.355    509.162    503.355    503.997    503.355
 43.970    486.000    509.408    -23.408    503.275    508.752    503.275    503.932    503.275
 44.070    505.785    509.096     -3.310    503.196    508.425    503.196    503.868    503.196
 44.170    494.000    508.848    -14.848    503.119    508.160    503.119    503.807    503.119
 44.270    545.000    508.649     36.351    503.043    507.945    503.043    503.748    503.043
 44.370    518.749    508.490     10.258    502.968    507.768    502.968    503.691    502.968
 44.470    554.000    508.365     45.635    502.895    507.624    502.895    503.637    502.895
 44.570    501.000    508.268     -7.268    502.824    507.508    502.824    503.585    502.824
 44.670    553.205    508.196     45.009    502.753    507.414    502.753    503.535    502.753
 44.770    502.000    508.145     -6.145    502.684    507.341    502.684    503.488    502.684
 44.870    532.000    508.113     23.887    502.617    507.287    502.617    503.444    502.617
 44.970    506.000    508.100     -2.100    502.551    507.249    502.551    503.402    502.551
 45.070    527.599    508.104     19.495    502.486    507.227    502.486    503.364    502.486
 45.170    493.274    508.125    -14.851    502.423    507.220    502.423    503.328    502.423
 45.270    529.040    508.161     20.878    502.361    507.227    502.361    503.295    502.361
 45.370    527.000    508.215     18.785    502.300    507.249    502.300    503.266    502.300
 45.470    498.000    508.285    -10.285    502.241    507.286    502.241    503.240    502.241
 45.570    471.394    508.373    -36.979    502.184    507.338    502.184    503.218    502.184
 45.670    487.135    508.479    -21.344    502.127    507.407    502.127    503.199    502.127
 45.770    503.000    508.605     -5.605    502.072    507.492    502.072    503.185    502.072
 45.870    460.000    508.752    -48.752    502.019    507.596    502.019    503.175    502.019
 45.970    501.000    508.923     -7.923    501.966    507.720    501.966    503.170    501.966
 46.070    504.210    509.121     -4.911    501.916    507.867    501.916    503.170    501.916
 46.170    487.540    509.349    -21.809    501.866    508.040    501.866    503.175    501.866
 46.270    484.068    509.612    -25.543    501.818    508.243    501.818    503.186    501.818
 46.370    492.000    509.915    -17.915    501.771    508.481    501.771    503.204    501.771
 46.470    523.000    510.265     12.735    501.726    508.761    501.726    503.229    501.726
 46.570    492.000    510.675    -18.675    501.682    509.094    501.682    503.262    501.682
 46.670    501.000    511.157    -10.157    501.639    509.492    501.639    503.303    501.639
 46.770    534.792    511.741     23.051    501.598    509.983    501.598    503.354    501.598
 46.870    465.000    512.480    -47.480    501.558    510.620    501.558    503.416    501.558
 46.970    499.000    513.498    -14.498    501.519    511.524    501.519    503.490    501.519
 47.070    560.641    515.061     45.580    501.482    512.960    501.482    503.579    501.482
 47.170    526.000    517.677      8.323    501.446    515.434    501.446    503.683    501.446
 47.270    501.778    522.199    -20.421    501.411    519.796    501.411    503.805    501.411
 47.370    504.000    529.673    -25.673    501.377    527.087    501.377    503.949    501.377
 47.470    538.149    540.946     -2.797    501.345    538.152    501.345    504.118    501.345
 47.570    561.651    555.930      5.722    501.314    552.896    501.314    504.316    501.314
 47.670    571.000    572.814     -1.814    501.285    569.507    501.285    504.548    501.285
 47.770    586.436    587.629     -1.193    501.257    584.010    501.257    504.822    501.257
 47.870    613.000    595.074     17.926    501.230    591.100    501.230    505.146    501.230
 47.970    591.670    592.010     -0.340    501.204    587.628    501.204    505.534    501.204
 48.070    614.000    580.579     33.421    501.180    575.716    501.180    506.000    501.180
 48.170    576.000    565.958     10.042    501.157    560.512    501.157    506.572    501.157
 48.270    531.455    552.625    -21.170    501.135    546.449    501.135    507.290    501.135
 48.370    590.292    543.003     47.289    501.115    535.884    501.115    508.221    501.115
 48.470    572.000    537.694     34.306    501.095    529.306    501.095    509.476    501.095
 48.570    506.952    536.239    -29.288    501.078    526.082    501.078    511.230    501.078
 48.670    569.000    537.917     31.083    501.061    525.228    501.061    513.745    501.061
 48.770    550.000    542.259      7.741    501.045    525.920    501.045    517.380    501.045
 48.870    553.000    549.214      3.786    501.031    527.671    501.031    522.570    501.031
 48.970    562.000    559.059      2.941    501.018    530.317    501.018    529.756    501.018
 49.070    546.000    572.247    -26.247    501.006    533.989    501.006    539.259    501.006
 49.170    597.000    589.374      7.626    500.996    539.267    500.996    551.094    500.996
 49.270    633.000    611.553     21.447    500.987    547.813    500.987    564.716    500.987
 49.370    654.000    641.647     12.353    500.978    563.934    500.978    578.675    500.978
 49.470    679.810    686.904     -7.095    500.972    597.479    500.972    590.369    500.972
 49.570    770.000    762.934      7.066    500.966    667.329    500.966    596.523    500.966
 49.670    942.525    896.366     46.159    500.961    802.282    500.961    594.966    500.961
 49.770   1127.000   1119.043      7.957    500.958   1033.567    500.958    586.313    500.958
 49.870   1466.352   1448.019     18.332    500.956   1375.398    500.956    573.418    500.956
 49.970   1858.000   1857.494      0.506    500.955   1798.885    500.955    559.394    500.955
 50.070   2337.000   2261.311     75.689    500.955   2215.758    500.955    546.380    500.955
 50.170   2555.000   2527.838     27.162    500.957   2493.331    500.957    535.436    500.957
 50.270   2509.000   2543.943    -34.943    500.959   2518.138    500.959    526.863    500.959
 50.370   2250.853   2298.517    -47.663    500.963   2279.166    500.963    520.505    500.963
 50.470   1947.000   1893.286     53.714    500.968   1878.497    500.968    515.976    500.968
 50.570   1410.000   1464.560    -54.560    500.974   1452.900    500.974    512.829    500.974
 50.670   1042.000   1110.610    -68.610    500.981   1101.084    500.981    510.654    500.981
 50.770    834.000    869.348    -35.348    500.990    861.307    500.990    509.129    500.990
 50.870    674.000    730.664    -56.664    500.999    723.700    500.999    508.029    500.999
 50.970    668.000    662.089      5.911    501.010    655.942    501.010    507.204    501.010
 51.070    640.045    630.448      9.598    501.021    624.944    501.021    506.564    501.021
 51.170    602.000    612.614    -10.614    501.034    607.630    501.034    506.052    501.034
 51.270    631.000    597.421     33.579    501.048    592.863    501.048    505.635    501.048
 51.370    559.158    582.278    -23.120    501.063    578.073    501.063    505.291    501.063
 51.470    568.000    568.185     -0.185    501.079    564.275    501.079    505.005    501.079
 51.570    596.150    556.492     39.658    501.096    552.833    501.096    504.767    501.096
 51.670    560.000    547.831     12.169    501.114    544.386    501.114    504.567    501.114
 51.770    537.421    542.080     -4.658    501.134    538.818    501.134    504.401    501.134
 51.870    555.000    538.682     16.318    501.154    535.578    501.154    504.263    501.154
 51.970    554.000    536.995     17.005    501.175    534.025    501.175    504.148    501.175
 52.070    544.258    536.514      7.744    501.198    533.659    501.198    504.055    501.198
 52.170    540.156    536.959      3.198    501.221    534.203    501.221    503.979    501.221
 52.270    541.000    538.280      2.720    501.246    535.608    501.246    503.920    501.246
 52.370    556.000    540.693     15.307    501.271    538.091    501.271    503.875    501.271
 52.470    549.944    544.836      5.108    501.298    542.293    501.298    503.842    501.298
 52.570    575.000    552.123     22.877    501.325    549.628    501.325    503.821    501.325
 52.670    528.482    565.281    -36.798    501.354    562.824    501.354    503.811    501.354
 52.770    625.960    588.857     37.103    501.384    586.429    501.384    503.810    501.384
 52.870    652.000    629.178     22.822    501.414    626.772    501.414    503.818    501.414
 52.970    740.000    693.031     46.969    501.446    690.638    501.446    503.835    501.446
 53.070    781.683    784.642     -2.959    501.478    782.256    501.478    503.859    501.478
 53.170    965.828    901.456     64.372    501.512    899.073    501.512    503.891    501.512
 53.270   1089.000   1030.104     58.896    501.546   1027.721    501.546    503.930    501.546
 53.370   1079.600   1144.560    -64.960    501.581   1142.174    501.581    503.976    501.581
 53.470   1167.000   1210.784    -43.784    501.618   1208.394    501.618    504.029    501.618
 53.570   1208.000   1203.805      4.195    501.655   1201.406    501.655    504.089    501.655
 53.670   1161.567   1126.771     34.797    501.693   1124.350    501.693    504.155    501.693
 53.770   1007.000   1008.009     -1.009    501.732   1005.554    501.732    504.228    501.732
 53.870    892.321    880.728     11.593    501.772    878.228    501.772    504.308    501.772
 53.970    788.039    768.624     19.415    501.813    766.070    501.813    504.394    501.813
 54.070    641.000    682.838    -41.838    501.855    680.224    501.855    504.488    501.855
 54.170    639.000    624.364     14.636    501.897    621.685    501.897    504.588    501.897
 54.270    598.473    588.234     10.239    501.941    585.486    501.941    504.696    501.941
 54.370    542.156    567.602    -25.446    501.985    564.781    501.985    504.812    501.985
 54.470    575.000    556.437     18.563    502.031    553.535    502.031    504.936    502.031
 54.570    569.000    550.551     18.449    502.077    547.562    502.077    505.068    502.077
 54.670    571.000    547.497     23.503    502.124    544.413    502.124    505.210    502.124
 54.770    545.000    546.024     -1.024    502.172    542.836    502.172    505.361    502.172
 54.870    599.000    545.555     53.445    502.220    542.255    502.220    505.522    502.220
 54.970    573.000    545.847     27.153    502.270    542.424    502.270    505.694    502.270
 55.070    565.348    546.809     18.539    502.320    543.252    502.320    505.879    502.320
 55.170    512.000    548.427    -36.427    502.371    544.724    502.371    506.076    502.371
 55.270    589.000    550.739     38.261    502.423    546.876    502.423    506.287    502.423
 55.370    582.000    553.829     28.171    502.476    549.792    502.476    506.514    502.476
 55.470    575.000    557.860     17.140    502.530    553.633    502.530    506.758    502.530
 55.570    553.000    563.142    -10.142    502.584    558.706    502.584    507.021    502.584
 55.670    603.000    570.325     32.675    502.639    565.660    502.639    507.304    502.639
 55.770    602.000    580.831     21.169    502.695    575.916    502.695    507.610    502.695
 55.870    610.000    597.692     12.308    502.751    592.500    502.751    507.942    502.751
 55.970    595.000    626.883    -31.883    502.809    621.384    502.809    508.303    502.809
 56.070    690.506    678.891     11.615    502.867    673.051    502.867    508.696    502.867
 56.170    797.000    769.543     27.457    502.925    763.322    502.925    509.126    502.925
 56.270    857.000    918.390    -61.390    502.985    911.743    502.985    509.598    502.985
 56.370   1092.433   1142.932    -50.499    503.045   1135.811    503.045    510.118    503.045
 56.470   1377.000   1448.641    -71.641    503.106   1440.998    503.106    510.693    503.106
 56.570   1804.699   1817.528    -12.829    503.168   1809.314    503.168    511.332    503.168
 56.670   2110.000   2200.007    -90.007    503.230   2191.172    503.230    512.044    503.230
 56.770   2618.473   2515.499    102.974    503.293   2505.988    503.293    512.843    503.293
 56.870   2640.000   2672.313    -32.313    503.356   2662.049    503.356    513.743    503.356
 56.970   2629.000   2615.584     13.416    503.421   2604.447    503.421    514.764    503.421
 57.070   2403.105   2367.681     35.424    503.485   2355.494    503.485    515.932    503.485
 57.170   2095.000   2009.596     85.404    503.551   1996.135    503.551    517.278    503.551
 57.270   1709.000   1630.470     78.530    503.617   1615.472    503.617    518.851    503.617
 57.370   1347.000   1295.249     51.751    503.684   1278.397    503.684    520.723    503.684
 57.470    989.795   1036.379    -46.584    503.751   1017.260    503.751    523.003    503.751
 57.570    859.000    858.510      0.490    503.819    836.544    503.819    525.872    503.819
 57.670    796.000    749.113     46.887    503.888    723.440    503.888    529.612    503.888
 57.770    748.000    689.786     58.214    503.957    659.111    503.957    534.659    503.957
 57.870    661.000    664.384     -3.384    504.027    626.770    504.027    541.651    504.027
 57.970    706.525    662.703     43.822    504.097    615.349    504.097    551.450    504.097
 58.070    679.686    680.704     -1.018    504.168    619.739    504.168    565.123    504.168
 58.170    731.000    718.839     12.161    504.239    639.216    504.239    583.839    504.239
 58.270    728.000    779.675    -51.675    504.311    675.283    504.311    608.669    504.311
 58.370    917.448    865.261     52.187    504.384    729.314    504.384    640.284    504.384
 58.470    967.000    974.815     -7.815    504.457    800.641    504.457    678.574    504.457
 58.570   1144.673   1102.892     41.780    504.530    885.166    504.530    722.194    504.530
 58.670   1278.000   1238.529     39.471    504.605    975.085    504.605    767.988    504.605
 58.770   1356.678   1366.375     -9.697    504.679   1060.610    504.679    810.394    504.679
 58.870   1436.000   1469.738    -33.738    504.754   1132.909    504.754    841.550    504.754
 58.970   1510.000   1533.493    -23.493    504.830   1184.767    504.830    853.543    504.830
 59.070   1576.000   1547.007     28.993    504.906   1209.139    504.906    842.784    504.906
 59.170   1469.561   1509.055    -39.494    504.982   1201.490    504.982    812.574    504.982
 59.270   1471.000   1431.175     39.825    505.059   1165.555    505.059    770.712    505.059
 59.370   1367.725   1333.985     33.740    505.136   1114.025    505.136    725.118    505.136
 59.470   1289.000   1239.167     49.833    505.214   1062.905    505.214    681.474    505.214
 59.570   1109.886   1165.191    -55.305    505.292   1027.401    505.292    643.045    505.292
 59.670   1148.927   1127.671     21.256    505.371   1021.706    505.371    611.255    505.371
 59.770   1080.487   1138.367    -57.880    505.450   1057.421    505.450    586.263    505.450
 59.870   1154.000   1200.353    -46.353    505.529   1138.263    505.529    567.430    505.529
 59.970   1268.245   1303.299    -35.054    505.609   1254.966    505.609    553.700    505.609
 60.070   1430.000   1422.210      7.790    505.689   1383.716    505.689    543.904    505.689
 60.170   1582.229   1520.476     61.753    505.769   1488.989    505.769    536.966    505.769
 60.270   1580.000   1559.679     20.321    505.850   1533.246    505.850    532.016    505.850
 60.370   1495.000   1517.560    -22.560    505.932   1494.871    505.932    528.408    505.932
 60.470   1322.843   1401.344    -78.501    506.013   1381.510    506.013    525.699    506.013
 60.570   1179.623   1240.735    -61.112    506.095   1223.137    506.095    523.605    506.095
 60.670   1079.000   1070.200      8.800    506.177   1054.385    506.177    521.948    506.177
 60.770    896.873    916.675    -19.802    506.260    902.294    506.260    520.623    506.260
 60.870    828.875    795.235     33.639    506.342    782.004    506.342    519.569    506.342
 60.970    724.000    709.891     14.109    506.426    697.565    506.426    518.750    506.426
 61.070    679.000    657.332     21.668    506.509    645.691    506.509    518.145    506.509
 61.170    639.495    631.623      7.872    506.593    620.468    506.593    517.738    506.593
 61.270    651.000    628.102     22.898    506.677    617.245    506.677    517.515    506.677
 61.370    669.517    645.481     24.036    506.761    634.755    506.761    517.456    506.761
 61.470    702.000    686.001     15.999    506.845    675.269    506.845    517.529    506.845
 61.570    701.000    753.816    -52.816    506.930    742.991    506.930    517.683    506.930
 61.670    885.000    851.988     33.012    507.015    841.056    507.015    517.846    507.015
 61.770    921.000    978.776    -57.776    507.100    967.823    507.100    517.921    507.100
 61.870   1048.000   1124.378    -76.378    507.185   1113.591    507.185    517.812    507.185
 61.970   1249.000   1269.347    -20.347    507.270   1258.973    507.270    517.468    507.270
 62.070   1337.000   1385.964    -48.964    507.356   1376.237    507.356    516.909    507.356
 62.170   1350.000   1444.920    -94.920    507.442   1436.002    507.442    516.211    507.442
 62.270   1417.000   1428.497    -11.497    507.528   1420.455    507.528    515.462    507.528
 62.370   1275.000   1341.532    -66.532    507.614   1334.349    507.614    514.735    507.614
 62.470   1234.000   1207.996     26.004    507.701   1201.598    507.701    514.074    507.701
 62.570   1085.000   1057.632     27.368    507.787   1051.916    507.787    513.504    507.787
 62.670    878.536    915.233    -36.697    507.874    910.089    507.874    513.030    507.874
 62.770    796.000    796.261     -0.261    507.960    791.586    507.960    512.651    507.960
 62.870    717.428    706.680     10.748    508.047    702.385    508.047    512.356    508.047
 62.970    662.000    645.149     16.851    508.134    641.162    508.134    512.130    508.134
 63.070    595.000    606.241    -11.241    508.221    602.505    508.221    511.961    508.221
 63.170    564.000    583.437    -19.437    508.308    579.909    508.308    511.836    508.308
 63.270    595.000    571.109     23.891    508.396    567.759    508.396    511.743    508.396
 63.370    566.000    565.373      0.627    508.483    562.175    508.483    511.676    508.483
 63.470    559.225    564.164     -4.940    508.570    561.101    508.570    511.627    508.570
 63.570    566.123    566.996     -0.873    508.657    564.050    508.657    511.594    508.657
 63.670    555.000    574.667    -19.667    508.745    571.826    508.745    511.572    508.745
 63.770    624.833    588.991     35.842    508.832    586.243    508.832    511.560    508.832
 63.870    610.626    612.428     -1.802    508.920    609.761    508.920    511.557    508.920
 63.970    682.000    647.464     34.536    509.007    644.867    509.007    511.561    509.007
 64.070    638.460    695.692    -57.232    509.095    693.154    509.095    511.572    509.095
 64.170    808.634    756.688     51.946    509.182    754.200    509.182    511.589    509.182
 64.270    812.000    826.963    -14.963    509.269    824.519    509.269    511.612    509.269
 64.370    929.351    899.300     30.051    509.357    896.900    509.357    511.639    509.357
 64.470    983.000    963.015     19.985    509.444    960.661    509.444    511.671    509.444
 64.570   1061.000   1006.219     54.781    509.531   1003.918    509.531    511.707    509.531
 64.670    958.544   1020.456    -61.912    509.619   1018.217    509.619    511.747    509.619
 64.770   1041.000   1004.493     36.507    509.706   1002.321    509.706    511.790    509.706
 64.870    965.062    963.835      1.227    509.793    961.731    509.793    511.837    509.793
 64.970    904.000    907.754     -3.754    509.880    905.715    509.880    511.887    509.880
 65.070    840.000    846.239     -6.239    509.967    844.257    509.967    511.940    509.967
 65.170    757.000    787.327    -30.327    510.053    785.394    510.053    511.995    510.053
 65.270    759.000    735.611     23.389    510.140    733.718    510.140    512.054    510.140
 65.370    690.000    692.490     -2.490    510.227    690.628    510.227    512.114    510.227
 65.470    592.000    657.547    -65.547    510.313    655.709    510.313    512.177    510.313
 65.570    625.000    629.828     -4.828    510.399    628.008    510.399    512.243    510.399
 65.670    637.536    608.339     29.197    510.485    606.532    510.485    512.310    510.485
 65.770    556.000    592.100    -36.100    510.571    590.304    510.571    512.380    510.571
 65.870    624.264    580.199     44.065    510.657    578.412    510.657    512.451    510.657
 65.970    539.000    571.841    -32.841    510.743    570.063    510.743    512.525    510.743
 66.070    578.000    566.363     11.637    510.828    564.592    510.828    512.600    510.828
 66.170    602.006    563.209     38.797    510.913    561.445    510.913    512.677    510.913
 66.270    568.060    561.931      6.129    510.998    560.173    510.998    512.756    510.998
 66.370    576.000    562.198     13.802    511.083    560.444    511.083    512.837    511.083
 66.470    577.194    563.832     13.363    511.168    562.080    511.168    512.919    511.168
 66.570    547.000    566.870    -19.870    511.252    565.120    511.252    513.004    511.252
 66.670    532.226    571.680    -39.453    511.336    569.927    511.336    513.090    511.336
 66.770    585.382    579.159      6.223    511.420    577.402    511.420    513.177    511.420
 66.870    637.805    591.079     46.726    511.503    589.316    511.503    513.267    511.503
 66.970    623.000    610.564     12.436    511.587    608.791    511.587    513.359    511.587
 67.070    572.000    642.596    -70.596    511.670    640.810    511.670    513.452    511.670
 67.170    704.000    694.337      9.663    511.752    692.535    511.752    513.547    511.752
 67.270    726.000    774.854    -48.854    511.835    773.032    511.835    513.645    511.835
 67.370    867.000    893.824    -26.824    511.917    891.981    511.917    513.744    511.917
 67.470   1029.439   1058.998    -29.559    511.998   1057.135    511.998    513.845    511.998
 67.570   1282.101   1272.628      9.472    512.080   1270.750    512.080    513.949    512.080
 67.670   1563.000   1527.692     35.308    512.161   1525.807    512.161    514.055    512.161
 67.770   1771.000   1805.039    -34.039    512.242   1803.159    512.242    514.164    512.242
 67.870   2131.133   2072.563     58.569    512.322   2070.704    512.322    514.275    512.322
 67.970   2347.000   2287.845     59.155    512.402   2286.016    512.402    514.389    512.402
 68.070   2511.000   2407.119    103.881    512.482   2405.325    512.482    514.506    512.482
 68.170   2448.663   2401.776     46.886    512.561   2400.005    512.561    514.626    512.561
 68.270   2229.000   2273.274    -44.274    512.640   2271.495    512.640    514.750    512.640
 68.370   2134.000   2052.234     81.766    512.718   2050.410    512.718    514.878    512.718
 68.470   1776.404   1782.791     -6.388    512.796   1780.890    512.796    515.009    512.796
 68.570   1454.502   1506.687    -52.186    512.874   1504.685    512.874    515.145    512.874
 68.670   1240.000   1254.961    -14.961    512.951   1252.844    512.951    515.284    512.951
 68.770   1035.325   1045.674    -10.349    513.028   1043.435    513.028    515.430    513.028
 68.870    867.367    884.938    -17.571    513.104    882.578    513.104    515.581    513.104
 68.970    810.000    769.895     40.105    513.180    767.415    513.180    515.739    513.180
 69.070    701.000    692.511      8.489    513.256    689.916    513.256    515.904    513.256
 69.170    693.665    643.086     50.579    513.331    640.375    513.331    516.076    513.331
 69.270    602.000    612.682    -10.682    513.405    609.852    513.405    516.257    513.405
 69.370    591.000    594.312     -3.312    513.479    591.359    513.479    516.447    513.479
 69.470    588.700    583.146      5.554    513.552    580.061    513.552    516.647    513.552
 69.570    541.000    576.160    -35.160    513.625    572.934    513.625    516.859    513.625
 69.670    589.000    571.615     17.385    513.698    568.233    513.698    517.084    513.698
 69.770    620.000    568.570     51.430    513.770    565.020    513.770    517.324    513.770
 69.870    615.662    566.547     49.115    513.841    562.811    513.841    517.580    513.841
 69.970    571.000    565.309      5.691    513.912    561.367    513.912    517.855    513.912
 70.070    567.000    564.747      2.253    513.982    560.578    513.982    518.152    513.982
 70.170    564.000    564.829     -0.829    514.052    560.408    514.052    518.472    514.052
 70.270    519.701    565.585    -45.884    514.121    560.885    514.121    518.821    514.121
 70.370    542.399    567.131    -24.732    514.190    562.117    514.190    519.201    514.190
 70.470    537.000    569.717    -32.717    514.258    564.352    514.258    519.619    514.258
 70.570    546.274    573.837    -27.563    514.325    568.077    514.325    520.081    514.325
 70.670    561.000    580.389    -19.389    514.392    574.180    514.392    520.593    514.392
 70.770    580.000    590.904    -10.904    514.458    584.182    514.458    521.169    514.458
 70.870    583.000    607.820    -24.820    514.524    600.505    514.524    521.821    514.524
 70.970    649.259    634.693     14.566    514.589    626.682    514.589    522.573    514.589
 71.070    693.741    676.228     17.513    514.653    667.382    514.653    523.458    514.653
 71.170    786.158    737.934     48.224    514.717    728.063    514.717    524.528    514.717
 71.270    855.168    825.237     29.931    514.780    814.065    514.780    525.868    514.780
 71.370    911.000    942.016    -31.016    514.842    929.140    514.842    527.606    514.842
 71.470   1022.720   1088.762    -66.042    514.904   1073.587    514.904    529.935    514.904
 71.570   1194.000   1260.763    -66.763    514.965   1242.424    514.965    533.131    514.965
 71.670   1430.000   1446.833    -16.833    515.025   1424.096    515.025    537.567    515.025
 71.770   1622.000   1629.011     -7.011    515.085   1600.175    515.085    543.713    515.085
 71.870   1824.000   1783.818     40.182    515.144   1746.644    515.144    552.116    515.144
 71.970   1811.509   1886.320    -74.811    515.202   1838.005    515.202    563.336    515.202
 72.070   1932.000   1917.920     14.080    515.259   1855.171    515.259    577.862    515.259
 72.170   1877.000   1874.894      2.106    515.316   1794.125    515.316    595.978    515.316
 72.270   1714.061   1770.486    -56.425    515.372   1668.162    515.372    617.624    515.372
 72.370   1555.674   1628.127    -72.452    515.427   1501.262    515.427    642.249    515.427
 72.470   1408.980   1472.127    -63.147    515.482   1318.917    515.482    668.668    515.482
 72.570   1389.275   1321.700     67.575    515.536   1142.276    515.536    694.945    515.536
 72.670   1219.194   1188.651     30.543    515.589    985.874    515.589    718.355    515.589
 72.770   1051.000   1077.378    -26.378    515.641    857.394    515.641    735.615    515.641
 72.870    893.000    986.575    -93.575    515.693    758.590    515.693    743.668    515.693
 72.970    871.140    912.106    -40.966    515.743    686.954    515.743    740.883    515.743
 73.070    796.000    849.721    -53.721    515.793    637.629    515.793    727.873    515.793
 73.170    838.159    796.402     41.757    515.843    605.078    515.843    707.155    515.843
 73.270    641.000    750.384   -109.384    515.891    584.248    515.891    682.018    515.891
 73.370    662.115    710.710    -48.595    515.938    571.142    515.938    655.499    515.938
 73.470    680.212    676.881      3.331    515.985    562.940    515.985    629.922    515.985
 73.570    694.525    648.632     45.894    516.031    557.836    516.031    606.824    516.031
 73.670    565.000    625.756    -60.756    516.076    554.780    516.076    587.052    516.076
 73.770    604.000    607.976     -3.976    516.120    553.212    516.120    570.888    516.120
 73.870    612.000    594.873     17.127    516.164    552.846    516.164    558.199    516.164
 73.970    560.000    585.874    -25.874    516.206    553.513    516.206    548.579    516.206
 74.070    545.165    580.279    -35.113    516.248    555.053    516.248    541.491    516.248
 74.170    569.000    577.303     -8.303    516.288    557.244    516.288    536.372    516.288
 74.270    605.000    576.117     28.883    516.328    559.763    516.328    532.713    516.328
 74.370    568.644    575.873     -7.228    516.367    562.186    516.367    530.090    516.367
 74.470    618.000    575.753     42.247    516.405    564.016    516.405    528.183    516.405
 74.570    594.755    575.049     19.706    516.442    564.776    516.442    526.760    516.442
 74.670    523.735    573.307    -49.572    516.479    564.168    516.479    525.662    516.479
 74.770    574.000    570.434      3.566    516.514    562.204    516.514    524.787    516.514
 74.870    673.000    566.691    106.309    516.548    559.209    516.548    524.068    516.548
 74.970    639.000    562.544     76.456    516.582    555.695    516.582    523.463    516.582
 75.070    622.000    558.524     63.476    516.615    552.220    516.615    522.945    516.615
 75.170    540.000    555.147    -15.147    516.646    549.318    516.646    522.495    516.646
 75.270    548.000    552.901     -4.901    516.677    547.490    516.677    522.101    516.677
 75.370    570.000    552.264     17.736    516.707    547.224    516.707    521.754    516.707
 75.470    558.000    553.730      4.270    516.735    549.021    516.735    521.446    516.735
 75.570    570.206    557.820     12.386    516.763    553.406    516.763    521.173    516.763
 75.670    598.000    565.051     32.949    516.790    560.902    516.790    520.929    516.790
 75.770    552.000    575.861    -23.861    516.816    571.949    516.816    520.710    516.816
 75.870    593.000    590.466      2.534    516.841    586.769    516.841    520.514    516.841
 75.970    624.000    608.699     15.301    516.865    605.194    516.865    520.337    516.865
 76.070    639.000    629.845      9.155    516.887    626.515    516.887    520.177    516.887
 76.170    615.606    652.536    -36.929    516.909    649.363    516.909    520.031    516.909
 76.270    710.000    674.723     35.277    516.930    671.696    516.930    519.899    516.930
 76.370    743.000    693.785     49.215    516.950    690.894    516.950    519.779    516.950
 76.470    734.000    706.860     27.140    516.969    704.096    516.969    519.668    516.969
 76.570    738.000    711.553     26.447    516.987    708.910    516.987    519.567    516.987
 76.670    700.000    706.865     -6.865    517.003    704.338    517.003    519.474    517.003
 76.770    728.743    693.676     35.067    517.019    691.259    517.019    519.389    517.019
 76.870    670.000    674.305     -4.305    517.034    671.991    517.034    519.309    517.034
 76.970    649.000    651.592     -2.592    517.047    649.374    517.047    519.236    517.047
 77.070    617.000    628.167    -11.167    517.060    626.038    517.060    519.167    517.060
 77.170    559.000    606.087    -47.087    517.071    604.040    517.071    519.103    517.071
 77.270    630.529    586.720     43.809    517.082    584.748    517.082    519.044    517.082
 77.370    599.426    570.757     28.670    517.091    568.854    517.091    518.988    517.091
 77.470    565.000    558.310      6.690    517.099    556.470    517.099    518.935    517.099
 77.570    511.416    549.077    -37.661    517.107    547.296    517.107    518.885    517.107
 77.670    516.000    542.506    -26.506    517.113    540.779    517.113    518.837    517.113
 77.770    554.000    537.997     16.003    517.118    536.321    517.118    518.792    517.118
 77.870    582.797    535.007     47.790    517.122    533.378    517.122    518.750    517.122
 77.970    530.000    533.041     -3.041    517.124    531.456    517.124    518.709    517.124
 78.070    575.174    531.745     43.429    517.126    530.201    517.126    518.669    517.126
 78.170    544.000    530.876     13.124    517.127    529.370    517.127    518.631    517.127
 78.270    537.000    530.277      6.723    517.126    528.807    517.126    518.595    517.126
 78.370    509.942    529.856    -19.913    517.124    528.420    517.124    518.560    517.124
 78.470    521.079    529.560     -8.481    517.122    528.156    517.122    518.525    517.122
 78.570    568.288    529.371     38.917    517.118    527.996    517.118    518.492    517.118
 78.670    502.000    529.283    -27.283    517.113    527.934    517.113    518.461    517.113
 78.770    549.000    529.302     19.698    517.106    527.978    517.106    518.430    517.106
 78.870    500.612    529.446    -28.834    517.099    528.144    517.099    518.400    517.099
 78.970    503.674    529.740    -26.065    517.090    528.457    517.090    518.373    517.090
 79.070    514.223    530.211    -15.988    517.081    528.944    517.081    518.347    517.081
 79.170    510.000    530.893    -20.893    517.070    529.638    517.070    518.323    517.070
 79.270    515.548    531.814    -16.266    517.058    530.567    517.058    518.303    517.058
 79.370    555.000    533.004     21.996    517.045    531.759    517.045    518.287    517.045
 79.470    566.449    534.491     31.957    517.030    533.243    517.030    518.275    517.030
 79.570    511.000    536.313    -25.313    517.015    535.054    517.015    518.269    517.015
 79.670    547.820    538.523      9.296    516.998    537.247    516.998    518.270    516.998
 79.770    567.000    541.217     25.783    516.980    539.914    516.980    518.278    516.980
 79.870    554.000    544.545      9.455    516.961    543.208    516.961    518.293    516.961
 79.970    536.000    548.747    -12.747    516.941    547.368    516.941    518.315    516.941
 80.070    586.030    554.170     31.861    516.919    552.742    516.919    518.343    516.919
 80.170    544.000    561.267    -17.267    516.897    559.786    516.897    518.375    516.897
 80.270    600.308    570.547     29.761    516.873    569.011    516.873    518.408    516.873
 80.370    599.439    582.470     16.969    516.848    580.883    516.848    518.437    516.848
 80.470    574.842    597.327    -22.485    516.821    595.697    516.821    518.457    516.821
 80.570    618.000    615.123      2.877    516.794    613.464    516.794    518.463    516.794
 80.670    639.000    635.490      3.510    516.765    633.823    516.765    518.447    516.765
 80.770    666.457    657.649      8.808    516.735    655.997    516.735    518.408    516.735
 80.870    670.000    680.432    -10.432    516.704    678.820    516.704    518.343    516.704
 80.970    645.226    702.413    -57.187    516.672    700.861    516.672    518.258    516.672
 81.070    735.000    722.109     12.891    516.638    720.631    516.638    518.158    516.638
 81.170    754.000    738.180     15.820    516.603    736.784    516.603    518.048    516.603
 81.270    801.000    749.555     51.445    516.567    748.242    516.567    517.934    516.567
 81.370    798.236    755.521     42.715    516.530    754.290    516.530    517.821    516.530
 81.470    753.000    755.807     -2.807    516.491    754.651    516.491    517.712    516.491
 81.570    768.334    750.587     17.748    516.451    749.499    516.451    517.608    516.451
 81.670    755.000    740.426     14.574    516.410    739.396    516.410    517.510    516.410
 81.770    713.000    726.237    -13.237    516.368    725.256    516.368    517.420    516.368
 81.870    731.000    709.235     21.765    516.324    708.294    516.324    517.335    516.324
 81.970    703.000    690.774     12.226    516.279    689.864    516.279    517.257    516.279
 82.070    709.049    672.065     36.984    516.233    671.179    516.233    517.183    516.233
 82.170    673.000    653.965     19.035    516.186    653.097    516.186    517.114    516.186
 82.270    656.452    636.935     19.517    516.137    636.081    516.137    517.048    516.137
 82.370    625.280    621.154      4.126    516.087    620.309    516.087    516.984    516.087
 82.470    592.000    606.695    -14.695    516.036    605.856    516.036    516.921    516.036
 82.570    602.000    593.656      8.344    515.984    592.821    515.984    516.859    515.984
 82.670    544.000    582.193    -38.193    515.930    581.359    515.930    516.798    515.930
 82.770    579.000    572.481      6.519    515.875    571.646    515.875    516.736    515.875
 82.870    540.000    564.678    -24.678    515.819    563.842    515.819    516.674    515.819
 82.970    580.000    558.911     21.089    515.761    558.072    515.761    516.612    515.761
 83.070    541.000    555.252    -14.252    515.702    554.410    515.702    516.549    515.702
 83.170    588.000    553.702     34.298    515.642    552.855    515.642    516.486    515.642
 83.270    587.000    554.165     32.835    515.581    553.313    515.581    516.422    515.581
 83.370    567.655    556.428     11.227    515.518    555.572    515.518    516.356    515.518
 83.470    535.000    560.151    -25.151    515.454    559.289    515.454    516.290    515.454
 83.570    560.799    564.864     -4.066    515.389    563.998    515.389    516.224    515.389
 83.670    570.000    569.987      0.013    515.322    569.116    515.322    516.156    515.322
 83.770    561.000    574.853    -13.853    515.255    573.978    515.255    516.087    515.255
 83.870    559.000    578.766    -19.766    515.186    577.889    515.186    516.018    515.186
 83.970    539.710    581.092    -41.383    515.115    580.214    515.115    515.947    515.115
 84.070    546.000    581.387    -35.387    515.044    580.509    515.044    515.876    515.044
 84.170    569.000    579.516    -10.516    514.971    578.641    514.971    515.803    514.971
 84.270    555.000    575.690    -20.690    514.896    574.818    514.896    515.730    514.896
 84.370    573.000    570.374      2.626    514.821    569.506    514.821    515.655    514.821
 84.470    554.120    564.151    -10.031    514.744    563.287    514.744    515.580    514.744
 84.570    524.000    557.596    -33.596    514.666    556.735    514.666    515.504    514.666
 84.670    512.000    551.202    -39.202    514.587    550.344    514.587    515.426    514.587
 84.770    583.092    545.342     37.750    514.506    544.485    514.506    515.348    514.506
 84.870    532.000    540.257     -8.257    514.424    539.401    514.424    515.268    514.424
 84.970    554.000    536.061     17.939    514.341    535.205    514.341    515.188    514.341
 85.070    546.000    532.763     13.237    514.256    531.906    514.256    515.107    514.256
 85.170    556.000    530.296     25.704    514.170    529.436    514.170    515.025    514.170
 85.270    491.000    528.549    -37.549    514.083    527.686    514.083    514.941    514.083
 85.370    513.990    527.398    -13.408    513.995    526.532    513.995    514.857    513.995
 85.470    513.003    526.733    -13.731    513.905    525.862    513.905    514.772    513.905
 85.570    472.000    526.467    -54.467    513.814    525.591    513.814    514.686    513.814
 85.670    537.503    526.552     10.951    513.722    525.670    513.722    514.598    513.722
 85.770    516.000    526.979    -10.979    513.628    526.091    513.628    514.510    513.628
 85.870    544.000    527.784     16.216    513.533    526.889    513.533    514.421    513.533
 85.970    541.000    529.048     11.952    513.437    528.145    513.437    514.331    513.437
 86.070    579.870    530.893     48.977    513.340    529.980    513.340    514.240    513.340
 86.170    502.558    533.477    -30.919    513.241    532.554    513.241    514.149    513.241
 86.270    503.290    536.983    -33.692    513.141    536.048    513.141    514.056    513.141
 86.370    559.000    541.597     17.403    513.040    540.648    513.040    513.962    513.040
 86.470    580.511    547.484     33.027    512.937    546.520    512.937    513.868    512.937
 86.570    510.000    554.749    -44.749    512.833    553.767    512.833    513.773    512.833
 86.670    585.000    563.395     21.605    512.728    562.394    512.728    513.677    512.728
 86.770    553.704    573.287    -19.583    512.622    572.266    512.622    513.580    512.622
 86.870    560.794    584.118    -23.324    512.514    583.075    512.514    513.482    512.514
 86.970    588.000    595.391     -7.391    512.405    594.325    512.405    513.383    512.405
 87.070    616.900    606.415     10.484    512.295    605.328    512.295    513.284    512.295
 87.170    600.565    616.373    -15.808    512.184    615.265    512.184    513.184    512.184
 87.270    688.000    624.359     63.641    512.071    623.233    512.071    513.083    512.071
 87.370    656.000    629.518     26.482    511.957    628.378    511.957    512.982    511.957
 87.470    644.000    631.264     12.736    511.842    630.114    511.842    512.880    511.842
 87.570    627.000    629.444     -2.444    511.725    628.287    511.725    512.777    511.725
 87.670    674.000    624.385     49.615    511.607    623.224    511.607    512.674    511.607
 87.770    640.000    616.791     23.209    511.488    615.627    511.488    512.571    511.488
 87.870    650.000    607.570     42.430    511.368    606.403    511.368    512.467    511.368
 87.970    591.652    597.685     -6.033    511.247    596.514    511.247    512.362    511.247
 88.070    629.000    588.046     40.954    511.124    586.870    511.124    512.257    511.124
 88.170    628.900    579.446     49.454    511.000    578.264    511.000    512.152    511.000
 88.270    588.000    572.511     15.489    510.875    571.319    510.875    512.046    510.875
 88.370    571.000    567.672      3.328    510.748    566.469    510.748    511.941    510.748
 88.470    588.000    565.163     22.837    510.621    563.947    510.621    511.835    510.621
 88.570    574.000    565.016      8.984    510.492    563.785    510.492    511.729    510.492
 88.670    583.000    567.078     15.922    510.362    565.831    510.362    511.623    510.362
 88.770    593.332    571.026     22.306    510.230    569.760    510.230    511.518    510.230
 88.870    610.000    576.387     33.613    510.098    575.102    510.098    511.412    510.098
 88.970    616.000    582.565     33.435    509.964    581.259    509.964    511.307    509.964
 89.070    603.130    588.872     14.258    509.829    587.543    509.829    511.203    509.829
 89.170    621.000    594.565     26.435    509.693    593.210    509.693    511.099    509.693
 89.270    621.000    598.913     22.087    509.555    597.530    509.555    510.996    509.555
 89.370    596.609    601.291     -4.681    509.417    599.875    509.417    510.894    509.417
 89.470    540.000    601.299    -61.299    509.277    599.847    509.277    510.793    509.277
 89.570    604.980    598.855      6.125    509.136    597.362    509.136    510.694    509.136
 89.670    596.561    594.198      2.362    508.994    592.659    508.994    510.596    508.994
 89.770    599.460    587.813     11.647    508.851    586.222    508.851    510.500    508.851
 89.870    538.000    580.295    -42.295    508.706    578.647    508.706    510.407    508.706
 89.970    543.000    572.248    -29.248    508.560    570.539    508.560    510.316    508.560
 90.070    540.000    564.209    -24.209    508.414    562.435    508.414    510.228    508.414
 90.170    543.000    556.614    -13.614    508.266    554.769    508.266    510.143    508.266
 90.270    487.000    549.776    -62.776    508.116    547.856    508.116    510.063    508.116
 90.370    539.000    543.886     -4.886    507.966    541.885    507.966    509.988    507.966
 90.470    549.000    539.025      9.975    507.815    536.937    507.815    509.918    507.815
 90.570    553.000    535.180     17.820    507.662    532.998    507.662    509.856    507.662
 90.670    506.000    532.279    -26.279    507.509    529.992    507.509    509.803    507.509
 90.770    527.000    530.207     -3.207    507.354    527.805    507.354    509.761    507.354
 90.870    544.000    528.843     15.157    507.198    526.311    507.198    509.733    507.198
 90.970    538.000    528.068      9.932    507.041    525.386    507.041    509.724    507.041
 91.070    543.857    527.756     16.101    506.883    524.900    506.883    509.739    506.883
 91.170    500.000    527.927    -27.927    506.724    524.864    506.724    509.786    506.724
 91.270    505.577    528.558    -22.981    506.563    525.244    506.563    509.875    506.563
 91.370    546.674    529.666     17.007    506.402    526.046    506.402    510.019    506.402
 91.470    489.000    531.335    -42.335    506.239    527.336    506.239    510.234    506.239
 91.570    515.309    533.692    -18.383    506.076    529.224    506.076    510.538    506.076
 91.670    531.000    536.915     -5.915    505.911    531.863    505.911    510.956    505.911
 91.770    545.000    541.217      3.783    505.745    535.440    505.745    511.512    505.745
 91.870    583.176    546.840     36.336    505.579    540.171    505.579    512.235    505.579
 91.970    545.000    554.041     -9.041    505.411    546.280    505.411    513.155    505.411
 92.070    596.627    563.063     33.564    505.242    553.984    505.242    514.299    505.242
 92.170    602.728    574.111     28.617    505.072    563.463    505.072    515.693    505.072
 92.270    602.000    587.322     14.678    504.902    574.835    504.902    517.355    504.902
 92.370    555.704    602.734    -47.030    504.730    588.129    504.730    519.295    504.730
 92.470    579.168    620.252    -41.084    504.557    603.253    504.557    521.509    504.557
 92.570    675.000    639.640     35.360    504.383    619.992    504.383    523.977    504.383
 92.670    666.000    660.502      5.498    504.208    637.990    504.208    526.660    504.208
 92.770    668.435    682.265    -13.830    504.032    656.734    504.032    529.496    504.032
 92.870    690.000    704.210    -14.210    503.855    675.594    503.855    532.398    503.855
 92.970    748.000    725.526     22.474    503.678    693.876    503.678    535.250    503.678
 93.070    710.252    745.408    -35.157    503.499    710.919    503.499    537.909    503.499
 93.170    773.000    763.189      9.811    503.319    726.224    503.319    540.203    503.319
 93.270    751.000    778.452    -27.452    503.139    739.556    503.139    541.954    503.139
 93.370    901.000    791.080    109.920    502.957    750.963    502.957    542.995    502.957
 93.470    803.223    801.210      2.013    502.775    760.699    502.775    543.208    502.775
 93.570    789.000    809.160    -20.160    502.591    769.121    502.591    542.555    502.591
 93.670    763.990    815.363    -51.373    502.407    776.610    502.407    541.087    502.407
 93.770    832.838    820.353     12.486    502.222    783.575    502.222    538.931    502.222
 93.870    860.000    824.768     35.232    502.036    790.482    502.036    536.256    502.036
 93.970    846.000    829.329     16.671    501.849    797.872    501.849    533.242    501.849
 94.070    891.000    834.740     56.260    501.661    806.281    501.661    530.058    501.661
 94.170    879.000    841.512     37.488    501.472    816.082    501.472    526.843    501.472
 94.270    857.000    849.795      7.205    501.283    827.311    501.283    523.709    501.283
 94.370    864.821    859.260      5.560    501.092    839.559    501.092    520.740    501.092
 94.470    906.000    869.086     36.914    500.901    851.944    500.901    517.994    500.901
 94.570    845.040    878.023    -32.983    500.709    863.181    500.709    515.506    500.709
 94.670    829.923    884.537    -54.614    500.516    871.719    500.516    513.296    500.516
 94.770    947.526    887.038     60.487    500.323    875.966    500.323    511.363    500.323
 94.870    912.000    884.175     27.825    500.128    874.582    500.128    509.699    500.128
 94.970    880.000    875.148      4.852    499.933    866.785    499.933    508.282    499.933
 95.070    912.030    859.921     52.109    499.737    852.564    499.737    507.089    499.737
 95.170    820.237    839.227    -18.991    499.541    832.681    499.541    506.089    499.541
 95.270    818.000    814.471      3.529    499.343    808.567    499.343    505.254    499.343
 95.370    859.000    787.399     71.601    499.145    781.999    499.145    504.557    499.145
 95.470    802.152    759.919     42.233    498.947    754.907    498.947    503.971    498.947
 95.570    759.000    733.934     25.066    498.747    729.218    498.747    503.475    498.747
 95.670    732.000    711.236     20.764    498.547    706.743    498.547    503.050    498.547
 95.770    728.821    693.444     35.378    498.346    689.115    498.346    502.681    498.346
 95.870    720.000    681.971     38.029    498.144    677.761    498.144    502.355    498.144
 95.970    691.097    678.020     13.077    497.942    673.892    497.942    502.064    497.942
 96.070    726.856    682.586     44.270    497.739    678.511    497.739    501.800    497.739
 96.170    679.000    696.461    -17.461    497.536    692.414    497.536    501.559    497.536
 96.270    684.112    720.216    -36.105    497.332    716.181    497.332    501.333    497.332
 96.370    738.000    754.174    -16.174    497.127    750.131    497.127    501.125    497.127
 96.470    812.000    798.325     13.675    496.922    794.258    496.922    500.932    496.922
 96.570    894.994    852.237     42.758    496.716    848.134    496.716    500.751    496.716
 96.670    964.327    914.955     49.372    496.509    910.804    496.509    500.583    496.509
 96.770    956.000    984.918    -28.918    496.302    980.707    496.302    500.426    496.302
 96.870   1065.989   1059.898      6.091    496.095   1055.618    496.095    500.281    496.095
 96.970   1097.000   1136.976    -39.976    495.887   1132.617    495.887    500.147    495.887
 97.070   1178.000   1212.593    -34.593    495.678   1208.148    495.678    500.025    495.678
 97.170   1218.000   1282.672    -64.672    495.469   1278.132    495.469    499.915    495.469
 97.270   1288.158   1342.858    -54.700    495.260   1338.215    495.260    499.818    495.260
 97.370   1350.000   1388.932    -38.932    495.050   1384.177    495.050    499.735    495.050
 97.470   1418.000   1417.401      0.599    494.839   1412.522    494.839    499.666    494.839
 97.570   1417.240   1426.123     -8.882    494.628   1421.106    494.628    499.613    494.628
 97.670   1468.513   1414.738     53.775    494.417   1409.567    494.417    499.578    494.417
 97.770   1423.748   1384.693     39.055    494.205   1379.346    494.205    499.562    494.205
 97.870   1306.000   1338.855    -32.855    493.993   1333.307    493.993    499.569    493.993
 97.970   1288.000   1280.960      7.040    493.780   1275.180    493.780    499.603    493.780
 98.070   1150.038   1215.089    -65.051    493.567   1209.041    493.567    499.668    493.567
 98.170   1228.000   1145.299     82.701    493.354   1138.939    493.354    499.771    493.354
 98.270   1086.000   1075.380     10.620    493.141   1068.658    493.141    499.922    493.141
 98.370   1028.871   1008.711     20.159    492.927   1001.563    492.927    500.132    492.927
 98.470    923.000    948.184    -25.184    492.712    940.530    492.712    500.418    492.712
 98.570    940.000    896.178     43.822    492.498    887.921    492.498    500.800    492.498
 98.670    873.000    854.582     18.418    492.283    845.596    492.283    501.305    492.283
 98.770    851.226    824.838     26.388    492.068    814.966    492.068    501.967    492.068
 98.870    814.000    808.003      5.997    491.853    797.044    491.853    502.828    491.853
 98.970    820.163    804.860     15.303    491.637    792.567    491.637    503.939    491.637
 99.070    818.694    815.935      2.759    491.422    801.996    491.422    505.359    491.422
 99.170    803.000    841.531    -38.531    491.206    825.569    491.206    507.158    491.206
 99.270    914.000    881.750     32.250    490.990    863.309    490.990    509.414    490.990
 99.370    926.864    936.436     -9.572    490.773    914.977    490.773    512.211    490.773
 99.470   1077.000   1005.108     71.892    490.557    980.008    490.557    515.633    490.557
 99.570   1094.000   1086.868      7.132    490.340   1057.419    490.340    519.766    490.340
 99.670   1161.000   1180.306    -19.306    490.124   1145.725    490.124    524.686    490.124
 99.770   1242.000   1283.411    -41.411    489.907   1242.852    489.907    530.454    489.907
 99.870   1348.000   1393.512    -45.512    489.690   1346.091    489.690    537.109    489.690
 99.970   1453.450   1507.267    -53.818    489.473   1452.093    489.473    544.661    489.473
100.070   1590.000   1620.738    -30.738    489.257   1556.947    489.257    553.080    489.257
100.170   1723.912   1729.579     -5.667    489.040   1656.384    489.040    562.290    489.040
100.270   1841.000   1829.360     11.640    488.823   1746.101    488.823    572.162    488.823
100.370   1848.488   1915.955    -67.467    488.606   1822.157    488.606    582.511    488.606
100.470   1999.000   1985.872     13.128    488.389   1881.311    488.389    593.083    488.389
100.570   2058.000   2036.416     21.584    488.172   1921.186    488.172    603.558    488.172
100.670   2052.000   2065.677    -13.677    487.956   1940.261    487.956    613.548    487.956
100.770   2084.000   2072.499     11.501    487.739   1937.831    487.739    622.601    487.739
100.870   2088.354   2056.585     31.770    487.522   1914.090    487.522    630.225    487.522
100.970   2042.000   2018.752     23.248    487.306   1870.341    487.306    635.932    487.306
101.070   1987.000   1961.176     25.824    487.090   1809.182    487.090    639.302    487.090
101.170   1946.000   1887.408     58.592    486.874   1734.442    486.874    640.055    486.874
101.270   1882.559   1802.047     80.512    486.658   1650.800    486.658    638.113    486.658
101.370   1710.000   1710.198     -0.198    486.442   1563.220    486.442    633.616    486.442
101.470   1648.000   1616.871     31.129    486.227   1476.389    486.227    626.890    486.227
101.570   1515.000   1526.511    -11.511    486.012   1394.303    486.012    618.385    486.012
101.670   1441.000   1442.685     -1.685    485.797   1320.035    485.797    608.595    485.797
101.770   1396.000   1367.919     28.081    485.582   1255.630    485.582    598.005    485.582
101.870   1269.000   1303.659    -34.659    485.368   1202.096    485.368    587.049    485.368
101.970   1296.929   1250.298     46.631    485.154   1159.460    485.154    576.098    485.154
102.070   1178.229   1207.274    -29.045    484.941   1126.858    484.941    565.452    484.941
102.170   1179.945   1173.204      6.741    484.727   1102.676    484.727    555.343    484.727
102.270   1132.000   1146.066    -14.066    484.515   1084.724    484.515    545.941    484.515
102.370   1125.000   1123.426      1.574    484.302   1070.452    484.302    537.357    484.302
102.470   1049.000   1102.705    -53.705    484.090   1057.222    484.090    529.654    484.090
102.570   1088.000   1081.496      6.504    483.879   1042.607    483.879    522.850    483.879
102.670   1043.000   1057.872    -14.872    483.668   1024.698    483.668    516.925    483.668
102.770   1065.000   1030.613     34.387    483.457   1002.322    483.457    511.833    483.457
102.870   1000.000    999.287      0.713    483.247    975.113    483.247    507.507    483.247
102.970    996.022    964.164     31.858    483.038    943.418    483.038    503.869    483.038
103.070    907.000    926.022    -19.022    482.829    908.100    482.829    500.832    482.829
103.170    886.000    885.929      0.071    482.621    870.315    482.621    498.312    482.621
103.270    841.000    845.063     -4.063    482.413    831.323    482.413    496.225    482.413
103.370    770.341    804.578    -34.238    482.206    792.354    482.206    494.498    482.206
103.470    786.000    765.519     20.481    482.000    754.516    482.000    493.062    482.000
103.570    724.865    728.758     -3.894    481.794    718.745    481.794    491.861    481.794
103.670    699.000    694.970      4.030    481.589    685.759    481.589    490.847    481.589
103.770    663.000    664.606     -1.606    481.385    656.052    481.385    489.979    481.385
103.870    642.000    637.911      4.089    481.182    629.899    481.182    489.227    481.182
103.970    635.000    614.931     20.069    480.979    607.373    480.979    488.564    480.979
104.070    556.000    595.547    -39.547    480.777    588.373    480.777    487.973    480.777
104.170    598.000    579.514     18.486    480.576    572.669    480.576    487.438    480.576
104.270    551.000    566.499    -15.499    480.376    559.940    480.376    486.949    480.376
104.370    580.000    556.144     23.856    480.177    549.835    480.177    486.496    480.177
104.470    562.000    548.062     13.938    479.979    541.974    479.979    486.074    479.979
104.570    577.000    541.887     35.113    479.781    535.996    479.781    485.677    479.781
104.670    589.000    537.288     51.712    479.585    531.574    479.585    485.302    479.585
104.770    557.470    533.985     23.484    479.390    528.428    479.390    484.947    479.390
104.870    497.000    531.750    -34.750    479.195    526.335    479.195    484.610    479.195
104.970    576.192    530.412     45.780    479.002    525.124    479.002    484.288    479.002
105.070    564.868    529.852     35.016    478.809    524.678    478.809    483.980    478.809
105.170    514.000    530.004    -16.004    478.618    524.932    478.618    483.685    478.618
105.270    538.000    530.847      7.153    478.428    525.866    478.428    483.403    478.428
105.370    545.000    532.398     12.602    478.239    527.497    478.239    483.132    478.239
105.470    574.000    534.712     39.288    478.051    529.882    478.051    482.871    478.051
105.570    584.579    537.868     46.711    477.865    533.100    477.865    482.621    477.865
105.670    582.009    541.963     40.046    477.679    537.248    477.679    482.380    477.679
105.770    549.000    547.098      1.902    477.495    542.428    477.495    482.149    477.495
105.870    585.000    553.365     31.635    477.312    548.732    477.312    481.926    477.312
105.970    563.000    560.829      2.171    477.131    556.225    477.131    481.712    477.131
106.070    621.000    569.516     51.484    476.950    564.935    476.950    481.505    476.950
106.170    552.000    579.399    -27.399    476.771    574.835    476.771    481.307    476.771
106.270    548.000    590.392    -42.392    476.594    585.838    476.594    481.116    476.594
106.370    630.000    602.339     27.661    476.418    597.789    476.418    480.932    476.418
106.470    550.000    615.014    -65.014    476.243    610.462    476.243    480.756    476.243
106.570    596.000    628.124    -32.124    476.070    623.566    476.070    480.587    476.070
106.670    609.000    641.316    -32.316    475.898    636.746    475.898    480.426    475.898
106.770    648.000    654.189     -6.189    475.728    649.601    475.728    480.271    475.728
106.870    663.000    666.310     -3.310    475.560    661.701    475.560    480.123    475.560
106.970    634.000    677.246    -43.246    475.393    672.611    475.393    479.983    475.393
107.070    634.000    686.599    -52.599    475.227    681.933    475.227    479.849    475.227
107.170    645.000    694.054    -49.054    475.063    689.353    475.063    479.722    475.063
107.270    686.000    699.434    -13.434    474.901    694.694    474.901    479.603    474.901
107.370    686.000    702.738    -16.738    474.741    697.952    474.741    479.491    474.741
107.470    704.867    704.145      0.723    474.582    699.310    474.582    479.386    474.582
107.570    734.563    703.991     30.572    474.426    699.100    474.426    479.288    474.426
107.670    663.264    702.711    -39.447    474.271    697.760    474.271    479.198    474.271
107.770    668.973    700.775    -31.802    474.117    695.758    474.117    479.116    474.117
107.870    674.000    698.627    -24.627    473.966    693.537    473.966    479.041    473.966
107.970    643.000    696.640    -53.640    473.816    691.471    473.816    478.975    473.816
108.070    704.783    695.085      9.699    473.669    689.830    473.669    478.917    473.669
108.170    728.000    694.112     33.888    473.523    688.765    473.523    478.868    473.523
108.270    698.000    693.744      4.256    473.380    688.297    473.380    478.827    473.380
108.370    724.000    693.873     30.127    473.238    688.319    473.238    478.796    473.238
108.470    656.000    694.271    -38.271    473.099    688.603    473.099    478.774    473.099
108.570    690.000    694.606     -4.606    472.961    688.821    472.961    478.757    472.961
108.670    677.186    694.489    -17.303    472.826    688.573    472.826    478.755    472.826
108.770    699.000    693.496      5.504    472.692    687.440    472.692    478.765    472.692
108.870    703.000    691.238     11.762    472.561    685.033    472.561    478.786    472.561
108.970    672.249    687.419    -15.170    472.433    681.054    472.433    478.819    472.433
109.070    665.594    681.882    -16.288    472.306    675.346    472.306    478.864    472.306
109.170    645.000    674.625    -29.625    472.182    667.908    472.182    478.923    472.182
109.270    705.403    665.799     39.604    472.060    658.887    472.060    478.996    472.060
109.370    705.707    655.664     50.043    471.940    648.545    471.940    479.083    471.940
109.470    655.000    644.555     10.445    471.823    637.215    471.823    479.186    471.823
109.570    666.433    632.829     33.604    471.708    625.255    471.708    479.305    471.708
109.670    595.000    620.821    -25.821    471.595    613.004    471.595    479.432    471.595
109.770    608.000    608.913     -0.913    471.485    600.829    471.485    479.588    471.485
109.870    591.739    597.419     -5.679    471.378    589.048    471.378    479.765    471.378
109.970    585.000    586.574     -1.574    471.273    577.896    471.273    479.965    471.273
110.070    631.000    576.580     54.420    471.171    567.574    471.171    480.190    471.171
110.170    548.823    567.587    -18.764    471.071    558.227    471.071    480.442    471.071
110.270    514.550    559.691    -45.141    470.974    549.950    470.974    480.724    470.974
110.370    556.907    552.939      3.967    470.880    542.785    470.880    481.040    470.880
110.470    560.527    547.333     13.194    470.788    536.730    470.788    481.395    470.788
110.570    516.000    542.840    -26.840    470.699    531.746    470.699    481.796    470.699
110.670    518.000    539.398    -21.398    470.613    527.764    470.613    482.248    470.613
110.770    567.000    536.929     30.071    470.530    524.696    470.530    482.762    470.530
110.870    552.340    535.344     16.995    470.450    522.443    470.450    483.350    470.450
110.970    550.000    534.554     15.446    470.372    520.898    470.372    484.025    470.372
111.070    541.000    534.472      6.528    470.298    519.960    470.298    484.806    470.298
111.170    516.000    535.020    -19.020    470.226    519.527    470.226    485.714    470.226
111.270    552.000    536.136     15.864    470.158    519.511    470.158    486.777    470.158
111.370    557.000    537.772     19.228    470.092    519.830    470.092    488.028    470.092
111.470    589.035    539.896     49.139    470.030    520.415    470.030    489.503    470.030
111.570    550.000    542.496      7.504    469.971    521.208    469.971    491.251    469.971
111.670    534.000    545.577    -11.577    469.915    522.160    469.915    493.324    469.915
111.770    549.000    549.165     -0.165    469.862    523.236    469.862    495.782    469.862
111.870    547.000    553.303     -6.303    469.812    524.409    469.812    498.697    469.812
111.970    551.823    558.054     -6.230    469.766    525.666    469.766    502.144    469.766
112.070    569.000    563.497      5.503    469.723    527.001    469.723    506.208    469.723
112.170    609.000    569.727     39.273    469.683    528.422    469.683    510.977    469.683
112.270    607.987    576.852     31.134    469.647    529.942    469.647    516.546    469.647
112.370    533.910    584.990    -51.080    469.614    531.585    469.614    523.008    469.614
112.470    550.376    594.264    -43.888    469.585    533.381    469.585    530.455    469.585
112.570    587.453    604.798    -17.345    469.559    535.371    469.559    538.973    469.559
112.670    630.000    616.717     13.283    469.537    537.603    469.537    548.637    469.537
112.770    594.000    630.144    -36.144    469.518    540.141    469.518    559.506    469.518
112.870    637.727    645.197     -7.470    469.503    543.066    469.503    571.618    469.503
112.970    615.655    661.994    -46.340    469.492    546.483    469.492    584.985    469.492
113.070    676.000    680.653     -4.653    469.484    550.531    469.484    599.588    469.484
113.170    714.664    701.300     13.364    469.481    555.390    469.481    615.370    469.481
113.270    710.000    724.075    -14.075    469.481    561.300    469.481    632.232    469.481
113.370    758.000    749.150      8.850    469.484    568.578    469.484    650.030    469.484
113.470    796.000    776.741     19.259    469.492    577.632    469.492    668.572    469.492
113.570    833.154    807.132     26.022    469.504    588.990    469.504    687.612    469.504
113.670    903.939    840.693     63.246    469.519    603.327    469.519    706.846    469.519
113.770    884.706    877.913      6.793    469.539    621.489    469.539    725.918    469.539
113.870    928.000    919.423      8.577    469.563    644.521    469.563    744.412    469.563
113.970    963.000    966.027     -3.027    469.590    673.698    469.590    761.858    469.590
114.070   1000.465   1018.738    -18.273    469.622    710.538    469.622    777.748    469.622
114.170   1064.000   1078.804    -14.804    469.658    756.824    469.658    791.550    469.658
114.270   1179.313   1147.746     31.567    469.699    814.597    469.699    802.743    469.699
114.370   1244.000   1227.382     16.618    469.743    886.145    469.743    810.856    469.743
114.470   1393.300   1319.838     73.462    469.792    973.959    469.792    815.522    469.792
114.570   1442.000   1427.528     14.472    469.846   1080.678    469.846    816.518    469.846
114.670   1561.636   1553.097      8.540    469.903   1208.993    469.903    813.796    469.903
114.770   1705.000   1699.306      5.694    469.965   1361.530    469.965    807.494    469.965
114.870   1890.000   1868.867     21.133    470.032   1540.701    470.032    797.909    470.032
114.970   2153.000   2064.230     88.770    470.103   1748.533    470.103    785.467    470.103
115.070   2282.548   2287.347     -4.798    470.179   1986.476    470.179    770.669    470.179
115.170   2547.414   2539.424      7.990    470.259   2255.207    470.259    754.046    470.259
115.270   2812.000   2820.697     -8.697    470.344   2554.438    470.344    736.123    470.344
115.370   3143.000   3130.222     12.778    470.434   2882.736    470.434    717.392    470.434
115.470   3460.589   3465.722     -5.134    470.528   3237.383    470.528    698.295    470.528
115.570   3886.993   3823.483     63.511    470.628   3614.277    470.628    679.220    470.628
115.670   4072.248   4198.303   -126.055    470.732   4007.890    470.732    660.499    470.732
115.770   4403.000   4583.523   -180.523    470.841   4411.292    470.841    642.404    470.841
115.870   5024.703   4971.117     53.586    470.955   4816.238    470.955    625.157    470.955
115.970   5222.178   5351.857   -129.679    471.074   5213.334    471.074    608.924    471.074
116.070   5607.000   5715.556   -108.556    471.198   5592.273    471.198    593.827    471.198
116.170   6051.000   6051.396     -0.396    471.327   5942.162    471.327    579.943    471.327
116.270   6309.000   6348.361    -39.361    471.461   6251.947    471.461    567.310    471.461
116.370   6485.862   6595.786   -109.924    471.601   6510.960    471.601    555.931    471.601
116.470   6754.000   6784.031    -30.031    471.746   6709.583    471.746    545.782    471.746
116.570   6986.084   6905.236     80.848    471.896   6840.004    471.896    536.813    471.896
116.670   6923.000   6954.055    -31.055    472.051   6896.942    472.051    528.956    472.051
116.770   6993.056   6928.215     64.841    472.211   6878.197    472.211    522.131    472.211
116.870   6774.955   6828.773    -53.818    472.378   6784.913    472.378    516.248    472.378
116.970   6715.000   6660.013     54.987    472.549   6621.462    472.549    511.214    472.549
117.070   6505.000   6428.862     76.138    472.726   6394.861    472.726    506.935    472.726
117.170   6292.934   6144.272    148.662    472.909   6114.149    472.909    503.319    472.909
117.270   5764.000   5816.442    -52.442    473.097   5789.612    473.097    500.279    473.097
117.370   5242.000   5456.128   -214.128    473.291   5432.084    473.291    497.736    473.291
117.470   5067.000   5074.062     -7.062    473.491   5052.372    473.491    495.615    473.491
117.570   4560.000   4680.498   -120.498    473.696   4660.794    473.696    493.852    473.696
117.670   4284.000   4284.864     -0.864    473.908   4266.838    473.908    492.389    473.908
117.770   3916.420   3895.508     20.912    474.125   3878.903    474.125    491.177    474.125
117.870   3741.000   3519.522    221.478    474.348   3504.125    474.348    490.174    474.348
117.970   3208.375   3162.645     45.729    474.577   3148.280    474.577    489.344    474.577
118.070   2900.000   2829.238     70.762    474.812   2815.761    474.812    488.657    474.812
118.170   2488.171   2522.321    -34.150    475.053   2509.616    475.053    488.090    475.053
118.270   2143.516   2243.674   -100.159    475.300   2231.645    475.300    487.623    475.300
118.370   2047.000   1993.966     53.034    475.554   1982.535    475.554    487.239    475.554
118.470   1689.000   1772.920    -83.920    475.814   1762.024    475.814    486.926    475.814
118.570   1590.000   1579.489     10.511    476.080   1569.075    476.080    486.673    476.080
118.670   1422.825   1412.035     10.790    476.352   1402.061    476.352    486.473    476.352
118.770   1178.000   1268.504    -90.504    476.631   1258.933    476.631    486.318    476.631
118.870   1131.000   1146.586    -15.586    476.916   1137.389    476.916    486.205    476.916
118.970   1036.000   1043.862     -7.862    477.208   1035.012    477.208    486.128    477.208
119.070    922.000    957.918    -35.918    477.506    949.392    477.506    486.084    477.506
119.170    932.812    886.438     46.374    477.811    878.215    477.811    486.072    477.811
119.270    783.000    827.273    -44.273    478.122    819.334    478.122    486.088    478.122
119.370    752.000    778.480    -26.480    478.440    770.807    478.440    486.132    478.440
119.470    755.000    738.345     16.655    478.765    730.921    478.765    486.202    478.765
119.570    659.161    705.383    -46.222    479.097    698.191    479.097    486.297    479.097
119.670    674.494    678.335     -3.842    479.436    671.359    479.436    486.417    479.436
119.770    618.000    656.148    -38.148    479.781    649.372    479.781    486.561    479.781
119.870    682.082    637.954     44.129    480.134    631.361    480.134    486.729    480.134
119.970    578.000    623.043    -45.043    480.494    616.618    480.494    486.921    480.494
120.070    583.000    610.847    -27.847    480.861    604.573    480.861    487.137    480.861
120.170    620.000    600.909     19.091    481.234    594.769    481.234    487.376    481.234
120.270    573.000    592.867    -19.867    481.616    586.844    481.616    487.641    481.616
120.370    584.996    586.438     -1.442    482.004    580.514    482.004    487.931    482.004
120.470    586.755    581.397      5.358    482.400    575.554    482.400    488.246    482.400
120.570    559.408    577.570    -18.162    482.803    571.789    482.803    488.587    482.803
120.670    604.000    574.821     29.179    483.213    569.083    483.213    488.956    483.213
120.770    562.254    573.043    -10.790    483.632    567.328    483.632    489.352    483.632
120.870    596.000    572.154     23.846    484.057    566.441    484.057    489.776    484.057
120.970    575.000    572.084      2.916    484.490    566.352    484.490    490.229    484.490
121.070    578.728    572.779      5.949    484.931    567.006    484.931    490.712    484.931
121.170    574.000    574.188     -0.188    485.380    568.353    485.380    491.225    485.380
121.270    563.000    576.264    -13.264    485.836    570.344    485.836    491.767    485.836
121.370    554.415    578.959    -24.544    486.301    572.933    486.301    492.339    486.301
121.470    591.363    582.222      9.142    486.773    576.068    486.773    492.940    486.773
121.570    621.000    585.996     35.004    487.253    579.694    487.253    493.571    487.253
121.670    540.603    590.216    -49.613    487.741    583.748    487.741    494.228    487.741
121.770    593.000    594.811     -1.811    488.238    588.157    488.238    494.912    488.238
121.870    608.000    599.698      8.302    488.742    592.843    488.742    495.620    488.742
121.970    593.561    604.786    -11.225    489.255    597.718    489.255    496.350    489.255
122.070    625.000    609.977     15.023    489.776    602.683    489.776    497.099    489.776
122.170    618.000    615.162      2.838    490.305    607.636    490.305    497.863    490.305
122.270    625.000    620.228      4.772    490.843    612.467    490.843    498.638    490.843
122.370    609.000    625.058    -16.058    491.389    617.063    491.389    499.421    491.389
122.470    612.000    629.536    -17.536    491.943    621.313    491.943    500.206    491.943
122.570    631.000    633.549     -2.549    492.507    625.110    492.507    500.988    492.507
122.670    648.000    636.993     11.007    493.078    628.355    493.078    501.760    493.078
122.770    668.000    639.781     28.219    493.659    630.968    493.659    502.517    493.659
122.870    640.000    641.846     -1.846    494.248    632.888    494.248    503.253    494.248
122.970    653.000    643.147      9.853    494.846    634.080    494.846    503.961    494.846
123.070    613.722    643.671    -29.949    495.453    634.535    495.453    504.638    495.453
123.170    641.000    643.431     -2.431    496.069    634.272    496.069    505.277    496.069
123.270    662.000    642.467     19.533    496.694    633.331    496.694    505.878    496.694
123.370    649.745    640.838      8.907    497.328    631.775    497.328    506.438    497.328
123.470    652.000    638.617     13.383    497.972    629.674    497.972    506.959    497.972
123.570    645.000    635.889      9.111    498.624    627.113    498.624    507.443    498.624
123.670    653.000    632.742     20.258    499.286    624.175    499.286    507.893    499.286
123.770    680.105    629.267     50.838    499.957    620.945    499.957    508.316    499.957
123.870    575.000    625.550    -50.550    500.637    617.505    500.637    508.716    500.637
123.970    646.000    621.674     24.326    501.327    613.932    501.327    509.100    501.327
124.070    624.973    617.712      7.261    502.026    610.293    502.026    509.474    502.026
124.170    601.000    613.728    -12.728    502.735    606.646    502.735    509.843    502.735
124.270    571.047    609.776    -38.728    503.454    603.038    503.454    510.214    503.454
124.370    598.118    605.896     -7.778    504.183    599.508    504.183    510.590    504.183
124.470    607.000    602.119      4.881    504.921    596.079    504.921    510.977    504.921
124.570    618.000    598.464     19.536    505.669    592.768    505.669    511.379    505.669
124.670    639.000    594.942     44.058    506.427    589.583    506.427    511.798    506.427
124.770    594.000    591.555      2.445    507.195    586.522    507.195    512.238    507.195
124.870    568.818    588.301    -19.483    507.973    583.581    507.973    512.701    507.973
124.970    610.068    585.173     24.895    508.761    580.752    508.761    513.189    508.761
