neutron_powder_diffraction_0168
R_wp: 3.958
Temperature (K): 1074.000
Counts: 83417.00
Wavelength (Ã…): 2.52098
COMMENTS
Test file for demonstrating the .xyy file format in Reel1.0
END OF HEADER
   tth       Y_obs     Y_calc      Y_res    Background    Phase_1_Nuc    Phase_1_Mag    Phase_2_Nuc    Phase_2_Mag
  9.970    596.000    568.004     27.996    567.253    567.953    567.253    567.304    567.253
 10.070    645.000    568.168     76.832    567.353    568.117    567.353    567.404    567.353
 10.170    611.582    568.333     43.250    567.446    568.281    567.446    567.497    567.446
 10.270    592.084    568.502     23.582    567.534    568.450    567.534    567.585    567.534
 10.370    577.163    568.678      8.485    567.616    568.626    567.616    567.667    567.616
 10.470    532.000    568.864    -36.864    567.692    568.812    567.692    567.744    567.692
 10.570    574.288    569.066      5.222    567.763    569.013    567.763    567.815    567.763
 10.670    602.587    569.287     33.301    567.828    569.234    567.828    567.880    567.828
 10.770    590.883    569.534     21.349    567.887    569.481    567.887    567.939    567.887
 10.870    565.375    569.817     -4.443    567.941    569.764    567.941    567.993    567.941
 10.970    570.000    570.150     -0.150    567.989    570.096    567.989    568.042    567.989
 11.070    574.000    570.551      3.449    568.032    570.497    568.032    568.085    568.032
 11.170    592.000    571.048     20.952    568.070    570.994    568.070    568.123    568.070
 11.270    595.000    571.684     23.316    568.102    571.629    568.102    568.155    568.102
 11.370    597.650    572.534     25.116    568.129    572.478    568.129    568.183    568.129
 11.470    594.140    573.766     20.374    568.151    573.709    568.151    568.205    568.151
 11.570    626.000    575.829     50.171    568.167    575.771    568.167    568.222    568.167
 11.670    575.657    579.939     -4.283    568.179    579.878    568.179    568.234    568.179
 11.770    660.000    588.739     71.261    568.186    588.672    568.186    568.241    568.186
 11.870    606.107    606.219     -0.112    568.187    606.141    568.187    568.243    568.187
 11.970    664.860    635.174     29.686    568.184    635.080    568.184    568.240    568.184
 12.070    683.160    671.660     11.500    568.175    671.546    568.175    568.232    568.175
 12.170    659.000    700.043    -41.043    568.162    699.912    568.162    568.219    568.162
 12.270    729.778    700.947     28.831    568.144    700.815    568.144    568.202    568.144
 12.370    665.000    673.557     -8.557    568.122    673.440    568.122    568.179    568.122
 12.470    603.000    636.904    -33.904    568.094    636.807    568.094    568.152    568.094
 12.570    597.000    607.299    -10.299    568.062    607.219    568.062    568.120    568.062
 12.670    555.000    589.220    -34.220    568.026    589.150    568.026    568.084    568.026
 12.770    594.000    580.051     13.949    567.984    579.985    567.984    568.043    567.984
 12.870    545.138    575.755    -30.617    567.939    575.692    567.939    567.998    567.939
 12.970    562.000    573.600    -11.600    567.889    573.537    567.889    567.948    567.889
 13.070    603.990    572.313     31.677    567.834    572.251    567.834    567.894    567.834
 13.170    564.000    571.420     -7.420    567.775    571.358    567.775    567.835    567.775
 13.270    617.209    570.746     46.463    567.712    570.685    567.712    567.772    567.712
 13.370    569.000    570.216     -1.216    567.645    570.154    567.645    567.705    567.645
 13.470    594.460    569.784     24.676    567.573    569.722    567.573    567.634    567.573
 13.570    548.473    569.423    -20.950    567.497    569.361    567.497    567.558    567.497
 13.670    555.000    569.113    -14.113    567.417    569.051    567.417    567.479    567.417
 13.770    526.000    568.842    -42.842    567.334    568.780    567.334    567.395    567.334
 13.870    603.319    568.600     34.719    567.246    568.537    567.246    567.308    567.246
 13.970    554.000    568.378    -14.378    567.154    568.316    567.154    567.216    567.154
 14.070    500.000    568.174    -68.174    567.058    568.111    567.058    567.120    567.058
 14.170    543.634    567.982    -24.347    566.958    567.918    566.958    567.021    566.958
 14.270    521.254    567.799    -46.545    566.854    567.735    566.854    566.918    566.854
 14.370    529.000    567.624    -38.624    566.747    567.559    566.747    566.811    566.747
 14.470    550.232    567.457    -17.225    566.636    567.393    566.636    566.700    566.636
 14.570    549.000    567.294    -18.294    566.521    567.229    566.521    566.585    566.521
 14.670    560.992    567.131     -6.139    566.403    567.066    566.403    566.467    566.403
 14.770    560.000    566.969     -6.969    566.280    566.904    566.280    566.346    566.280
 14.870    589.000    566.808     22.192    566.155    566.742    566.155    566.221    566.155
 14.970    586.800    566.652     20.148    566.026    566.582    566.026    566.095    566.026
 15.070    578.000    566.493     11.507    565.893    566.421    565.893    565.965    565.893
 15.170    478.000    566.332    -88.332    565.757    566.260    565.757    565.829    565.757
 15.270    539.000    566.171    -27.171    565.617    566.098    565.617    565.690    565.617
 15.370    618.000    566.008     51.992    565.475    565.935    565.475    565.547    565.475
 15.470    536.000    565.844    -29.844    565.328    565.771    565.328    565.402    565.328
 15.570    521.560    565.679    -44.118    565.179    565.605    565.179    565.253    565.179
 15.670    596.000    565.512     30.488    565.026    565.438    565.026    565.100    565.026
 15.770    538.000    565.343    -27.343    564.871    565.268    564.871    564.945    564.871
 15.870    561.000    565.173     -4.173    564.712    565.097    564.712    564.787    564.712
 15.970    593.478    565.000     28.478    564.549    564.925    564.549    564.625    564.549
 16.070    592.000    564.826     27.174    564.384    564.750    564.384    564.460    564.384
 16.170    573.779    564.649      9.130    564.216    564.573    564.216    564.293    564.216
 16.270    573.000    564.470      8.530    564.045    564.394    564.045    564.122    564.045
 16.370    543.615    564.290    -20.675    563.871    564.212    563.871    563.948    563.871
 16.470    531.000    564.107    -33.107    563.694    564.029    563.694    563.772    563.694
 16.570    541.000    563.922    -22.922    563.514    563.844    563.514    563.593    563.514
 16.670    582.237    563.735     18.502    563.332    563.656    563.332    563.411    563.332
 16.770    520.739    563.545    -42.806    563.147    563.466    563.147    563.226    563.147
 16.870    553.000    563.354    -10.354    562.958    563.274    562.958    563.038    562.958
 16.970    548.577    563.162    -14.585    562.768    563.082    562.768    562.848    562.768
 17.070    515.000    562.966    -47.966    562.574    562.886    562.574    562.655    562.574
 17.170    529.788    562.768    -32.981    562.378    562.687    562.378    562.459    562.378
 17.270    556.000    562.568     -6.568    562.180    562.486    562.180    562.261    562.180
 17.370    539.000    562.365    -23.365    561.978    562.283    561.978    562.061    561.978
 17.470    527.000    562.161    -35.161    561.775    562.078    561.775    561.858    561.775
 17.570    569.000    561.954      7.046    561.569    561.871    561.569    561.652    561.569
 17.670    570.000    561.745      8.255    561.360    561.661    561.360    561.444    561.360
 17.770    571.000    561.535      9.465    561.149    561.451    561.149    561.234    561.149
 17.870    562.000    561.324      0.676    560.936    561.239    560.936    561.021    560.936
 17.970    568.000    561.109      6.891    560.721    561.023    560.721    560.806    560.721
 18.070    583.993    560.892     23.101    560.503    560.806    560.503    560.589    560.503
 18.170    566.000    560.674      5.326    560.283    560.587    560.283    560.369    560.283
 18.270    566.851    560.453      6.398    560.060    560.366    560.060    560.148    560.060
 18.370    527.000    560.231    -33.231    559.836    560.143    559.836    559.924    559.836
 18.470    588.000    560.007     27.993    559.609    559.918    559.609    559.698    559.609
 18.570    580.000    559.781     20.219    559.381    559.692    559.381    559.470    559.381
 18.670    570.850    559.553     11.297    559.150    559.463    559.150    559.240    559.150
 18.770    560.785    559.323      1.461    558.917    559.233    558.917    559.008    558.917
 18.870    589.820    559.092     30.728    558.683    559.001    558.683    558.774    558.683
 18.970    563.728    558.859      4.869    558.446    558.767    558.446    558.538    558.446
 19.070    590.798    558.625     32.173    558.208    558.532    558.208    558.300    558.208
 19.170    564.996    558.389      6.607    557.967    558.295    557.967    558.061    557.967
 19.270    551.636    558.151     -6.515    557.725    558.057    557.725    557.819    557.725
 19.370    564.000    557.913      6.087    557.481    557.818    557.481    557.576    557.481
 19.470    577.000    557.687     19.313    557.235    557.591    557.235    557.331    557.235
 19.570    522.000    557.455    -35.455    556.988    557.359    556.988    557.084    556.988
 19.670    578.000    557.213     20.787    556.738    557.116    556.738    556.836    556.738
 19.770    565.000    556.969      8.031    556.487    556.871    556.487    556.586    556.487
 19.870    559.000    556.725      2.275    556.235    556.624    556.235    556.336    556.235
 19.970    595.971    556.479     39.492    555.981    556.377    555.981    556.083    555.981
 20.070    571.724    556.232     15.492    555.725    556.128    555.725    555.828    555.725
 20.170    565.000    555.983      9.017    555.468    555.878    555.468    555.572    555.468
 20.270    600.667    555.733     44.934    555.209    555.627    555.209    555.314    555.209
 20.370    551.000    555.482     -4.482    554.949    555.376    554.949    555.055    554.949
 20.470    572.000    555.230     16.770    554.687    555.123    554.687    554.794    554.687
 20.570    563.990    554.978      9.012    554.424    554.869    554.424    554.532    554.424
 20.670    532.000    554.725    -22.725    554.159    554.615    554.159    554.269    554.159
 20.770    544.565    554.471     -9.906    553.894    554.360    553.894    554.004    553.894
 20.870    551.000    554.216     -3.216    553.626    554.105    553.626    553.738    553.626
 20.970    568.000    553.962     14.038    553.358    553.849    553.358    553.471    553.358
 21.070    528.473    553.706    -25.234    553.088    553.593    553.088    553.202    553.088
 21.170    544.000    553.451     -9.451    552.817    553.336    552.817    552.933    552.817
 21.270    574.356    553.196     21.161    552.545    553.079    552.545    552.662    552.545
 21.370    562.000    552.948      9.052    552.272    552.830    552.272    552.390    552.272
 21.470    594.000    552.774     41.226    551.998    552.655    551.998    552.117    551.998
 21.570    583.000    552.540     30.460    551.722    552.420    551.722    551.843    551.722
 21.670    517.362    552.287    -34.925    551.446    552.165    551.446    551.567    551.446
 21.770    588.305    552.035     36.270    551.168    551.913    551.168    551.291    551.168
 21.870    542.000    551.787     -9.787    550.890    551.662    550.890    551.014    550.890
 21.970    527.978    551.536    -23.558    550.610    551.410    550.610    550.736    550.610
 22.070    574.000    551.286     22.714    550.330    551.159    550.330    550.457    550.330
 22.170    532.000    551.039    -19.039    550.048    550.910    550.048    550.177    550.048
 22.270    564.638    550.794     13.844    549.766    550.664    549.766    549.897    549.766
 22.370    530.000    550.555    -20.555    549.483    550.423    549.483    549.615    549.483
 22.470    572.000    550.322     21.678    549.199    550.188    549.199    549.333    549.199
 22.570    516.937    550.153    -33.215    548.914    550.017    548.914    549.050    548.914
 22.670    559.000    549.968      9.032    548.628    549.830    548.628    548.766    548.628
 22.770    552.000    549.750      2.250    548.342    549.610    548.342    548.482    548.342
 22.870    521.000    549.535    -28.535    548.055    549.394    548.055    548.197    548.055
 22.970    535.000    549.331    -14.331    547.767    549.187    547.767    547.911    547.767
 23.070    524.737    549.138    -24.401    547.479    548.993    547.479    547.625    547.479
 23.170    569.000    548.961     20.039    547.190    548.813    547.190    547.338    547.190
 23.270    525.000    548.802    -23.802    546.900    548.652    546.900    547.051    546.900
 23.370    588.919    548.667     40.252    546.610    548.515    546.610    546.763    546.610
 23.470    525.990    548.565    -22.575    546.319    548.410    546.319    546.474    546.319
 23.570    535.132    548.503    -13.371    546.027    548.346    546.027    546.186    546.027
 23.670    540.000    548.497     -8.497    545.735    548.337    545.735    545.897    545.735
 23.770    504.336    548.567    -44.231    545.443    548.404    545.443    545.607    545.443
 23.870    577.750    548.747     29.003    545.150    548.582    545.150    545.317    545.150
 23.970    506.000    549.101    -43.101    544.857    548.933    544.857    545.027    544.857
 24.070    573.841    549.779     24.062    544.563    549.608    544.563    544.737    544.563
 24.170    597.316    551.188     46.128    544.269    551.015    544.269    544.446    544.269
 24.270    597.915    554.337     43.578    543.975    554.162    543.975    544.156    543.975
 24.370    594.000    561.160     32.840    543.680    560.987    543.680    543.865    543.680
 24.470    617.678    574.114     43.564    543.385    573.946    543.385    543.574    543.385
 24.570    571.000    594.148    -23.148    543.090    593.990    543.090    543.283    543.090
 24.670    644.156    617.268     26.888    542.794    617.123    542.794    542.992    542.794
 24.770    601.000    632.391    -31.391    542.498    632.252    542.498    542.701    542.498
 24.870    610.000    628.687    -18.687    542.202    628.541    542.202    542.410    542.202
 24.970    582.000    609.083    -27.083    541.906    608.918    541.906    542.119    541.906
 25.070    556.000    585.765    -29.765    541.609    585.578    541.609    541.828    541.609
 25.170    596.919    567.464     29.455    541.313    567.257    541.313    541.537    541.313
 25.270    549.000    556.226     -7.226    541.016    556.005    541.016    541.247    541.016
 25.370    503.090    550.327    -47.237    540.719    550.095    540.719    540.957    540.719
 25.470    529.000    547.381    -18.381    540.423    547.139    540.423    540.668    540.423
 25.570    575.051    545.776     29.275    540.126    545.526    540.126    540.378    540.126
 25.670    562.000    544.741     17.259    539.829    544.482    539.829    540.090    539.829
 25.770    558.000    543.978     14.022    539.532    543.710    539.532    539.802    539.532
 25.870    567.000    543.372     23.628    539.235    543.093    539.235    539.515    539.235
 25.970    551.000    542.874      8.126    538.938    542.585    538.938    539.228    538.938
 26.070    569.742    542.463     27.279    538.641    542.163    538.641    538.942    538.641
 26.170    508.827    542.127    -33.300    538.345    541.814    538.345    538.658    538.345
 26.270    564.000    541.841     22.159    538.048    541.515    538.048    538.374    538.048
 26.370    509.781    541.632    -31.851    537.751    541.292    537.751    538.092    537.751
 26.470    596.000    541.459     54.541    537.455    541.103    537.455    537.811    537.455
 26.570    544.000    541.313      2.687    537.159    540.940    537.159    537.532    537.159
 26.670    543.000    541.216      1.784    536.863    540.824    536.863    537.255    536.863
 26.770    552.000    541.178     10.822    536.567    540.766    536.567    536.979    536.567
 26.870    562.000    541.210     20.790    536.272    540.775    536.272    536.707    536.272
 26.970    558.000    541.327     16.673    535.976    540.866    535.976    536.436    535.976
 27.070    567.000    541.561     25.439    535.681    541.073    535.681    536.169    535.681
 27.170    520.000    541.946    -21.946    535.387    541.427    535.387    535.905    535.387
 27.270    503.367    542.495    -39.128    535.092    541.940    535.092    535.646    535.092
 27.370    531.855    543.301    -11.446    534.798    542.707    534.798    535.391    534.798
 27.470    559.000    544.500     14.500    534.504    543.861    534.504    535.142    534.504
 27.570    575.773    546.443     29.330    534.211    545.753    534.211    534.899    534.211
 27.670    572.000    550.424     21.576    533.918    549.675    533.918    534.664    533.918
 27.770    559.443    561.052     -1.609    533.625    560.233    533.625    534.438    533.625
 27.870    623.000    590.523     32.477    533.333    589.617    533.333    534.223    533.333
 27.970    649.313    658.551     -9.238    533.041    657.532    533.041    534.021    533.041
 28.070    779.000    774.660      4.340    532.750    773.499    532.750    533.836    532.750
 28.170    934.000    905.581     28.419    532.459    904.265    532.459    533.672    532.459
 28.270    970.142    970.025      0.117    532.169    968.558    532.169    533.534    532.169
 28.370    886.000    914.805    -28.805    531.879    913.191    531.879    533.430    531.879
 28.470    801.000    796.173      4.827    531.590    794.367    531.590    533.371    531.590
 28.570    732.000    704.784     27.216    531.301    702.698    531.301    533.376    531.301
 28.670    655.000    686.923    -31.923    531.013    684.444    531.013    533.476    531.013
 28.770    768.023    736.405     31.618    530.726    733.387    530.726    533.723    530.726
 28.870    804.000    810.010     -6.010    530.439    806.237    530.439    534.197    530.439
 28.970    845.000    844.799      0.201    530.153    839.937    530.153    535.016    530.153
 29.070    792.000    804.050    -12.050    529.867    797.598    529.867    536.331    529.867
 29.170    685.000    720.185    -35.185    529.582    711.479    529.582    538.300    529.582
 29.270    659.000    643.423     15.577    529.298    631.689    529.298    541.040    529.298
 29.370    642.000    596.330     45.670    529.014    580.827    529.014    544.520    529.014
 29.470    560.000    575.551    -15.551    528.731    555.903    528.731    548.379    528.731
 29.570    588.000    568.683     19.317    528.449    545.454    528.449    551.677    528.449
 29.670    604.000    565.815     38.185    528.167    540.965    528.167    553.016    528.167
 29.770    567.842    562.273      5.569    527.886    538.589    527.886    551.569    527.886
 29.870    619.000    557.404     61.596    527.606    537.047    527.606    547.962    527.606
 29.970    552.000    552.210     -0.210    527.327    535.965    527.327    543.571    527.327
 30.070    552.222    547.608      4.613    527.049    535.224    527.049    539.432    527.049
 30.170    544.000    544.029     -0.029    526.771    534.805    526.771    535.993    526.771
 30.270    540.000    541.658     -1.658    526.494    534.820    526.494    533.330    526.494
 30.370    615.000    540.843     74.157    526.218    535.710    526.218    531.347    526.218
 30.470    543.000    542.622      0.378    525.943    538.670    525.943    529.889    525.943
 30.570    576.103    549.101     27.001    525.669    545.957    525.669    528.801    525.669
 30.670    581.000    562.678     18.322    525.396    560.091    525.396    527.960    525.396
 30.770    565.881    583.247    -17.366    525.123    581.055    525.123    527.278    525.123
 30.870    574.000    604.642    -30.642    524.852    602.743    524.852    526.699    524.852
 30.970    626.000    614.428     11.572    524.581    612.763    524.581    526.189    524.581
 31.070    619.000    604.419     14.581    524.311    602.956    524.311    525.728    524.311
 31.170    585.000    582.208      2.792    524.043    580.917    524.043    525.303    524.043
 31.270    560.000    560.227     -0.227    523.775    559.079    523.775    524.906    523.775
 31.370    543.598    544.911     -1.313    523.508    543.881    523.508    524.531    523.508
 31.470    563.000    536.505     26.495    523.242    535.570    523.242    524.174    523.242
 31.570    527.000    532.535     -5.535    522.978    531.680    522.978    523.831    522.978
 31.670    507.000    530.691    -23.691    522.714    529.902    522.714    523.500    522.714
 31.770    556.000    529.706     26.294    522.451    528.975    522.451    523.180    522.451
 31.870    506.000    529.077    -23.077    522.189    528.397    522.189    522.868    522.189
 31.970    565.000    528.637     36.363    521.929    528.001    521.929    522.563    521.929
 32.070    574.000    528.333     45.667    521.669    527.737    521.669    522.265    521.669
 32.170    513.147    528.142    -14.995    521.411    527.579    521.411    521.972    521.411
 32.270    539.000    528.052     10.948    521.153    527.520    521.153    521.685    521.153
 32.370    573.000    528.067     44.933    520.897    527.562    520.897    521.402    520.897
 32.470    566.000    528.196     37.804    520.642    527.715    520.642    521.123    520.642
 32.570    549.299    528.455     20.844    520.388    527.995    520.388    520.847    520.388
 32.670    541.000    528.868     12.132    520.135    528.428    520.135    520.575    520.135
 32.770    548.000    529.474     18.526    519.883    529.051    519.883    520.306    519.883
 32.870    556.930    530.326     26.603    519.632    529.918    519.632    520.039    519.632
 32.970    556.072    531.505     24.567    519.383    531.111    519.383    519.776    519.383
 33.070    554.000    533.136     20.864    519.135    532.755    519.135    519.515    519.135
 33.170    540.000    535.445      4.555    518.888    535.075    518.888    519.256    518.888
 33.270    547.000    538.958      8.042    518.642    538.598    518.642    518.999    518.642
 33.370    540.000    545.127     -5.127    518.397    544.776    518.397    518.745    518.397
 33.470    536.069    557.806    -21.737    518.154    557.461    518.154    518.493    518.154
 33.570    583.388    585.425     -2.037    517.912    585.083    517.912    518.242    517.912
 33.670    623.852    641.413    -17.561    517.671    641.068    517.671    517.994    517.671
 33.770    788.000    738.000     50.000    517.431    737.646    517.431    517.747    517.431
 33.870    883.000    871.355     11.645    517.192    870.990    517.192    517.503    517.192
 33.970   1043.000   1005.034     37.966    516.955   1004.664    516.955    517.260    516.955
 34.070    997.000   1070.476    -73.476    516.719   1070.120    516.719    517.019    516.719
 34.170    990.000   1021.346    -31.346    516.485   1021.022    516.485    516.779    516.485
 34.270    916.000    893.928     22.072    516.251    893.633    516.251    516.542    516.251
 34.370    745.000    757.176    -12.176    516.019    756.897    516.019    516.306    516.019
 34.470    651.000    653.288     -2.288    515.789    653.014    515.789    516.072    515.789
 34.570    544.000    590.585    -46.585    515.559    590.311    515.559    515.839    515.559
 34.670    564.000    558.509      5.491    515.331    558.235    515.331    515.608    515.331
 34.770    527.126    543.352    -16.225    515.105    543.078    515.105    515.378    515.105
 34.870    534.000    535.825     -1.825    514.879    535.554    514.879    515.150    514.879
 34.970    515.000    531.440    -16.440    514.655    531.170    514.655    514.924    514.655
 35.070    579.000    528.440     50.560    514.433    528.172    514.433    514.700    514.433
 35.170    551.231    526.181     25.050    514.211    525.916    514.211    514.477    514.211
 35.270    498.000    524.400    -26.400    513.992    524.136    513.992    514.255    513.992
 35.370    506.000    522.956    -16.956    513.773    522.693    513.773    514.035    513.773
 35.470    499.264    521.760    -22.497    513.556    521.499    513.556    513.817    513.556
 35.570    548.000    520.753     27.247    513.340    520.494    513.340    513.600    513.340
 35.670    525.000    519.892      5.108    513.126    519.633    513.126    513.385    513.126
 35.770    509.068    519.145    -10.077    512.913    518.887    512.913    513.171    512.913
 35.870    547.000    518.490     28.510    512.702    518.233    512.702    512.959    512.702
 35.970    464.000    517.910    -53.910    512.492    517.653    512.492    512.749    512.492
 36.070    488.000    517.392    -29.392    512.283    517.135    512.283    512.540    512.283
 36.170    506.000    516.926    -10.926    512.076    516.670    512.076    512.332    512.076
 36.270    535.000    516.506     18.494    511.871    516.251    511.871    512.126    511.871
 36.370    536.000    516.128     19.872    511.666    515.872    511.666    511.922    511.666
 36.470    529.544    515.787     13.757    511.464    515.531    511.464    511.719    511.464
 36.570    511.000    515.484     -4.484    511.263    515.228    511.263    511.518    511.263
 36.670    503.712    515.219    -11.508    511.063    514.963    511.063    511.319    511.063
 36.770    509.000    515.002     -6.002    510.864    514.746    510.864    511.121    510.864
 36.870    521.000    514.854      6.146    510.668    514.597    510.668    510.925    510.668
 36.970    525.758    514.832     10.926    510.472    514.575    510.472    510.730    510.472
 37.070    555.918    515.064     40.854    510.279    514.806    510.279    510.537    510.279
 37.170    527.848    515.778     12.071    510.086    515.519    510.086    510.345    510.086
 37.270    544.083    517.275     26.808    509.895    517.016    509.895    510.155    509.895
 37.370    511.000    519.783     -8.783    509.706    519.524    509.706    509.967    509.706
 37.470    533.000    523.178      9.822    509.518    522.918    509.518    509.780    509.518
 37.570    517.000    526.692     -9.692    509.332    526.432    509.332    509.595    509.332
 37.670    500.885    528.887    -28.002    509.147    528.628    509.147    509.411    509.147
 37.770    547.000    528.570     18.430    508.964    528.312    508.964    509.229    508.964
 37.870    532.000    526.041      5.959    508.783    525.783    508.783    509.049    508.783
 37.970    508.000    522.595    -14.595    508.603    522.338    508.603    508.870    508.603
 38.070    489.168    519.255    -30.087    508.424    518.996    508.424    508.693    508.424
 38.170    540.924    516.458     24.466    508.247    516.197    508.247    508.518    508.247
 38.270    543.907    514.344     29.563    508.072    514.078    508.072    508.344    508.072
 38.370    486.663    512.872    -26.209    507.898    512.603    507.898    508.172    507.898
 38.470    554.000    511.897     42.103    507.725    511.624    507.725    508.001    507.725
 38.570    510.000    511.256     -1.256    507.555    510.980    507.555    507.832    507.555
 38.670    505.000    510.818     -5.818    507.385    510.540    507.385    507.665    507.385
 38.770    492.045    510.494    -18.449    507.218    510.213    507.218    507.500    507.218
 38.870    508.144    510.231     -2.087    507.052    509.948    507.052    507.336    507.052
 38.970    531.000    510.002     20.998    506.887    509.716    506.887    507.173    506.887
 39.070    486.000    509.795    -23.795    506.725    509.507    506.725    507.013    506.725
 39.170    521.759    509.603     12.156    506.563    509.313    506.563    506.854    506.563
 39.270    461.000    509.425    -48.425    506.404    509.132    506.404    506.697    506.404
 39.370    563.000    509.258     53.742    506.245    508.962    506.245    506.541    506.245
 39.470    495.386    509.100    -13.714    506.089    508.802    506.089    506.387    506.089
 39.570    495.000    508.951    -13.951    505.934    508.651    505.934    506.235    505.934
 39.670    515.459    508.811      6.648    505.781    508.507    505.781    506.084    505.781
 39.770    518.000    508.679      9.321    505.629    508.372    505.629    505.936    505.629
 39.870    500.000    508.555     -8.555    505.479    508.245    505.479    505.789    505.479
 39.970    516.000    508.438      7.562    505.330    508.126    505.330    505.643    505.330
 40.070    471.960    508.331    -36.371    505.184    508.015    505.184    505.499    505.184
 40.170    505.642    508.231     -2.590    505.038    507.913    505.038    505.357    505.038
 40.270    514.000    508.142      5.858    504.895    507.819    504.895    505.217    504.895
 40.370    493.000    508.062    -15.062    504.753    507.736    504.753    505.079    504.753
 40.470    518.539    507.993     10.545    504.612    507.664    504.612    504.942    504.612
 40.570    502.000    507.937     -5.937    504.473    507.604    504.473    504.807    504.473
 40.670    463.000    507.895    -44.895    504.336    507.558    504.336    504.673    504.336
 40.770    466.955    507.869    -40.914    504.200    507.528    504.200    504.542    504.200
 40.870    468.000    507.862    -39.862    504.066    507.517    504.066    504.412    504.066
 40.970    493.000    507.877    -14.877    503.934    507.528    503.934    504.284    503.934
 41.070    519.000    507.920     11.080    503.803    507.566    503.803    504.158    503.803
 41.170    488.671    507.996    -19.324    503.674    507.638    503.674    504.033    503.674
 41.270    550.229    508.113     42.116    503.547    507.751    503.547    503.910    503.547
 41.370    504.000    508.283     -4.283    503.421    507.916    503.421    503.789    503.421
 41.470    504.000    508.522     -4.522    503.297    508.150    503.297    503.670    503.297
 41.570    504.698    508.855     -4.157    503.174    508.478    503.174    503.553    503.174
 41.670    492.000    509.327    -17.327    503.053    508.945    503.053    503.437    503.053
 41.770    491.226    510.043    -18.817    502.934    509.656    502.934    503.323    502.934
 41.870    505.000    511.249     -6.249    502.816    510.857    502.816    503.211    502.816
 41.970    473.888    513.511    -39.623    502.700    513.114    502.700    503.101    502.700
 42.070    490.000    517.943    -27.943    502.585    517.542    502.585    502.993    502.585
 42.170    500.095    526.301    -26.205    502.473    525.897    502.473    502.886    502.473
 42.270    504.000    540.563    -36.563    502.361    540.159    502.361    502.781    502.361
 42.370    538.351    561.715    -23.364    502.252    561.315    502.252    502.679    502.252
 42.470    573.736    587.963    -14.227    502.144    587.569    502.144    502.578    502.144
 42.570    578.000    613.206    -35.206    502.037    612.818    502.037    502.479    502.037
 42.670    608.000    627.612    -19.612    501.933    627.228    501.933    502.381    501.933
 42.770    629.000    623.712      5.288    501.829    623.320    501.829    502.286    501.829
 42.870    603.000    603.774     -0.774    501.728    603.366    501.728    502.193    501.728
 42.970    593.718    577.134     16.584    501.628    576.704    501.628    502.102    501.628
 43.070    598.145    552.372     45.773    501.530    551.919    501.530    502.012    501.530
 43.170    566.491    533.787     32.704    501.433    533.314    501.433    501.925    501.433
 43.270    547.231    521.889     25.342    501.338    521.398    501.338    501.839    501.338
 43.370    486.624    515.138    -28.514    501.245    514.634    501.245    501.756    501.245
 43.470    522.000    511.569     10.431    501.153    511.051    501.153    501.675    501.153
 43.570    497.000    509.672    -12.672    501.063    509.142    501.063    501.595    501.063
 43.670    482.437    508.572    -26.135    500.974    508.030    500.974    501.518    500.974
 43.770    453.000    507.849    -54.849    500.887    507.295    500.887    501.443    500.887
 43.870    532.940    507.323     25.617    500.802    506.756    500.802    501.370    500.802
 43.970    514.000    506.918      7.082    500.718    506.338    500.718    501.299    500.718
 44.070    478.000    506.599    -28.599    500.636    506.005    500.636    501.231    500.636
 44.170    542.401    506.343     36.058    500.555    505.735    500.555    501.164    500.555
 44.270    475.165    506.139    -30.973    500.476    505.515    500.476    501.100    500.476
 44.370    475.248    505.975    -30.727    500.399    505.336    500.399    501.039    500.399
 44.470    458.000    505.845    -47.845    500.323    505.189    500.323    500.980    500.323
 44.570    527.932    505.744     22.188    500.249    505.070    500.249    500.923    500.249
 44.670    530.760    505.668     25.092    500.176    504.976    500.176    500.869    500.176
 44.770    511.000    505.613      5.387    500.105    504.902    500.105    500.817    500.105
 44.870    511.000    505.579      5.421    500.036    504.847    500.036    500.768    500.036
 44.970    502.000    505.563     -3.563    499.968    504.810    499.968    500.722    499.968
 45.070    526.000    505.565     20.435    499.902    504.789    499.902    500.679    499.902
 45.170    479.000    505.584    -26.584    499.837    504.783    499.837    500.638    499.837
 45.270    517.116    505.620     11.497    499.774    504.792    499.774    500.601    499.774
 45.370    546.000    505.672     40.328    499.712    504.817    499.712    500.567    499.712
 45.470    477.000    505.741    -28.741    499.652    504.857    499.652    500.536    499.652
 45.570    542.000    505.828     36.172    499.594    504.912    499.594    500.509    499.594
 45.670    500.000    505.934     -5.934    499.537    504.985    499.537    500.486    499.537
 45.770    480.000    506.060    -26.060    499.482    505.075    499.482    500.467    499.482
 45.870    509.000    506.208      2.792    499.428    505.184    499.428    500.452    499.428
 45.970    515.000    506.380      8.620    499.376    505.314    499.376    500.441    499.376
 46.070    526.000    506.579     19.421    499.325    505.468    499.325    500.435    499.325
 46.170    549.530    506.808     42.722    499.276    505.649    499.276    500.435    499.276
 46.270    500.481    507.073     -6.591    499.228    505.861    499.228    500.439    499.228
 46.370    514.992    507.378      7.614    499.182    506.109    499.182    500.450    499.182
 46.470    508.000    507.732      0.268    499.138    506.401    499.138    500.468    499.138
 46.570    510.000    508.145      1.855    499.095    506.746    499.095    500.493    499.095
 46.670    533.000    508.634     24.366    499.053    507.160    499.053    500.526    499.053
 46.770    521.000    509.226     11.774    499.013    507.670    499.013    500.568    499.013
 46.870    519.000    509.979      9.021    498.975    508.332    498.975    500.619    498.975
 46.970    529.000    511.022     17.978    498.938    509.275    498.938    500.682    498.938
 47.070    529.706    512.630     17.075    498.902    510.771    498.902    500.758    498.902
 47.170    549.000    515.324     33.676    498.868    513.339    498.868    500.848    498.868
 47.270    491.238    519.923    -28.685    498.836    517.796    498.836    500.954    498.836
 47.370    555.000    527.466     27.534    498.805    525.177    498.805    501.080    498.805
 47.470    547.000    538.741      8.259    498.775    536.267    498.775    501.227    498.775
 47.570    582.332    553.613     28.719    498.747    550.926    498.747    501.401    498.747
 47.670    553.686    570.275    -16.590    498.721    567.346    498.721    501.605    498.721
 47.770    573.000    584.836    -11.836    498.696    581.631    498.696    501.846    498.696
 47.870    637.048    592.137     44.911    498.672    588.619    498.672    502.133    498.672
 47.970    625.000    589.133     35.867    498.650    585.256    498.650    502.474    498.650
 48.070    559.000    577.899    -18.899    498.629    573.598    498.629    502.887    498.629
 48.170    583.326    563.467     19.858    498.610    558.652    498.610    503.394    498.610
 48.270    593.949    550.216     43.733    498.592    544.755    498.592    504.032    498.592
 48.370    592.000    540.539     51.461    498.576    534.242    498.576    504.860    498.576
 48.470    517.000    535.065    -18.065    498.561    527.644    498.561    505.974    498.561
 48.570    573.998    533.362     40.636    498.547    524.383    498.547    507.521    498.547
 48.670    505.481    534.697    -29.216    498.535    523.513    498.535    509.715    498.535
 48.770    555.000    538.541     16.459    498.524    524.223    498.524    512.839    498.524
 48.870    574.217    544.742     29.474    498.515    526.028    498.515    517.226    498.515
 48.970    534.004    553.462    -19.458    498.507    528.762    498.507    523.203    498.507
 49.070    589.255    565.064     24.191    498.501    532.565    498.501    530.995    498.501
 49.170    594.000    580.147     13.853    498.496    538.051    498.496    540.587    498.496
 49.270    633.086    599.999     33.087    498.492    546.962    498.492    551.521    498.492
 49.370    669.000    627.926     41.074    498.489    563.761    498.489    562.642    498.489
 49.470    704.000    671.932     32.068    498.488    598.497    498.488    571.901    498.488
 49.570    745.508    748.452     -2.943    498.489    670.139    498.489    576.757    498.489
 49.670    892.000    884.281      7.719    498.491    807.155    498.491    575.539    498.491
 49.770   1094.000   1110.229    -16.229    498.494   1039.881    498.494    568.718    498.494
 49.870   1440.132   1441.474     -1.342    498.498   1381.307    498.498    558.497    498.498
 49.970   1870.000   1850.924     19.076    498.504   1801.936    498.504    547.307    498.504
 50.070   2256.000   2252.906      3.094    498.511   2214.429    498.511    536.836    498.511
 50.170   2542.000   2517.993     24.007    498.520   2488.513    498.520    527.942    498.520
 50.270   2526.439   2535.385     -8.946    498.529   2513.093    498.529    520.888    498.529
 50.370   2333.477   2294.289     39.188    498.540   2277.411    498.540    515.579    498.540
 50.470   1876.700   1894.403    -17.703    498.553   1881.413    498.553    511.739    498.553
 50.570   1485.161   1469.559     15.602    498.567   1459.276    498.567    509.030    498.567
 50.670    998.000   1116.836   -118.836    498.582   1108.421    498.582    507.135    498.582
 50.770    847.000    874.554    -27.554    498.598    867.449    498.598    505.798    498.598
 50.870    718.000    733.829    -15.829    498.615    727.677    498.615    504.831    498.615
 50.970    660.000    663.282     -3.282    498.634    657.854    498.634    504.109    498.634
 51.070    653.000    630.290     22.710    498.654    625.431    498.654    503.551    498.654
 51.170    591.000    611.815    -20.815    498.676    607.415    498.676    503.109    498.676
 51.270    640.306    596.503     43.803    498.698    592.478    498.698    502.752    498.698
 51.370    607.884    581.474     26.410    498.722    577.760    498.722    502.459    498.722
 51.470    528.139    567.506    -39.367    498.747    564.052    498.747    502.218    498.747
 51.570    574.000    555.849     18.151    498.773    552.616    498.773    502.019    498.773
 51.670    573.000    547.130     25.870    498.801    544.085    498.801    501.855    498.801
 51.770    544.000    541.276      2.724    498.830    538.391    498.830    501.720    498.830
 51.870    514.614    537.778    -23.164    498.860    535.032    498.860    501.610    498.860
 51.970    585.000    536.022     48.978    498.891    533.395    498.891    501.521    498.891
 52.070    587.000    535.511     51.489    498.923    532.986    498.923    501.451    498.923
 52.170    519.269    535.970    -16.701    498.957    533.532    498.957    501.397    498.957
 52.270    590.000    537.362     52.638    498.991    534.997    498.991    501.358    498.991
 52.370    536.000    539.929     -3.929    499.027    537.627    499.027    501.331    499.027
 52.470    582.464    544.365     38.099    499.064    542.114    499.064    501.316    499.064
 52.570    563.000    552.164     10.836    499.102    549.955    499.102    501.312    499.102
 52.670    621.000    566.149     54.851    499.142    563.975    499.142    501.316    499.142
 52.770    580.000    590.928    -10.928    499.182    588.779    499.182    501.330    499.182
 52.870    613.488    632.764    -19.276    499.223    630.633    499.223    501.352    499.223
 52.970    734.000    698.198     35.802    499.266    696.078    499.266    501.381    499.266
 53.070    848.000    791.070     56.930    499.310    788.957    499.310    501.418    499.310
 53.170    965.000    908.469     56.531    499.355    906.358    499.355    501.461    499.355
 53.270   1029.000   1036.926     -7.926    499.401   1034.815    499.401    501.511    499.401
 53.370   1155.000   1150.688      4.312    499.448   1148.576    499.448    501.568    499.448
 53.470   1133.000   1216.338    -83.338    499.496   1214.224    499.496    501.631    499.496
 53.570   1140.000   1209.448    -69.448    499.545   1207.326    499.545    501.700    499.545
 53.670   1075.000   1133.089    -58.089    499.595   1130.949    499.595    501.775    499.595
 53.770   1003.138   1014.990    -11.851    499.647   1012.820    499.647    501.856    499.647
 53.870    863.000    887.791    -24.791    499.699    885.580    499.699    501.944    499.699
 53.970    813.640    774.984     38.656    499.752    772.725    499.752    502.037    499.752
 54.070    690.000    687.874      2.126    499.807    685.562    499.807    502.137    499.807
 54.170    599.000    627.831    -28.831    499.862    625.462    499.862    502.244    499.862
 54.270    584.378    590.259     -5.881    499.919    587.827    499.919    502.358    499.919
 54.370    558.000    568.516    -10.516    499.976    566.019    499.976    502.478    499.976
 54.470    591.000    556.602     34.398    500.034    554.034    500.034    502.606    500.034
 54.570    582.465    550.259     32.206    500.094    547.613    500.094    502.742    500.094
 54.670    574.000    546.940     27.060    500.154    544.210    500.154    502.885    500.154
 54.770    580.000    545.315     34.685    500.215    542.494    500.215    503.038    500.215
 54.870    592.532    544.760     47.772    500.278    541.839    500.278    503.200    500.278
 54.970    582.030    545.005     37.025    500.341    541.975    500.341    503.372    500.341
 55.070    541.265    545.948     -4.683    500.405    542.800    500.405    503.554    500.405
 55.170    555.000    547.571      7.429    500.470    544.293    500.470    503.749    500.470
 55.270    533.000    549.910    -16.910    500.536    546.491    500.536    503.956    500.536
 55.370    580.000    553.053     26.947    500.603    549.480    500.603    504.177    500.603
 55.470    588.000    557.166     30.834    500.671    553.425    500.671    504.413    500.671
 55.570    586.667    562.574     24.092    500.739    558.649    500.739    504.665    500.739
 55.670    591.761    569.960     21.801    500.809    565.833    500.809    504.936    500.809
 55.770    569.070    580.808    -11.738    500.879    576.459    500.879    505.228    500.879
 55.870    642.114    598.262     43.853    500.951    593.667    500.951    505.543    500.951
 55.970    595.000    628.462    -33.462    501.023    623.596    501.023    505.883    501.023
 56.070    652.000    682.086    -30.086    501.096    676.917    501.096    506.252    501.096
 56.170    811.474    775.098     36.376    501.170    769.591    501.170    506.654    501.170
 56.270    918.000    927.015     -9.015    501.244    921.129    501.244    507.093    501.244
 56.370   1180.000   1155.059     24.941    501.320   1148.751    501.320    507.574    501.320
 56.470   1405.000   1464.220    -59.220    501.396   1457.448    501.396    508.104    501.396
 56.570   1912.598   1836.003     76.595    501.473   1828.725    501.473    508.690    501.473
 56.670   2247.660   2220.492     27.168    501.551   2212.666    501.551    509.342    501.551
 56.770   2558.000   2537.055     20.945    501.629   2528.638    501.629    510.069    501.629
 56.870   2673.000   2694.197    -21.197    501.709   2685.125    501.709    510.886    501.709
 56.970   2685.723   2637.249     48.474    501.789   2627.418    501.789    511.810    501.789
 57.070   2453.000   2388.485     64.515    501.870   2377.737    501.870    512.863    501.870
 57.170   2030.968   2028.656      2.312    501.951   2016.788    501.951    514.076    501.951
 57.270   1701.000   1646.824     54.176    502.033   1633.597    502.033    515.490    502.033
 57.370   1327.000   1308.134     18.866    502.116   1293.264    502.116    517.171    502.116
 57.470   1045.000   1045.470     -0.470    502.200   1028.584    502.200    519.219    502.200
 57.570    893.000    863.988     29.012    502.285    844.566    502.285    521.793    502.285
 57.670    735.136    751.517    -16.380    502.370    728.799    502.370    525.139    502.370
 57.770    714.000    689.748     24.252    502.455    662.606    502.455    529.626    502.455
 57.870    669.000    662.374      6.626    502.542    629.151    502.542    535.779    502.542
 57.970    610.275    658.856    -48.582    502.629    617.199    502.629    544.288    502.629
 58.070    677.708    674.724      2.983    502.717    621.447    502.717    555.986    502.717
 58.170    760.068    709.956     50.112    502.805    640.981    502.805    571.762    502.805
 58.270    796.407    766.593     29.813    502.894    677.057    502.894    592.401    502.894
 58.370    818.000    846.309    -28.309    502.984    730.892    502.984    618.362    502.984
 58.470    947.000    948.095     -1.095    503.074    801.631    503.074    649.491    503.074
 58.570   1107.328   1066.610     40.718    503.165    885.051    503.165    684.673    503.165
 58.670   1179.000   1191.486    -12.486    503.256    973.318    503.256    721.378    503.256
 58.770   1253.000   1308.620    -55.620    503.348   1056.740    503.348    755.194    503.348
 58.870   1393.000   1403.246    -10.246    503.441   1126.727    503.441    779.942    503.441
 58.970   1507.601   1462.391     45.210    503.534   1176.462    503.534    789.466    503.534
 59.070   1467.000   1476.775     -9.775    503.627   1199.437    503.627    780.988    503.627
 59.170   1432.198   1444.881    -12.684    503.721   1191.579    503.721    757.062    503.721
 59.270   1410.000   1376.592     33.408    503.816   1156.695    503.816    723.753    503.816
 59.370   1376.000   1290.471     85.529    503.911   1107.124    503.911    687.285    503.911
 59.470   1318.000   1206.516    111.484    504.007   1058.363    504.007    652.161    504.007
 59.570   1154.000   1142.072     11.928    504.103   1025.142    504.103    620.998    504.103
 59.670   1134.000   1112.018     21.982    504.200   1021.166    504.200    594.970    504.200
 59.770   1189.000   1127.642     61.358    504.297   1057.532    504.297    574.272    504.297
 59.870   1263.000   1191.885     71.115    504.394   1137.617    504.394    558.470    504.394
 59.970   1298.000   1294.743      3.257    504.492   1252.200    504.492    546.789    504.492
 60.070   1507.000   1412.042     94.958    504.591   1378.003    504.591    538.343    504.591
 60.170   1557.664   1508.377     49.287    504.690   1480.470    504.690    532.297    504.690
 60.270   1522.739   1546.615    -23.877    504.789   1523.177    504.789    527.950    504.789
 60.370   1500.459   1505.290     -4.831    504.889   1485.181    504.889    524.774    504.889
 60.470   1439.000   1391.474     47.526    504.989   1373.911    504.989    522.393    504.989
 60.570   1263.000   1234.041     28.959    505.089   1218.470    505.089    520.562    505.089
 60.670   1131.785   1066.533     65.253    505.190   1052.549    505.190    519.122    505.190
 60.770    924.026    915.270      8.756    505.291    902.561    505.291    517.978    505.291
 60.870    788.929    795.150     -6.221    505.393    783.462    505.393    517.073    505.393
 60.970    759.151    710.366     48.785    505.495    699.485    505.495    516.372    505.495
 61.070    649.000    657.961     -8.961    505.597    647.697    505.597    515.855    505.597
 61.170    631.000    632.353     -1.353    505.700    622.536    505.700    515.505    505.700
 61.270    607.000    629.128    -22.128    505.803    619.601    505.803    515.310    505.803
 61.370    637.665    647.123     -9.458    505.906    637.746    505.906    515.251    505.906
 61.470    774.000    688.584     85.416    506.009    679.242    506.009    515.300    506.009
 61.570    757.799    757.566      0.233    506.113    748.187    506.113    515.418    506.113
 61.670    876.000    856.957     19.043    506.217    847.525    506.217    515.544    506.217
 61.770    946.000    984.824    -38.824    506.321    975.404    506.321    515.603    506.321
 61.870   1164.000   1131.226     32.774    506.426   1121.965    506.426    515.520    506.426
 61.970   1258.000   1276.683    -18.683    506.531   1267.775    506.531    515.253    506.531
 62.070   1425.000   1393.552     31.448    506.636   1385.184    506.636    514.819    506.636
 62.170   1461.000   1452.664      8.336    506.741   1444.969    506.741    514.276    506.741
 62.270   1479.586   1436.402     43.184    506.846   1429.437    506.846    513.692    506.846
 62.370   1331.680   1349.551    -17.871    506.952   1343.306    506.952    513.125    506.952
 62.470   1176.000   1215.922    -39.922    507.058   1210.336    507.058    512.611    507.058
 62.570    993.000   1065.115    -72.115    507.163   1060.105    507.163    512.167    507.163
 62.670    912.205    921.884     -9.679    507.270    917.362    507.270    511.801    507.270
 62.770    731.000    801.782    -70.782    507.376    797.661    507.376    511.511    507.376
 62.870    709.000    710.951     -1.951    507.482    707.157    507.482    511.288    507.482
 62.970    627.000    648.245    -21.245    507.589    644.718    507.589    511.123    507.589
 63.070    602.992    608.375     -5.383    507.695    605.068    507.695    511.005    507.695
 63.170    614.000    584.879     29.121    507.802    581.756    507.802    510.925    507.802
 63.270    603.000    572.117     30.883    507.909    569.150    507.909    510.873    507.909
 63.370    545.000    566.154    -21.154    508.016    563.323    508.016    510.842    508.016
 63.470    598.000    564.877     33.123    508.123    562.164    508.123    510.829    508.123
 63.570    578.000    567.756     10.244    508.230    565.148    508.230    510.829    508.230
 63.670    583.000    575.562      7.438    508.337    573.046    508.337    510.839    508.337
 63.770    662.000    590.077     71.923    508.444    587.642    508.444    510.859    508.444
 63.870    633.000    613.714     19.286    508.551    611.349    508.551    510.886    508.551
 63.970    719.000    648.901     70.099    508.659    646.596    508.659    510.919    508.659
 64.070    739.000    697.170     41.830    508.766    694.914    508.766    510.959    508.766
 64.170    749.744    758.063     -8.319    508.873    755.850    508.873    511.004    508.873
 64.270    807.000    828.113    -21.113    508.980    825.936    508.980    511.053    508.980
 64.370    852.000    900.196    -48.196    509.087    898.055    509.087    511.107    509.087
 64.470    986.000    963.780     22.220    509.195    961.679    509.195    511.165    509.195
 64.570    998.000   1007.139     -9.139    509.302   1005.084    509.302    511.227    509.302
 64.670   1065.882   1021.876     44.006    509.409   1019.877    509.409    511.292    509.409
 64.770   1002.000   1006.638     -4.638    509.516   1004.701    509.516    511.361    509.516
 64.870    966.000    966.700     -0.700    509.623    964.827    509.623    511.432    509.623
 64.970    933.000    911.123     21.877    509.729    909.310    509.729    511.506    509.729
 65.070    859.000    849.780      9.220    509.836    848.021    509.836    511.583    509.836
 65.170    812.173    790.717     21.456    509.943    789.005    509.943    511.662    509.943
 65.270    721.000    738.643    -17.643    510.049    736.968    510.049    511.743    510.049
 65.370    704.000    695.119      8.881    510.156    693.472    510.156    511.826    510.156
 65.470    660.000    659.850      0.150    510.262    658.225    510.262    511.912    510.262
 65.570    584.459    631.921    -47.462    510.368    630.312    510.368    511.999    510.368
 65.670    619.000    610.311      8.689    510.474    608.714    510.474    512.089    510.474
 65.770    641.082    593.994     47.088    510.579    592.406    510.579    512.180    510.579
 65.870    534.000    582.018    -48.018    510.685    580.438    510.685    512.273    510.685
 65.970    607.000    573.575     33.425    510.790    572.003    510.790    512.367    510.790
 66.070    512.000    568.005    -56.005    510.896    566.439    510.896    512.464    510.896
 66.170    520.000    564.771    -44.771    511.000    563.210    511.000    512.561    511.000
 66.270    581.000    563.443     17.557    511.105    561.888    511.105    512.661    511.105
 66.370    544.000    563.704    -19.704    511.210    562.153    511.210    512.762    511.210
 66.470    604.729    565.387     39.342    511.314    563.837    511.314    512.864    511.314
 66.570    554.000    568.537    -14.537    511.418    566.987    511.418    512.968    511.418
 66.670    609.607    573.539     36.067    511.522    571.988    511.522    513.073    511.522
 66.770    545.000    581.330    -36.330    511.625    579.775    511.625    513.180    511.625
 66.870    581.000    593.741    -12.741    511.728    592.180    511.728    513.289    511.728
 66.970    576.374    613.978    -37.604    511.831    612.409    511.831    513.399    511.831
 67.070    684.000    647.121     36.879    511.933    645.540    511.933    513.511    511.933
 67.170    694.478    700.411     -5.932    512.036    698.814    512.036    513.624    512.036
 67.270    809.127    782.936     26.191    512.137    781.320    512.137    513.739    512.137
 67.370    901.720    904.310     -2.590    512.239    902.675    512.239    513.856    512.239
 67.470   1053.159   1072.113    -18.953    512.340   1070.459    512.340    513.974    512.340
 67.570   1293.746   1288.350      5.395    512.441   1286.682    512.441    514.095    512.441
 67.670   1575.000   1545.742     29.258    512.541   1544.068    512.541    514.217    512.541
 67.770   1748.000   1824.943    -76.943    512.641   1823.276    512.641    514.342    512.641
 67.870   2061.000   2093.760    -32.760    512.741   2092.114    512.741    514.469    512.741
 67.970   2360.000   2309.796     50.204    512.840   2308.184    512.840    514.598    512.840
 68.070   2539.000   2429.398    109.602    512.939   2427.824    512.939    514.730    512.939
 68.170   2494.000   2424.059     69.941    513.038   2422.512    513.038    514.865    513.038
 68.270   2266.000   2295.230    -29.230    513.136   2293.683    513.136    515.002    513.136
 68.370   2175.000   2073.423    101.577    513.233   2071.840    513.233    515.143    513.233
 68.470   1749.087   1802.672    -53.584    513.330   1801.019    513.330    515.288    513.330
 68.570   1583.000   1524.700     58.300    513.427   1522.954    513.427    515.436    513.427
 68.670   1202.000   1270.644    -68.644    513.523   1268.792    513.523    515.588    513.523
 68.770   1026.576   1058.768    -32.191    513.619   1056.803    513.619    515.745    513.619
 68.870    915.000    895.443     19.557    513.714    893.367    513.714    515.906    513.714
 68.970    765.699    778.053    -12.354    513.809    775.867    513.809    516.073    513.809
 69.070    707.000    698.726      8.274    513.903    696.435    513.903    516.246    513.903
 69.170    640.000    647.819     -7.819    513.996    645.423    513.996    516.426    513.996
 69.270    640.000    616.362     23.638    514.089    613.861    514.089    516.613    514.089
 69.370    628.000    597.287     30.713    514.182    594.676    514.182    516.808    514.182
 69.470    601.000    585.668     15.332    514.274    582.940    514.274    517.012    514.274
 69.570    614.349    578.397     35.951    514.365    575.544    514.365    517.226    514.365
 69.670    594.000    573.670     20.330    514.456    570.679    514.456    517.452    514.456
 69.770    553.316    570.507    -17.191    514.546    567.367    514.546    517.690    514.546
 69.870    536.229    568.404    -32.175    514.636    565.100    514.636    517.943    514.636
 69.970    588.000    567.112     20.888    514.725    563.626    514.725    518.212    514.725
 70.070    580.000    566.514     13.486    514.814    562.830    514.814    518.499    514.814
 70.170    567.684    566.579      1.105    514.901    562.672    514.901    518.808    514.901
 70.270    564.000    567.338     -3.338    514.989    563.184    514.989    519.141    514.989
 70.370    611.882    568.912     42.970    515.075    564.482    515.075    519.503    515.075
 70.470    567.000    571.565     -4.565    515.161    566.825    515.161    519.898    515.161
 70.570    568.000    575.810     -7.810    515.246    570.721    515.246    520.330    515.246
 70.670    560.000    582.579    -22.579    515.331    577.094    515.331    520.808    515.331
 70.770    572.000    593.449    -21.449    515.415    587.510    515.415    521.342    515.415
 70.870    603.000    610.905     -7.905    515.498    604.441    515.498    521.944    515.498
 70.970    637.000    638.547     -1.547    515.580    631.465    515.580    522.634    515.580
 71.070    659.019    681.111    -22.093    515.662    673.287    515.662    523.444    515.662
 71.170    694.000    744.090    -50.090    515.743    735.351    515.743    524.420    515.743
 71.270    804.000    832.829    -28.829    515.824    822.930    515.824    525.636    515.824
 71.370    933.590    951.071    -17.481    515.903    939.656    515.903    527.202    515.903
 71.470   1076.412   1099.127    -22.716    515.982   1085.678    515.982    529.284    515.982
 71.570   1215.000   1272.100    -57.100    516.060   1255.871    516.060    532.111    516.060
 71.670   1518.941   1458.639     60.302    516.137   1438.586    516.137    535.990    516.137
 71.770   1671.691   1640.663     31.028    516.214   1615.365    516.214    541.299    516.214
 71.870   1779.073   1794.618    -15.545    516.290   1762.228    516.290    548.470    516.290
 71.970   1902.000   1895.525      6.475    516.365   1853.762    516.365    557.940    516.365
 72.070   1904.000   1924.755    -20.755    516.439   1870.966    516.439    570.075    516.439
 72.170   1967.000   1878.524     88.476    516.512   1809.846    516.512    585.079    516.512
 72.270   1779.919   1769.995      9.924    516.585   1683.628    516.585    602.878    516.585
 72.370   1616.000   1622.594     -6.594    516.656   1516.197    516.656    623.011    516.656
 72.470   1385.274   1460.796    -75.522    516.727   1332.985    516.727    644.519    516.727
 72.570   1325.842   1304.191     21.651    516.797   1155.139    516.797    665.844    516.797
 72.670   1224.803   1165.192     59.610    516.866    997.261    516.866    684.799    516.866
 72.770   1086.482   1048.976     37.506    516.935    867.157    516.935    698.757    516.935
 72.870    856.000    955.004    -99.004    517.002    766.734    517.002    705.276    517.002
 72.970    864.000    879.608    -15.608    517.069    693.622    517.069    703.058    517.069
 73.070    825.312    818.506      6.806    517.134    643.055    517.134    692.587    517.134
 73.170    770.000    768.206      1.794    517.199    609.532    517.199    675.875    517.199
 73.270    667.000    726.272    -59.272    517.263    587.987    517.263    655.550    517.263
 73.370    676.000    691.100    -15.100    517.326    574.380    517.326    634.048    517.326
 73.470    641.000    661.678    -20.678    517.388    565.835    517.388    613.233    517.388
 73.570    642.015    637.389      4.626    517.449    560.495    517.449    594.346    517.449
 73.670    580.000    617.832    -37.832    517.509    557.266    517.509    578.080    517.509
 73.770    575.000    602.661    -27.661    517.568    555.553    517.568    564.684    517.568
 73.870    571.000    591.486    -20.486    517.626    555.046    517.626    554.076    517.626
 73.970    583.000    583.823     -0.823    517.684    555.562    517.684    545.959    517.684
 74.070    594.000    579.091     14.909    517.740    556.932    517.740    539.919    517.740
 74.170    598.208    576.628     21.580    517.795    558.934    517.795    535.515    517.795
 74.270    594.518    575.716     18.801    517.849    561.257    517.849    532.339    517.849
 74.370    582.000    575.607      6.393    517.903    563.497    517.903    530.050    517.903
 74.470    552.513    575.562    -23.049    517.955    565.179    517.955    528.379    517.955
 74.570    547.388    574.936    -27.548    518.006    565.853    518.006    527.133    518.006
 74.670    591.774    573.312     18.462    518.057    565.237    518.057    526.175    518.057
 74.770    605.773    570.611     35.162    518.106    563.343    518.106    525.416    518.106
 74.870    614.000    567.084     46.916    518.154    560.479    518.154    524.796    518.154
 74.970    586.774    563.177     23.597    518.201    557.132    518.201    524.279    518.201
 75.070    551.000    559.401     -8.401    518.247    553.836    518.247    523.838    518.247
 75.170    612.000    556.253     55.747    518.292    551.107    518.292    523.458    518.292
 75.270    569.137    554.213     14.925    518.336    549.435    518.336    523.127    518.336
 75.370    523.641    553.753    -30.111    518.379    549.302    518.379    522.838    518.379
 75.470    584.000    555.364     28.636    518.421    551.204    518.421    522.583    518.421
 75.570    522.000    559.562    -37.562    518.462    555.662    518.462    522.358    518.462
 75.670    609.000    566.854     42.146    518.501    563.187    518.501    522.159    518.501
 75.770    623.431    577.662     45.768    518.540    574.203    518.540    521.981    518.540
 75.870    619.000    592.186     26.814    518.577    588.915    518.577    521.823    518.577
 75.970    586.536    610.245    -23.709    518.613    607.143    518.613    521.682    518.613
 76.070    687.000    631.125     55.875    518.649    628.176    518.649    521.556    518.649
 76.170    654.000    653.477      0.523    518.683    650.667    518.683    521.442    518.683
 76.270    686.000    675.295     10.705    518.715    672.612    518.715    521.340    518.715
 76.370    703.000    694.016      8.984    518.747    691.453    518.747    521.248    518.747
 76.470    750.000    706.850     43.150    518.778    704.398    518.778    521.164    518.778
 76.570    750.491    711.462     39.029    518.807    709.118    518.807    521.089    518.807
 76.670    720.000    706.882     13.118    518.835    704.640    518.835    521.020    518.835
 76.770    743.000    693.964     49.036    518.862    691.820    518.862    520.958    518.862
 76.870    609.000    674.969    -65.969    518.888    672.917    518.888    520.900    518.888
 76.970    605.567    652.666    -47.099    518.913    650.700    518.913    520.848    518.913
 77.070    603.000    629.622    -26.622    518.937    627.735    518.937    520.800    518.937
 77.170    567.000    607.853    -40.853    518.959    606.041    518.959    520.756    518.959
 77.270    610.590    588.709     21.881    518.980    586.964    518.980    520.715    518.980
 77.370    610.384    572.880     37.504    519.000    571.196    519.000    520.677    519.000
 77.470    570.444    560.494      9.950    519.018    558.866    519.018    520.641    519.018
 77.570    515.919    551.272    -35.353    519.036    549.697    519.036    520.608    519.036
 77.670    563.000    544.702     18.298    519.052    543.175    519.052    520.577    519.052
 77.770    528.000    540.187    -12.187    519.067    538.705    519.067    520.548    519.067
 77.870    554.000    537.151     16.849    519.081    535.710    519.081    520.521    519.081
 77.970    536.383    535.138      1.245    519.093    533.736    519.093    520.494    519.093
 78.070    528.000    533.827     -5.827    519.105    532.461    519.105    520.469    519.105
 78.170    503.000    532.953    -29.953    519.114    531.621    519.114    520.445    519.114
 78.270    489.000    532.356    -43.356    519.123    531.056    519.123    520.422    519.123
 78.370    497.000    531.942    -34.942    519.131    530.672    519.131    520.400    519.131
 78.470    512.000    531.661    -19.661    519.137    530.419    519.137    520.378    519.137
 78.570    560.000    531.489     28.511    519.142    530.272    519.142    520.357    519.142
 78.670    548.380    531.421     16.958    519.145    530.228    519.145    520.337    519.145
 78.770    492.000    531.466    -39.466    519.147    530.295    519.147    520.318    519.147
 78.870    496.000    531.639    -35.639    519.148    530.487    519.148    520.299    519.148
 78.970    522.000    531.969     -9.969    519.148    530.834    519.148    520.282    519.148
 79.070    525.000    532.483     -7.483    519.146    531.362    519.146    520.266    519.146
 79.170    521.935    533.210    -11.275    519.143    532.100    519.143    520.252    519.143
 79.270    537.000    534.178      2.822    519.139    533.075    519.139    520.240    519.139
 79.370    541.000    535.415      5.585    519.134    534.314    519.134    520.231    519.134
 79.470    520.430    536.945    -16.515    519.127    535.842    519.127    520.226    519.127
 79.570    514.000    538.801    -24.801    519.118    537.691    519.118    520.225    519.118
 79.670    529.000    541.035    -12.035    519.109    539.910    519.109    520.229    519.109
 79.770    523.511    543.731    -20.221    519.098    542.586    519.098    520.238    519.098
 79.870    556.000    547.031      8.969    519.086    545.858    519.086    520.253    519.086
 79.970    540.000    551.154    -11.154    519.072    549.948    519.072    520.273    519.072
 80.070    512.986    556.426    -43.439    519.057    555.181    519.057    520.297    519.057
 80.170    561.942    563.271     -1.328    519.041    561.985    519.041    520.324    519.041
 80.270    605.000    572.168     32.832    519.023    570.839    519.023    520.350    519.023
 80.370    597.000    583.550     13.450    519.004    582.181    519.004    520.374    519.004
 80.470    591.000    597.692     -6.692    518.983    596.290    518.983    520.390    518.983
 80.570    571.000    614.599    -43.599    518.961    613.176    518.961    520.394    518.961
 80.670    616.000    633.932    -17.932    518.938    632.504    518.938    520.380    518.938
 80.770    673.090    654.964     18.126    518.914    653.550    518.914    520.347    518.914
 80.870    657.000    676.608    -19.608    518.888    675.227    518.888    520.294    518.888
 80.970    656.692    697.535    -40.843    518.860    696.203    518.860    520.223    518.860
 81.070    709.000    716.361     -7.361    518.831    715.090    518.831    520.140    518.831
 81.170    685.746    731.831    -46.085    518.801    730.628    518.801    520.049    518.801
 81.270    730.179    742.935    -12.756    518.770    741.801    518.770    519.955    518.770
 81.370    772.000    748.982     23.018    518.737    747.915    518.737    519.860    518.737
 81.470    729.000    749.673    -20.673    518.702    748.669    518.702    519.767    518.702
 81.570    783.000    745.112     37.888    518.666    744.165    518.666    519.679    518.666
 81.670    787.000    735.767     51.233    518.629    734.868    518.629    519.595    518.629
 81.770    745.000    722.448     22.552    518.590    721.590    518.590    519.516    518.590
 81.870    706.503    706.285      0.217    518.550    705.461    518.550    519.442    518.550
 81.970    709.000    688.567     20.433    518.509    687.769    518.509    519.372    518.509
 82.070    644.000    670.474    -26.474    518.466    669.696    518.466    519.305    518.466
 82.170    662.000    652.866      9.134    518.422    652.103    518.422    519.242    518.422
 82.270    586.651    636.230    -49.579    518.376    635.479    518.376    519.181    518.376
 82.370    612.000    620.783     -8.783    518.329    620.040    518.329    519.121    518.329
 82.470    607.000    606.631      0.369    518.280    605.892    518.280    519.062    518.280
 82.570    580.000    593.889    -13.889    518.230    593.153    518.230    519.004    518.230
 82.670    597.256    582.710     14.546    518.178    581.974    518.178    518.946    518.178
 82.770    577.000    573.255      3.745    518.125    572.518    518.125    518.887    518.125
 82.870    584.000    565.662     18.338    518.071    564.924    518.071    518.828    518.071
 82.970    550.546    560.034     -9.488    518.015    559.293    518.015    518.767    518.015
 83.070    539.000    556.420    -17.420    517.958    555.675    517.958    518.707    517.958
 83.170    572.000    554.805     17.195    517.899    554.056    517.899    518.645    517.899
 83.270    536.357    555.085    -18.728    517.838    554.331    517.838    518.582    517.838
 83.370    531.429    557.052    -25.623    517.777    556.293    517.777    518.518    517.777
 83.470    524.842    560.384    -35.541    517.714    559.619    517.714    518.453    517.714
 83.570    521.482    564.641    -43.159    517.649    563.872    517.649    518.387    517.649
 83.670    558.000    569.285    -11.285    517.583    568.511    517.583    518.320    517.583
 83.770    532.000    573.702    -41.702    517.515    572.924    517.515    518.252    517.515
 83.870    640.000    577.251     62.749    517.446    576.471    517.446    518.182    517.446
 83.970    558.269    579.353    -21.084    517.376    578.572    517.376    518.112    517.376
 84.070    583.000    579.598      3.402    517.304    578.817    517.304    518.040    517.304
 84.170    579.000    577.864      1.136    517.231    577.085    517.231    517.967    517.231
 84.270    548.000    574.338    -26.338    517.156    573.563    517.156    517.893    517.156
 84.370    584.000    569.446     14.554    517.080    568.675    517.080    517.817    517.080
 84.470    581.000    563.716     17.284    517.002    562.949    517.002    517.741    517.002
 84.570    535.000    557.674    -22.674    516.923    556.910    516.923    517.663    516.923
 84.670    585.000    551.772     33.228    516.842    551.011    516.842    517.584    516.842
 84.770    531.000    546.352    -15.352    516.760    545.593    516.760    517.504    516.760
 84.870    548.000    541.637      6.363    516.676    540.878    516.676    517.423    516.676
 84.970    490.000    537.735    -47.735    516.591    536.977    516.591    517.340    516.591
 85.070    503.000    534.658    -31.658    516.504    533.899    516.504    517.257    516.504
 85.170    564.000    532.349     31.651    516.416    531.588    516.416    517.172    516.416
 85.270    530.613    530.710     -0.097    516.327    529.946    516.327    517.086    516.327
 85.370    499.000    529.631    -30.631    516.236    528.864    516.236    516.998    516.236
 85.470    557.200    529.011     28.188    516.143    528.240    516.143    516.910    516.143
 85.570    572.000    528.777     43.223    516.050    528.001    516.050    516.820    516.050
 85.670    542.908    528.887     14.022    515.954    528.106    515.954    516.729    515.954
 85.770    567.470    529.342     38.128    515.857    528.555    515.857    516.637    515.857
 85.870    555.000    530.186     24.814    515.759    529.393    515.759    516.544    515.759
 85.970    569.153    531.506     37.646    515.659    530.706    515.659    516.450    515.659
 86.070    536.351    533.433      2.918    515.558    532.624    515.558    516.355    515.558
 86.170    510.000    536.129    -26.129    515.455    535.311    515.455    516.258    515.455
 86.270    556.000    539.782     16.218    515.351    538.952    515.351    516.160    515.351
 86.370    521.400    544.579    -23.179    515.246    543.737    515.246    516.061    515.246
 86.470    553.000    550.682      2.318    515.139    549.825    515.139    515.962    515.139
 86.570    563.000    558.187      4.813    515.030    557.314    515.030    515.861    515.030
 86.670    590.000    567.088     22.912    514.920    566.196    514.920    515.759    514.920
 86.770    583.000    577.235      5.765    514.809    576.323    514.809    515.656    514.809
 86.870    623.000    588.306     34.694    514.696    587.373    514.696    515.552    514.696
 86.970    608.510    599.792      8.718    514.582    598.838    514.582    515.446    514.582
 87.070    623.000    611.001     11.999    514.466    610.027    514.466    515.340    514.466
 87.170    653.000    621.091     31.909    514.349    620.098    514.349    515.233    514.349
 87.270    651.904    629.145     22.759    514.230    628.135    514.230    515.125    514.230
 87.370    640.726    634.313      6.414    514.110    633.290    514.110    515.016    514.110
 87.470    637.000    636.011      0.989    513.989    634.979    513.989    514.907    513.989
 87.570    627.000    634.081     -7.081    513.866    633.044    513.866    514.796    513.866
 87.670    682.000    628.876     53.124    513.742    627.836    513.742    514.685    513.742
 87.770    648.000    621.114     26.886    513.616    620.073    513.616    514.572    513.616
 87.870    687.000    611.703     75.297    513.489    610.661    513.489    514.460    513.489
 87.970    631.680    601.608     30.073    513.360    600.564    513.360    514.346    513.360
 88.070    593.675    591.738      1.937    513.230    590.691    513.230    514.232    513.230
 88.170    623.000    582.879     40.121    513.099    581.828    513.099    514.117    513.099
 88.270    585.000    575.650      9.350    512.966    574.593    512.966    514.001    512.966
 88.370    551.000    570.479    -19.479    512.832    569.413    512.832    513.885    512.832
 88.470    541.000    567.590    -26.590    512.696    566.514    512.696    513.769    512.696
 88.570    613.000    567.016     45.984    512.559    565.927    512.559    513.652    512.559
 88.670    587.000    568.605     18.395    512.420    567.503    512.420    513.536    512.420
 88.770    566.456    572.042     -5.586    512.281    570.925    512.281    513.418    512.281
 88.870    560.315    576.871    -16.556    512.139    575.737    512.139    513.301    512.139
 88.970    558.000    582.518    -24.518    511.997    581.366    511.997    513.184    511.997
 89.070    583.000    588.323     -5.323    511.853    587.152    511.853    513.067    511.853
 89.170    613.000    593.579     19.421    511.708    592.386    511.708    512.950    511.708
 89.270    619.180    597.590     21.590    511.561    596.372    511.561    512.834    511.561
 89.370    565.386    599.764    -34.378    511.413    598.518    511.413    512.718    511.413
 89.470    597.000    599.720     -2.720    511.263    598.442    511.263    512.603    511.263
 89.570    583.343    597.375    -14.032    511.113    596.061    511.113    512.489    511.113
 89.670    599.000    592.952      6.048    510.961    591.596    510.961    512.376    510.961
 89.770    547.000    586.900    -39.900    510.807    585.499    510.807    512.264    510.807
 89.870    626.011    579.779     46.232    510.652    578.327    510.652    512.154    510.652
 89.970    577.000    572.152      4.848    510.496    570.647    510.496    512.047    510.496
 90.070    564.000    564.527     -0.527    510.339    562.962    510.339    511.941    510.339
 90.170    540.424    557.310    -16.887    510.180    555.684    510.180    511.838    510.180
 90.270    582.000    550.801     31.199    510.020    549.107    510.020    511.739    510.020
 90.370    514.449    545.180    -30.731    509.859    543.415    509.859    511.644    509.859
 90.470    546.000    540.529      5.471    509.696    538.686    509.696    511.554    509.696
 90.570    518.000    536.839    -18.839    509.532    534.913    509.532    511.470    509.532
 90.670    512.670    534.045    -21.375    509.367    532.026    509.367    511.393    509.367
 90.770    501.000    532.044    -31.044    509.200    529.922    509.200    511.327    509.200
 90.870    527.000    530.721     -3.721    509.032    528.483    509.032    511.273    509.032
 90.970    506.000    529.972    -23.972    508.863    527.601    508.863    511.236    508.863
 91.070    497.000    529.715    -32.715    508.693    527.188    508.693    511.220    508.693
 91.170    557.112    529.894     27.218    508.521    527.183    508.521    511.231    508.521
 91.270    505.359    530.466    -25.108    508.348    527.533    508.348    511.280    508.348
 91.370    522.000    531.538     -9.538    508.174    528.334    508.174    511.375    508.174
 91.470    556.000    533.176     22.824    507.999    529.640    507.999    511.531    507.999
 91.570    488.914    535.490    -46.577    507.822    531.544    507.822    511.763    507.822
 91.670    542.591    538.649      3.941    507.645    534.197    507.645    512.089    507.645
 91.770    522.000    542.859    -20.859    507.466    537.783    507.466    512.531    507.466
 91.870    519.228    548.351    -29.123    507.286    542.512    507.286    513.111    507.286
 91.970    509.655    555.368    -45.712    507.104    548.604    507.104    513.851    507.104
 92.070    547.098    564.141    -17.043    506.922    556.269    506.922    514.772    506.922
 92.170    540.000    574.864    -34.864    506.738    565.681    506.738    515.895    506.738
 92.270    592.102    587.664      4.437    506.553    576.954    506.553    517.230    506.553
 92.370    632.864    602.574     30.290    506.367    590.116    506.367    518.787    506.367
 92.470    655.958    619.505     36.452    506.180    605.080    506.180    520.559    506.180
 92.570    658.000    638.226     19.774    505.992    621.634    505.992    522.530    505.992
 92.670    658.000    658.349     -0.349    505.802    639.423    505.802    524.668    505.802
 92.770    719.000    679.328     39.672    505.611    657.950    505.611    526.922    505.611
 92.870    679.666    700.485    -20.819    505.420    676.609    505.420    529.224    505.420
 92.970    735.000    721.060     13.940    505.227    694.731    505.227    531.480    505.227
 93.070    723.707    740.295    -16.588    505.033    711.674    505.033    533.575    505.033
 93.170    722.552    757.573    -35.021    504.838    726.957    504.838    535.374    504.838
 93.270    744.225    772.528    -28.304    504.642    740.359    504.642    536.732    504.642
 93.370    776.000    785.081     -9.081    504.445    751.929    504.445    537.519    504.445
 93.470    799.906    795.392      4.514    504.247    761.922    504.247    537.640    504.247
 93.570    790.177    803.777    -13.600    504.048    770.684    504.048    537.066    504.048
 93.670    793.668    810.651    -16.983    503.847    778.590    503.847    535.837    503.847
 93.770    850.000    816.506     33.494    503.646    786.030    503.646    534.052    503.646
 93.870    796.749    821.926    -25.177    503.444    793.455    503.444    531.848    503.444
 93.970    781.386    827.569    -46.184    503.240    801.377    503.240    529.368    503.240
 94.070    827.909    834.073     -6.164    503.036    810.301    503.036    526.745    503.036
 94.170    836.000    841.892     -5.892    502.831    820.570    502.831    524.092    502.831
 94.270    880.882    851.129     29.753    502.625    832.197    502.625    521.497    502.625
 94.370    840.000    861.426    -21.426    502.418    844.757    502.418    519.029    502.418
 94.470    889.000    871.947     17.053    502.209    857.368    502.209    516.735    502.209
 94.570    889.208    881.443      7.764    502.000    868.751    502.000    514.643    502.000
 94.670    950.000    888.393     61.607    501.790    877.370    501.790    512.770    501.790
 94.770    923.000    891.228     31.772    501.580    881.653    501.580    511.118    501.580
 94.870    877.000    888.619    -11.619    501.368    880.280    501.368    509.679    501.368
 94.970    903.528    879.792     23.737    501.155    872.487    501.155    508.441    501.155
 95.070    903.371    864.728     38.643    500.942    858.275    500.942    507.383    500.942
 95.170    812.604    844.189    -31.586    500.727    838.429    500.727    506.484    500.727
 95.270    809.625    819.557     -9.931    500.512    814.350    500.512    505.722    500.512
 95.370    821.000    792.575     28.425    500.296    787.804    500.296    505.073    500.296
 95.470    785.000    765.187     19.813    500.079    760.756    500.079    504.519    500.079
 95.570    792.000    739.300     52.700    499.861    735.129    499.861    504.041    499.861
 95.670    723.000    716.713      6.287    499.643    712.739    499.643    503.624    499.643
 95.770    713.000    699.062     13.938    499.423    695.233    499.423    503.256    499.423
 95.870    666.172    687.783    -21.611    499.203    684.060    499.203    502.925    499.203
 95.970    638.303    684.106    -45.803    498.983    680.456    498.983    502.625    498.983
 96.070    758.000    689.049     68.951    498.761    685.445    498.761    502.348    498.761
 96.170    654.216    703.422    -49.206    498.539    699.843    498.539    502.092    498.539
 96.270    717.000    727.807    -10.807    498.316    724.235    498.316    501.852    498.316
 96.370    792.000    762.517     29.483    498.092    758.935    498.092    501.625    498.092
 96.470    826.023    807.524     18.499    497.868    803.921    497.868    501.411    497.868
 96.570    899.647    862.370     37.277    497.643    858.732    497.643    501.209    497.643
 96.670    983.181    926.066     57.115    497.417    922.384    497.417    501.016    497.417
 96.770   1032.010    997.010     35.001    497.191    993.274    497.191    500.834    497.191
 96.870   1028.000   1072.929    -44.929    496.964   1069.130    496.964    500.662    496.964
 96.970   1201.287   1150.869     50.418    496.736   1147.001    496.736    500.500    496.736
 97.070   1185.000   1227.239    -42.239    496.508   1223.294    496.508    500.348    496.508
 97.170   1300.421   1297.932      2.489    496.279   1293.903    496.279    500.207    496.279
 97.270   1376.000   1358.568     17.432    496.050   1354.448    496.050    500.077    496.050
 97.370   1407.627   1404.912      2.715    495.820   1400.695    495.820    499.959    495.820
 97.470   1425.133   1433.470     -8.337    495.590   1429.146    495.590    499.854    495.590
 97.570   1448.000   1442.098      5.902    495.359   1437.656    495.359    499.762    495.359
 97.670   1392.073   1430.450    -38.378    495.128   1425.874    495.128    499.686    495.128
 97.770   1348.000   1399.987    -51.987    494.896   1395.260    494.896    499.626    494.896
 97.870   1386.000   1353.606     32.394    494.664   1348.705    494.664    499.586    494.664
 97.970   1299.000   1295.074      3.926    494.431   1289.969    494.431    499.571    494.431
 98.070   1199.000   1228.504    -29.504    494.198   1223.163    494.198    499.585    494.198
 98.170   1089.000   1157.988    -68.988    493.964   1152.372    493.964    499.632    493.964
 98.270   1135.000   1087.352     47.648    493.730   1081.415    493.730    499.722    493.730
 98.370   1079.583   1020.008     59.575    493.496   1013.693    493.496    499.865    493.496
 98.470   1020.000    958.880     61.120    493.261    952.117    493.261    500.074    493.261
 98.570    940.127    906.379     33.748    493.026    899.079    493.026    500.368    493.026
 98.670    813.000    864.416    -51.416    492.791    856.472    492.791    500.770    492.791
 98.770    842.000    834.456      7.544    492.555    825.728    492.555    501.308    492.555
 98.870    770.000    817.573    -47.573    492.319    807.891    492.319    502.017    492.319
 98.970    752.000    814.532    -62.532    492.083    803.681    492.083    502.940    492.083
 99.070    844.000    825.826     18.174    491.847    813.544    491.847    504.125    491.847
 99.170    781.000    851.764    -70.764    491.610    837.733    491.610    505.628    491.610
 99.270    925.103    892.404     32.699    491.373    876.246    491.373    507.513    491.373
 99.370    958.000    947.533     10.467    491.136    928.801    491.136    509.844    491.136
 99.470   1011.724   1016.608     -4.884    490.899    994.790    490.899    512.690    490.899
 99.570   1070.000   1098.666    -28.666    490.661   1073.184    490.661    516.116    490.661
 99.670   1199.000   1192.227      6.773    490.424   1162.448    490.424    520.180    490.424
 99.770   1229.185   1295.219    -66.033    490.186   1260.461    490.186    524.927    490.186
 99.870   1398.000   1404.915     -6.915    489.948   1364.473    489.948    530.386    489.948
 99.970   1591.010   1517.937     73.073    489.710   1471.098    489.710    536.559    489.710
100.070   1616.000   1630.326    -14.326    489.473   1576.407    489.473    543.420    489.473
100.170   1765.533   1737.742     27.791    489.235   1676.124    489.235    550.904    489.235
100.270   1833.539   1835.788     -2.249    488.997   1765.954    488.997    558.908    488.997
100.370   1873.000   1920.395    -47.395    488.759   1841.979    488.759    567.279    488.759
100.470   2077.000   1988.151     88.849    488.521   1900.987    488.521    575.815    488.521
100.570   1973.309   2036.457    -63.148    488.283   1940.637    488.283    584.258    488.283
100.670   1990.289   2063.517    -73.229    488.045   1959.443    488.045    592.296    488.045
100.770   2148.000   2068.300     79.700    487.808   1956.737    487.808    599.566    487.808
100.870   2046.060   2050.634     -4.575    487.570   1932.740    487.570    605.674    487.570
100.970   1985.119   2011.449    -26.330    487.333   1888.773    487.333    610.226    487.333
101.070   1967.000   1952.999     14.001    487.096   1827.428    487.096    612.887    487.096
101.170   1868.000   1878.860    -10.860    486.859   1752.504    486.859    613.434    486.859
101.270   1848.000   1793.608     54.392    486.622   1668.639    486.622    611.803    486.622
101.370   1752.000   1702.269     49.731    486.385   1580.748    486.385    608.107    486.385
101.470   1568.499   1609.745    -41.246    486.149   1493.473    486.149    602.607    486.149
101.570   1566.000   1520.354     45.646    485.913   1410.776    485.913    595.662    485.913
101.670   1438.287   1437.543      0.744    485.677   1335.705    485.677    587.670    485.677
101.770   1331.966   1363.738    -31.772    485.441   1270.298    485.441    579.020    485.441
101.870   1311.000   1300.308     10.692    485.206   1215.576    485.206    570.061    485.206
101.970   1228.000   1247.604    -19.604    484.972   1171.594    484.972    561.091    484.972
102.070   1147.000   1205.050    -58.050    484.737   1137.535    484.737    552.351    484.737
102.170   1178.000   1171.278      6.722    484.503   1111.843    484.503    544.029    484.503
102.270   1133.000   1144.299    -11.299    484.270   1092.393    484.270    536.262    484.270
102.370   1100.000   1121.723    -21.723    484.037   1076.701    484.037    529.141    484.037
102.470   1053.359   1101.024    -47.665    483.804   1062.190    483.804    522.720    483.804
102.570   1052.000   1079.843    -27.843    483.572   1046.481    483.572    517.017    483.572
102.670   1073.000   1056.291     16.709    483.341   1027.696    483.341    512.019    483.341
102.770   1052.000   1029.172     22.828    483.110   1004.670    483.110    507.695    483.110
102.870    939.000    998.058    -59.058    482.879    977.028    482.879    503.993    482.879
102.970    925.012    963.210    -38.198    482.650    945.089    482.650    500.853    482.650
103.070    901.000    925.387    -24.387    482.421    909.678    482.421    498.209    482.421
103.170    835.495    885.634    -50.140    482.192    871.910    482.192    495.993    482.192
103.270    872.000    845.105     26.895    481.964    833.001    481.964    494.140    481.964
103.370    837.172    804.932     32.240    481.737    794.145    481.737    492.590    481.737
103.470    792.509    766.140     26.369    481.511    756.422    481.511    491.288    481.511
103.570    750.000    729.589     20.411    481.286    720.740    481.286    490.187    481.286
103.670    703.000    695.947      7.053    481.061    687.807    481.061    489.248    481.061
103.770    706.000    665.669     40.331    480.837    658.109    480.837    488.436    480.837
103.870    643.000    638.999      4.001    480.614    631.921    480.614    487.726    480.614
103.970    637.000    615.991     21.009    480.392    609.315    480.392    487.095    480.392
104.070    645.000    596.538     48.462    480.171    590.202    480.171    486.528    480.171
104.170    583.842    580.411      3.431    479.951    574.367    479.951    486.011    479.951
104.270    589.568    567.292     22.276    479.731    561.502    479.731    485.535    479.731
104.370    604.567    556.819     47.748    479.513    551.250    479.513    485.092    479.513
104.470    550.831    548.610      2.221    479.296    543.237    479.296    484.676    479.296
104.570    513.319    542.320    -29.000    479.080    537.120    479.080    484.284    479.080
104.670    565.573    537.617     27.956    478.864    532.573    478.864    483.911    478.864
104.770    590.000    534.220     55.780    478.650    529.315    478.650    483.557    478.650
104.870    563.000    531.903     31.097    478.437    527.123    478.437    483.217    478.437
104.970    494.000    530.492    -36.492    478.226    525.823    478.226    482.892    478.226
105.070    535.000    529.868      5.132    478.015    525.299    478.015    482.580    478.015
105.170    546.000    529.960     16.040    477.806    525.481    477.806    482.280    477.806
105.270    567.833    530.744     37.089    477.598    526.345    477.598    481.990    477.598
105.370    515.242    532.234    -16.992    477.391    527.906    477.391    481.711    477.391
105.470    562.000    534.478     27.522    477.185    530.212    477.185    481.442    477.185
105.570    562.000    537.552     24.448    476.981    533.340    476.981    481.181    476.981
105.670    593.000    541.545     51.455    476.779    537.379    476.779    480.930    476.779
105.770    543.622    546.553     -2.931    476.577    542.426    476.577    480.687    476.577
105.870    553.000    552.660      0.340    476.377    548.567    476.377    480.452    476.377
105.970    560.000    559.929      0.071    476.179    555.861    476.179    480.224    476.179
106.070    583.000    568.382     14.618    475.982    564.334    475.982    480.004    475.982
106.170    565.244    577.991    -12.748    475.787    573.957    475.787    479.792    475.787
106.270    635.236    588.671     46.565    475.593    584.645    475.593    479.586    475.593
106.370    569.124    600.271    -31.147    475.401    596.248    475.401    479.388    475.401
106.470    610.000    612.574     -2.574    475.210    608.550    475.210    479.196    475.210
106.570    632.000    625.299      6.701    475.021    621.268    475.021    479.011    475.021
106.670    660.000    638.107     21.893    474.834    634.065    474.834    478.832    474.834
106.770    662.000    650.614     11.386    474.648    646.557    474.648    478.660    474.648
106.870    619.955    662.408    -42.452    474.464    658.331    474.464    478.495    474.464
106.970    632.404    673.071    -40.667    474.282    668.971    474.282    478.336    474.282
107.070    666.000    682.223    -16.223    474.102    678.096    474.102    478.184    474.102
107.170    679.000    689.563    -10.563    473.924    685.405    473.924    478.039    473.924
107.270    703.000    694.918      8.082    473.748    690.726    473.748    477.900    473.748
107.370    674.000    698.286    -24.286    473.573    694.054    473.573    477.768    473.573
107.470    686.275    699.837    -13.562    473.401    695.562    473.401    477.642    473.401
107.570    691.554    699.890     -8.336    473.230    695.567    473.230    477.524    473.230
107.670    652.000    698.859    -46.859    473.062    694.483    473.062    477.413    473.062
107.770    688.000    697.189     -9.189    472.895    692.755    472.895    477.309    472.895
107.870    652.000    695.303    -43.303    472.731    690.805    472.731    477.213    472.731
107.970    712.000    693.554     18.446    472.569    688.987    472.569    477.124    472.569
108.070    687.000    692.199     -5.199    472.409    687.558    472.409    477.043    472.409
108.170    656.994    691.381    -34.387    472.251    686.659    472.251    476.970    472.251
108.270    667.926    691.119    -23.193    472.095    686.310    472.095    476.905    472.095
108.370    698.000    691.309      6.691    471.942    686.406    471.942    476.849    471.942
108.470    659.000    691.732    -32.732    471.791    686.728    471.791    476.802    471.791
108.570    639.000    692.071    -53.071    471.643    686.960    471.643    476.765    471.643
108.670    669.000    691.946    -22.946    471.496    686.719    471.496    476.737    471.496
108.770    667.563    690.950    -23.387    471.353    685.601    471.353    476.719    471.353
108.870    640.000    688.712    -48.712    471.211    683.231    471.211    476.712    471.211
108.970    685.000    684.946      0.054    471.073    679.324    471.073    476.715    471.073
109.070    685.147    679.501      5.646    470.936    673.729    470.936    476.731    470.936
109.170    646.000    672.377    -26.377    470.803    666.445    470.803    476.758    470.803
109.270    684.000    663.718     20.282    470.671    657.614    470.671    476.799    470.671
109.370    649.000    653.777     -4.777    470.543    647.491    470.543    476.853    470.543
109.470    628.090    642.877    -14.787    470.417    636.396    470.417    476.921    470.417
109.570    703.000    631.368     71.632    470.294    624.679    470.294    477.005    470.294
109.670    578.153    619.600    -41.447    470.174    612.689    470.174    477.105    470.174
109.770    646.891    607.898     38.993    470.057    600.751    470.057    477.223    470.057
109.870    604.000    596.535      7.465    469.942    589.135    469.942    477.359    469.942
109.970    607.000    585.784     21.216    469.830    578.117    469.830    477.512    469.830
110.070    600.000    575.872     24.128    469.722    567.915    469.722    477.691    469.722
110.170    535.597    566.924    -31.327    469.616    558.654    469.616    477.896    469.616
110.270    567.000    559.035      7.965    469.513    550.428    469.513    478.128    469.513
110.370    556.000    552.255      3.745    469.413    543.283    469.413    478.392    469.413
110.470    579.000    546.592     32.408    469.317    537.222    469.317    478.691    469.317
110.570    546.000    542.017      3.983    469.223    532.212    469.223    479.031    469.223
110.670    542.000    538.475      3.525    469.133    528.191    469.133    479.418    469.133
110.770    530.669    535.892     -5.223    469.046    525.076    469.046    479.862    469.046
110.870    554.000    534.184     19.816    468.962    522.773    468.962    480.371    468.962
110.970    522.000    533.261    -11.261    468.881    521.182    468.881    480.958    468.881
111.070    536.000    533.032      2.968    468.804    520.201    468.804    481.632    468.804
111.170    539.641    533.435      6.206    468.730    519.734    468.730    482.426    468.730
111.270    535.000    534.396      0.604    468.659    519.693    468.659    483.358    468.659
111.370    569.434    535.864     33.571    468.592    519.997    468.592    484.453    468.592
111.470    469.000    537.800    -68.800    468.529    520.577    468.529    485.745    468.529
111.570    548.000    540.185      7.815    468.469    521.375    468.469    487.272    468.469
111.670    530.000    543.014    -13.014    468.413    522.341    468.413    489.078    468.413
111.770    539.000    546.302     -7.302    468.360    523.440    468.360    491.214    468.360
111.870    577.310    550.078     27.231    468.311    524.646    468.311    493.735    468.311
111.970    601.301    554.391     46.910    468.266    525.943    468.266    496.705    468.266
112.070    592.717    559.303     33.414    468.224    527.326    468.224    500.192    468.224
112.170    565.019    564.891      0.127    468.186    528.803    468.186    504.265    468.186
112.270    606.052    571.244     34.808    468.152    530.387    468.152    509.000    468.152
112.370    547.490    578.460    -30.970    468.123    532.103    468.123    514.470    468.123
112.470    565.000    586.641    -21.641    468.096    533.982    468.096    520.747    468.096
112.570    602.000    595.895      6.105    468.074    536.064    468.074    527.895    468.074
112.670    618.516    606.330     12.186    468.056    538.403    468.056    535.973    468.056
112.770    599.000    618.056    -19.056    468.043    541.064    468.043    545.024    468.043
112.870    573.000    631.184    -58.184    468.033    544.132    468.033    555.075    468.033
112.970    668.000    645.831     22.169    468.027    547.717    468.027    566.130    468.027
113.070    653.648    662.120     -8.472    468.026    551.963    468.026    578.171    468.026
113.170    720.000    680.192     39.808    468.029    557.060    468.029    591.149    468.029
113.270    696.000    700.216     -4.216    468.036    563.256    468.036    604.982    468.036
113.370    686.000    722.398    -36.398    468.048    570.878    468.048    619.553    468.048
113.470    740.000    747.005     -7.005    468.063    580.346    468.063    634.704    468.063
113.570    808.000    774.378     33.622    468.084    592.203    468.084    650.238    468.084
113.670    785.671    804.962    -19.291    468.109    607.135    468.109    665.910    468.109
113.770    893.098    839.326     53.772    468.138    626.001    468.138    681.434    468.138
113.870    845.000    878.195    -33.195    468.172    649.856    468.172    696.473    468.172
113.970    952.000    922.469     29.531    468.211    679.982    468.211    710.651    468.211
114.070    952.120    973.263    -21.143    468.255    717.901    468.255    723.558    468.255
114.170   1031.000   1031.922     -0.922    468.303    765.386    468.303    734.766    468.303
114.270   1055.000   1100.053    -45.053    468.356    824.463    468.356    743.855    468.356
114.370   1163.032   1179.536    -16.504    468.414    897.390    468.414    750.448    468.414
114.470   1376.000   1272.526    103.474    468.477    986.616    468.477    754.249    468.477
114.570   1361.835   1381.424    -19.589    468.544   1094.721    468.544    755.079    468.544
114.670   1458.622   1508.810    -50.188    468.617   1224.322    468.617    752.902    468.617
114.770   1648.000   1657.329     -9.329    468.695   1377.956    468.695    747.825    468.695
114.870   1882.870   1829.533     53.336    468.778   1557.934    468.778    740.089    468.778
114.970   2079.000   2027.683     51.317    468.866   1766.176    468.866    730.036    468.866
115.070   2400.000   2253.521    146.479    468.959   2004.025    468.959    718.067    468.959
115.170   2571.000   2508.052     62.948    469.057   2272.056    469.057    704.612    469.057
115.270   2896.000   2791.321    104.679    469.161   2569.894    469.161    690.091    469.161
115.370   3127.000   3102.228     24.772    469.270   2896.045    469.270    674.902    469.270
115.470   3387.000   3438.383    -51.383    469.385   3247.765    469.385    659.400    469.385
115.570   3748.834   3796.007    -47.174    469.505   3620.964    469.505    643.899    469.505
115.670   4050.000   4169.896   -119.896    469.630   4010.174    469.630    628.664    469.630
115.770   4474.000   4553.442    -79.442    469.761   4408.570    469.761    613.916    469.761
115.870   5043.357   4938.728    104.629    469.898   4808.060    469.898    599.833    469.898
115.970   5298.000   5316.688    -18.688    470.040   5199.440    470.040    586.551    470.040
116.070   5538.000   5677.337   -139.337    470.188   5572.629    470.188    574.171    470.188
116.170   5834.000   6010.088   -176.088    470.342   5916.977    470.342    562.758    470.342
116.270   6204.875   6304.173    -99.298    470.502   6221.681    470.502    552.344    470.502
116.370   6597.000   6549.172     47.828    470.667   6476.315    470.667    542.938    470.667
116.470   6820.000   6735.674     84.326    470.839   6671.484    470.839    534.523    470.839
116.570   6781.000   6856.013    -75.013    471.016   6799.553    471.016    527.062    471.016
116.670   7046.553   6904.980    141.573    471.200   6855.363    471.200    520.507    471.200
116.770   6721.362   6880.382   -159.020    471.390   6836.774    471.390    514.794    471.390
116.870   6845.000   6783.271     61.729    471.586   6744.907    471.586    509.855    471.586
116.970   6843.000   6617.810    225.190    471.788   6583.989    471.788    505.617    471.788
117.070   6289.000   6390.805   -101.805    471.996   6360.899    471.996    502.007    471.996
117.170   6162.000   6111.058     50.942    472.211   6084.506    472.211    498.950    472.211
117.270   5888.899   5788.536    100.362    472.432   5764.847    472.432    496.378    472.432
117.370   5275.000   5433.767   -158.767    472.659   5412.512    472.659    494.226    472.659
117.470   5017.299   5057.259    -39.960    472.893   5038.070    472.893    492.434    472.893
117.570   4693.000   4669.058     23.942    473.134   4651.619    473.134    490.949    473.134
117.670   4327.000   4278.411     48.589    473.381   4262.456    473.381    489.723    473.381
117.770   3965.000   3893.521     71.479    473.635   3878.827    473.635    488.716    473.635
117.870   3443.795   3521.378    -77.583    473.895   3507.758    473.895    487.891    473.895
117.970   3256.000   3167.662     88.338    474.163   3154.961    474.163    487.220    474.163
118.070   2942.000   2836.718    105.282    474.437   2824.808    474.437    486.676    474.437
118.170   2490.000   2531.590    -41.590    474.718   2520.366    474.718    486.240    474.718
118.270   2308.000   2254.108     53.892    475.006   2243.486    475.006    485.893    475.006
118.370   2027.930   2005.018     22.912    475.302   1994.928    475.302    485.622    475.302
118.470   1741.241   1784.132    -42.891    475.604   1774.517    475.604    485.416    475.604
118.570   1607.000   1590.498     16.502    475.913   1581.310    475.913    485.265    475.913
118.670   1349.419   1422.572    -73.153    476.230   1413.773    476.230    485.163    476.230
118.770   1201.000   1278.386    -77.386    476.554   1269.943    476.554    485.104    476.554
118.870   1205.506   1155.709     49.797    476.885   1147.596    476.885    485.082    476.885
118.970    992.000   1052.183    -60.183    477.223   1044.375    477.223    485.095    477.223
119.070    990.063    965.443     24.620    477.569    957.921    477.569    485.139    477.569
119.170    922.442    893.210     29.231    477.923    885.955    477.923    485.213    477.923
119.270    839.103    833.357      5.746    478.284    826.352    478.284    485.314    478.284
119.370    757.000    783.953    -26.953    478.653    777.182    478.653    485.440    478.653
119.470    765.837    743.287     22.550    479.029    736.734    479.029    485.592    479.029
119.570    681.000    709.872    -28.872    479.414    703.524    479.414    485.768    479.414
119.670    648.000    682.442    -34.442    479.806    676.284    479.806    485.967    479.806
119.770    630.000    659.934    -29.934    480.206    653.952    480.206    486.189    480.206
119.870    633.853    641.470     -7.617    480.613    635.651    480.613    486.434    480.613
119.970    614.000    626.333    -12.333    481.029    620.662    481.029    486.701    481.029
120.070    624.148    613.942     10.205    481.453    608.405    481.453    486.991    481.453
120.170    639.211    603.836     35.376    481.885    598.418    481.885    487.304    481.885
120.270    607.896    595.644     12.252    482.326    590.331    482.326    487.640    482.326
120.370    565.000    589.076    -24.076    482.774    583.853    482.774    488.000    482.774
120.470    571.000    583.905    -12.905    483.231    578.755    483.231    488.383    483.231
120.570    587.000    579.952      7.048    483.697    574.860    483.697    488.791    483.697
120.670    618.000    577.077     40.923    484.170    572.026    484.170    489.224    484.170
120.770    597.000    575.171     21.829    484.653    570.145    484.653    489.683    484.653
120.870    566.096    574.147     -8.051    485.143    569.129    485.143    490.167    485.143
120.970    585.000    573.936     11.064    485.643    568.908    485.643    490.677    485.643
121.070    562.000    574.479    -12.479    486.151    569.423    486.151    491.215    486.151
121.170    587.000    575.725     11.275    486.668    570.624    486.668    491.779    486.668
121.270    604.817    577.626     27.191    487.194    572.460    487.194    492.370    487.194
121.370    582.000    580.132      1.868    487.729    574.885    487.729    492.988    487.729
121.470    595.000    583.193     11.807    488.273    577.847    488.273    493.633    488.273
121.570    608.000    586.753     21.247    488.826    581.291    488.826    494.303    488.826
121.670    614.110    590.749     23.361    489.388    585.156    489.388    494.999    489.388
121.770    610.000    595.110     14.890    489.960    589.372    489.960    495.718    489.960
121.870    607.000    599.758      7.242    490.540    593.862    490.540    496.459    490.540
121.970    589.609    604.607    -14.997    491.130    598.540    491.130    497.221    491.130
122.070    636.390    609.559     26.831    491.729    603.316    491.729    498.001    491.729
122.170    630.000    614.514     15.486    492.338    608.087    492.338    498.796    492.338
122.270    664.000    619.364     44.636    492.956    612.751    492.956    499.602    492.956
122.370    591.170    623.997    -32.827    493.584    617.199    493.584    500.418    493.584
122.470    625.000    628.303     -3.303    494.222    621.325    494.222    501.238    494.222
122.570    609.598    632.172    -22.575    494.869    625.024    494.869    502.058    494.869
122.670    625.000    635.508    -10.508    495.527    628.204    495.527    502.873    495.527
122.770    627.000    638.226    -11.226    496.194    630.784    496.194    503.679    496.194
122.870    664.000    640.261     23.739    496.871    632.707    496.871    504.470    496.871
122.970    611.316    641.573    -30.257    497.558    633.934    497.558    505.243    497.558
123.070    653.693    642.148     11.545    498.255    634.457    498.255    505.992    498.255
123.170    605.000    641.996    -36.996    498.963    634.290    498.963    506.715    498.963
123.270    660.000    641.153     18.847    499.680    633.470    499.680    507.408    499.680
123.370    670.000    639.671     30.329    500.408    632.050    500.408    508.073    500.408
123.470    615.000    637.619    -22.619    501.147    630.099    501.147    508.709    501.147
123.570    605.078    635.074    -29.996    501.896    627.692    501.896    509.317    501.896
123.670    604.000    632.119    -28.119    502.655    624.910    502.655    509.902    502.655
123.770    655.000    628.839     26.161    503.425    621.832    503.425    510.468    503.425
123.870    596.359    625.316    -28.957    504.206    618.537    504.206    511.018    504.206
123.970    671.182    621.628     49.554    504.998    615.097    504.998    511.558    504.998
124.070    663.000    617.847     45.153    505.800    611.581    505.800    512.093    505.800
124.170    614.000    614.036     -0.036    506.613    608.045    506.613    512.627    506.613
124.270    568.000    610.246    -42.246    507.438    604.539    507.438    513.166    507.438
124.370    591.000    606.521    -15.521    508.273    601.101    508.273    513.712    508.273
124.470    618.000    602.893     15.107    509.120    597.759    509.120    514.270    509.120
124.570    583.549    599.384    -15.835    509.977    594.532    509.977    514.842    509.977
124.670    602.000    596.007      5.993    510.846    591.432    510.846    515.433    510.846
124.770    559.000    592.768    -33.768    511.727    588.461    511.727    516.043    511.727
124.870    579.000    589.668    -10.668    512.619    585.620    512.619    516.674    512.619
124.970    595.000    586.705      8.295    513.522    582.904    513.522    517.330    513.522
