neutron_powder_diffraction_0063
R_wp: 4.166
Temperature (K): 712.756
Counts: 83727.00
Wavelength (Ã…): 2.52098
COMMENTS
Test file for demonstrating the .xyy file format in Reel1.0
END OF HEADER
   tth       Y_obs     Y_calc      Y_res    Background    Phase_1_Nuc    Phase_1_Mag    Phase_2_Nuc    Phase_2_Mag
  9.970    593.604    639.495    -45.891    638.368    639.271    638.591    638.368    638.368
 10.070    622.000    639.632    -17.632    638.431    639.405    638.657    638.431    638.431
 10.170    710.000    639.771     70.229    638.487    639.542    638.716    638.487    638.487
 10.270    675.247    639.916     35.332    638.536    639.684    638.767    638.536    638.536
 10.370    640.376    640.067      0.309    638.577    639.833    638.810    638.577    638.577
 10.470    671.809    640.229     31.581    638.611    639.992    638.847    638.611    638.611
 10.570    677.000    640.405     36.595    638.638    640.165    638.876    638.638    638.638
 10.670    672.000    640.601     31.399    638.657    640.359    638.899    638.657    638.657
 10.770    613.956    640.824    -26.869    638.670    640.579    638.914    638.670    638.670
 10.870    664.746    641.084     23.662    638.676    640.836    638.923    638.676    638.676
 10.970    651.000    641.393      9.607    638.675    641.142    638.924    638.675    638.675
 11.070    694.000    641.773     52.227    638.666    641.519    638.919    638.666    638.666
 11.170    666.000    642.282     23.718    638.652    642.025    638.907    638.652    638.652
 11.270    676.000    643.010     32.990    638.630    642.750    638.888    638.630    638.630
 11.370    646.000    643.820      2.180    638.602    643.556    638.863    638.602    638.602
 11.470    736.000    644.926     91.074    638.567    644.658    638.831    638.567    638.567
 11.570    672.512    646.612     25.900    638.526    646.340    638.793    638.526    638.526
 11.670    621.133    649.584    -28.451    638.478    649.308    638.749    638.478    638.478
 11.770    707.042    655.526     51.516    638.424    655.243    638.698    638.424    638.424
 11.870    698.117    667.556     30.561    638.364    667.263    638.641    638.364    638.364
 11.970    726.000    689.461     36.539    638.297    689.152    638.577    638.297    638.297
 12.070    770.000    722.442     47.558    638.224    722.111    638.508    638.224    638.224
 12.170    788.243    759.639     28.604    638.145    759.283    638.432    638.145    638.145
 12.270    793.000    782.616     10.384    638.060    782.243    638.351    638.060    638.060
 12.370    729.629    774.474    -44.846    637.969    774.103    638.264    637.969    637.969
 12.470    745.000    742.120      2.880    637.873    741.763    638.170    637.873    637.873
 12.570    750.720    705.509     45.210    637.770    705.170    638.071    637.770    637.770
 12.670    678.442    677.457      0.984    637.661    677.130    637.966    637.661    637.661
 12.770    660.016    660.388     -0.372    637.547    660.066    637.856    637.547    637.547
 12.870    698.893    651.417     47.476    637.427    651.097    637.740    637.427    637.427
 12.970    651.000    646.916      4.084    637.301    646.595    637.618    637.301    637.301
 13.070    650.000    644.474      5.526    637.170    644.149    637.491    637.170    637.170
 13.170    677.499    642.930     34.569    637.034    642.602    637.359    637.034    637.034
 13.270    648.000    641.819      6.181    636.892    641.488    637.221    636.892    636.892
 13.370    672.737    640.958     31.779    636.744    640.623    637.078    636.744    636.744
 13.470    597.000    640.261    -43.261    636.591    639.922    636.929    636.591    636.591
 13.570    597.817    639.679    -41.861    636.433    639.335    636.776    636.433    636.433
 13.670    612.000    639.178    -27.178    636.270    638.830    636.617    636.270    636.270
 13.770    628.000    638.738    -10.738    636.102    638.386    636.453    636.102    636.102
 13.870    622.000    638.344    -16.344    635.928    637.987    636.285    635.928    635.928
 13.970    607.000    637.983    -30.983    635.750    637.621    636.111    635.750    635.750
 14.070    617.000    637.648    -20.648    635.567    637.281    635.933    635.567    635.567
 14.170    679.129    637.333     41.796    635.378    636.961    635.749    635.378    635.378
 14.270    660.372    637.032     23.340    635.185    636.656    635.561    635.185    635.185
 14.370    680.573    636.747     43.826    634.987    636.365    635.369    634.987    634.987
 14.470    621.000    636.468    -15.468    634.785    636.081    635.171    634.785    634.785
 14.570    579.000    636.195    -57.195    634.578    635.802    634.970    634.578    634.578
 14.670    634.000    635.927     -1.927    634.366    635.529    634.763    634.366    634.366
 14.770    627.000    635.674     -8.674    634.149    635.271    634.553    634.149    634.149
 14.870    633.363    635.427     -2.064    633.928    635.017    634.338    633.928    633.928
 14.970    619.000    635.167    -16.167    633.703    634.751    634.118    633.703    633.703
 15.070    617.131    634.905    -17.774    633.473    634.484    633.895    633.473    633.473
 15.170    635.000    634.644      0.356    633.239    634.216    633.667    633.239    633.239
 15.270    585.214    634.383    -49.169    633.001    633.948    633.435    633.001    633.001
 15.370    595.000    634.121    -39.121    632.758    633.680    633.199    632.758    632.758
 15.470    608.000    633.862    -25.862    632.511    633.414    632.959    632.511    632.511
 15.570    629.000    633.598     -4.598    632.260    633.143    632.715    632.260    632.260
 15.670    605.000    633.331    -28.331    632.006    632.869    632.467    632.006    632.006
 15.770    633.000    633.062     -0.062    631.747    632.594    632.215    631.747    631.747
 15.870    655.000    632.792     22.208    631.484    632.316    631.959    631.484    631.484
 15.970    608.000    632.519    -24.519    631.217    632.036    631.700    631.217    631.217
 16.070    599.765    632.244    -32.479    630.946    631.753    631.437    630.946    630.946
 16.170    587.000    631.974    -44.974    630.672    631.476    631.170    630.672    630.672
 16.270    603.493    631.765    -28.272    630.394    631.259    630.900    630.394    630.394
 16.370    622.000    631.494     -9.494    630.112    630.979    630.627    630.112    630.112
 16.470    622.414    631.211     -8.797    629.826    630.688    630.350    629.826    629.826
 16.570    656.857    630.944     25.913    629.537    630.410    630.071    629.537    629.537
 16.670    642.000    630.710     11.290    629.245    630.161    629.793    629.245    629.245
 16.770    618.000    630.426    -12.426    628.948    629.868    629.507    628.948    628.948
 16.870    632.000    630.133      1.867    628.649    629.566    629.216    628.649    628.649
 16.970    602.000    629.837    -27.837    628.346    629.260    628.923    628.346    628.346
 17.070    581.638    629.539    -47.901    628.040    628.953    628.626    628.040    628.040
 17.170    604.027    629.239    -25.212    627.730    628.642    628.327    627.730    627.730
 17.270    609.000    628.937    -19.937    627.417    628.329    628.025    627.417    627.417
 17.370    585.000    628.636    -43.636    627.101    628.018    627.719    627.101    627.101
 17.470    602.573    628.332    -25.759    626.782    627.703    627.411    626.782    626.782
 17.570    605.000    628.023    -23.023    626.460    627.383    627.100    626.460    626.460
 17.670    611.000    627.719    -16.719    626.135    627.067    626.786    626.135    626.135
 17.770    658.599    627.411     31.187    625.807    626.748    626.470    625.807    625.807
 17.870    593.000    627.096    -34.096    625.475    626.420    626.151    625.475    625.475
 17.970    626.000    626.777     -0.777    625.141    626.089    625.829    625.141    625.141
 18.070    645.000    626.457     18.543    624.805    625.756    625.505    624.805    624.805
 18.170    574.000    626.135    -52.135    624.465    625.421    625.179    624.465    624.465
 18.270    583.000    625.810    -42.810    624.122    625.083    624.850    624.122    624.122
 18.370    581.619    625.484    -43.865    623.777    624.743    624.519    623.777    623.777
 18.470    587.000    625.156    -38.156    623.429    624.401    624.185    623.429    623.429
 18.570    674.235    624.832     49.403    623.079    624.061    623.849    623.079    623.079
 18.670    609.000    624.514    -15.514    622.726    623.728    623.512    622.726    622.726
 18.770    619.625    624.236     -4.610    622.370    623.433    623.173    622.370    622.370
 18.870    597.089    623.941    -26.851    622.012    623.122    622.831    622.012    622.012
 18.970    623.365    623.609     -0.244    621.652    622.774    622.488    621.652    621.652
 19.070    608.000    623.275    -15.275    621.289    622.421    622.143    621.289    621.289
 19.170    635.000    622.943     12.057    620.924    622.070    621.797    620.924    620.924
 19.270    636.000    622.615     13.385    620.556    621.722    621.448    620.556    620.556
 19.370    620.672    622.278     -1.606    620.186    621.367    621.098    620.186    620.186
 19.470    602.359    621.936    -19.577    619.814    621.005    620.745    619.814    619.814
 19.570    601.000    621.593    -20.593    619.440    620.642    620.391    619.440    619.440
 19.670    618.000    621.257     -3.257    619.064    620.284    620.036    619.064    619.064
 19.770    537.000    620.976    -83.976    618.685    619.982    619.679    618.685    618.685
 19.870    610.000    620.660    -10.660    618.305    619.643    619.321    618.305    618.305
 19.970    627.000    620.338      6.662    617.923    619.298    618.962    617.923    617.923
 20.070    585.000    619.995    -34.995    617.538    618.931    618.602    617.538    617.538
 20.170    652.287    619.654     32.633    617.152    618.564    618.242    617.152    617.152
 20.270    634.000    619.310     14.690    616.764    618.194    617.880    616.764    616.764
 20.370    619.950    618.965      0.985    616.374    617.822    617.516    616.374    616.374
 20.470    595.000    618.638    -23.638    615.982    617.467    617.152    615.982    615.982
 20.570    632.934    618.320     14.614    615.588    617.121    616.787    615.588    615.588
 20.670    587.000    617.976    -30.976    615.193    616.747    616.422    615.193    615.193
 20.770    608.212    617.630     -9.418    614.796    616.370    616.056    614.796    614.796
 20.870    583.000    617.285    -34.285    614.397    615.993    615.689    614.397    614.397
 20.970    592.542    616.941    -24.399    613.997    615.616    615.322    613.997    613.997
 21.070    612.000    616.603     -4.603    613.595    615.243    614.955    613.595    613.595
 21.170    554.000    616.269    -62.269    613.192    614.872    614.589    613.192    613.192
 21.270    556.000    615.933    -59.933    612.787    614.498    614.222    612.787    612.787
 21.370    624.000    615.594      8.406    612.381    614.120    613.855    612.381    612.381
 21.470    600.454    615.256    -14.803    611.974    613.742    613.488    611.974    611.974
 21.570    634.206    614.921     19.285    611.565    613.364    613.121    611.565    611.565
 21.670    644.842    614.588     30.254    611.154    612.987    612.755    611.154    611.154
 21.770    642.164    614.263     27.902    610.743    612.616    612.390    610.743    610.743
 21.870    594.313    613.937    -19.624    610.330    612.242    612.025    610.330    610.330
 21.970    603.000    613.615    -10.615    609.916    611.869    611.662    609.916    609.916
 22.070    606.000    613.297     -7.297    609.501    611.498    611.299    609.501    609.501
 22.170    657.455    612.982     44.473    609.085    611.128    610.938    609.085    609.085
 22.270    593.000    612.672    -19.672    608.667    610.761    610.579    608.667    608.667
 22.370    650.850    612.370     38.481    608.249    610.398    610.221    608.249    608.249
 22.470    575.000    612.073    -37.073    607.829    610.038    609.865    607.829    607.829
 22.570    655.796    611.785     44.012    607.409    609.682    609.511    607.409    607.409
 22.670    635.737    611.504     24.233    606.987    609.332    609.160    606.987    606.987
 22.770    631.349    611.234     20.116    606.565    608.988    608.811    606.565    606.565
 22.870    595.000    610.975    -15.975    606.142    608.652    608.466    606.142    606.142
 22.970    658.018    610.730     47.287    605.717    608.325    608.123    605.717    605.717
 23.070    641.000    610.503     30.497    605.293    608.011    607.784    605.293    605.293
 23.170    621.933    610.293     11.640    604.867    607.711    607.450    604.867    604.867
 23.270    654.000    610.105     43.895    604.440    607.427    607.119    604.440    604.440
 23.370    579.000    609.945    -30.945    604.013    607.165    606.794    604.013    604.013
 23.470    562.745    609.818    -47.073    603.585    606.931    606.473    603.585    603.585
 23.570    594.000    609.733    -15.733    603.157    606.732    606.159    603.157    603.157
 23.670    620.000    609.701     10.299    602.728    606.579    605.851    602.728    602.728
 23.770    627.208    609.738     17.470    602.298    606.488    605.550    602.298    602.298
 23.870    590.812    609.865    -19.053    601.868    606.478    605.256    601.868    601.868
 23.970    628.000    610.117     17.883    601.437    606.584    604.971    601.437    601.437
 24.070    651.000    610.551     40.449    601.006    606.864    604.695    601.006    601.006
 24.170    598.094    611.291    -13.197    600.574    607.438    604.430    600.574    600.574
 24.270    647.000    612.641     34.359    600.142    608.611    604.175    600.142    600.142
 24.370    691.000    615.339     75.661    599.709    611.121    603.934    599.709    599.709
 24.470    608.000    620.894    -12.894    599.276    616.474    603.707    599.276    599.276
 24.570    641.000    631.553      9.447    598.843    626.920    603.494    598.843    598.843
 24.670    713.000    649.192     63.808    598.410    644.335    603.297    598.410    598.410
 24.770    654.000    672.705    -18.705    597.976    667.608    603.119    597.976    597.976
 24.870    740.593    694.839     45.754    597.542    689.481    602.962    597.542    597.542
 24.970    682.000    702.758    -20.758    597.108    697.107    602.828    597.108    597.108
 25.070    682.000    689.918     -7.918    596.673    683.931    602.719    596.673    596.673
 25.170    620.373    665.989    -45.616    596.239    659.631    602.640    596.239    596.239
 25.270    702.000    643.430     58.570    595.804    636.666    602.594    595.804    595.804
 25.370    635.000    627.673      7.327    595.369    620.472    602.585    595.369    595.369
 25.470    656.000    618.661     37.339    594.934    610.987    602.617    594.934    594.934
 25.570    624.000    614.174      9.826    594.500    605.983    602.695    594.500    594.500
 25.670    654.778    612.084     42.695    594.065    603.324    602.828    594.065    594.065
 25.770    657.000    611.123     45.877    593.630    601.732    603.023    593.630    593.630
 25.870    650.000    610.724     39.276    593.195    600.632    603.289    593.195    593.195
 25.970    661.000    610.672     50.328    592.760    599.796    603.638    592.760    592.760
 26.070    642.000    610.890     31.110    592.326    599.133    604.084    592.326    592.326
 26.170    664.000    611.351     52.649    591.891    598.600    604.642    591.891    591.891
 26.270    578.264    612.050    -33.786    591.457    598.173    605.335    591.457    591.457
 26.370    686.000    613.000     73.000    591.023    597.837    606.186    591.023    591.023
 26.470    693.000    614.227     78.773    590.589    597.588    607.228    590.589    590.589
 26.570    660.000    615.770     44.230    590.156    597.425    608.500    590.156    590.156
 26.670    665.146    617.684     47.462    589.722    597.352    610.053    589.722    589.722
 26.770    718.000    620.045     97.955    589.289    597.380    611.953    589.289    589.289
 26.870    684.000    622.955     61.045    588.857    597.523    614.287    588.857    588.857
 26.970    576.823    626.553    -49.730    588.424    597.805    617.171    588.424    588.424
 27.070    626.070    631.028     -4.958    587.992    598.259    620.759    587.992    587.992
 27.170    653.000    636.643     16.357    587.561    598.930    625.270    587.561    587.561
 27.270    598.704    643.772    -45.069    587.129    599.887    631.012    587.129    587.129
 27.370    664.087    652.978     11.108    586.699    601.229    638.444    586.699    586.699
 27.470    728.000    665.198     62.802    586.268    603.124    648.336    586.268    586.268
 27.570    693.940    682.343     11.597    585.839    605.914    662.259    585.839    585.839
 27.670    731.000    709.116     21.884    585.409    610.435    684.079    585.409    585.409
 27.770    764.270    757.298      6.972    584.981    618.773    723.485    584.981    584.981
 27.870    860.000    852.305      7.695    584.553    635.431    801.389    584.553    584.553
 27.970   1011.499   1035.611    -24.112    584.125    667.747    951.918    584.125    584.125
 28.070   1347.900   1349.168     -1.268    583.698    723.159   1209.586    583.698    583.698
 28.170   1669.000   1792.708   -123.708    583.272    801.660   1574.142    583.272    583.272
 28.270   2189.000   2265.143    -76.143    582.846    885.477   1962.305    582.846    582.846
 28.370   2488.000   2543.298    -55.298    582.421    935.382   2190.169    582.421    582.421
 28.470   2351.600   2451.401    -99.801    581.997    920.761   2112.570    581.997    581.997
 28.570   2183.000   2099.013     83.987    581.574    861.806   1818.792    581.574    581.574
 28.670   1687.000   1739.724    -52.724    581.151    804.532   1516.379    581.151    581.151
 28.770   1420.000   1542.644   -122.644    580.729    779.868   1343.529    580.729    580.729
 28.870   1588.880   1538.719     50.161    580.308    792.993   1326.041    580.308    580.308
 28.970   1609.772   1646.996    -37.223    579.888    826.397   1400.494    579.888    579.888
 29.070   1709.990   1716.552     -6.562    579.468    846.684   1449.370    579.468    579.468
 29.170   1668.000   1629.083     38.917    579.049    827.509   1380.697    579.049    579.049
 29.270   1458.460   1409.443     49.017    578.632    775.854   1212.310    578.632    578.632
 29.370   1181.557   1160.838     20.719    578.215    716.881   1022.251    578.215    578.215
 29.470    932.493    956.804    -24.312    577.799    668.382    866.277    577.799    577.799
 29.570    813.693    818.903     -5.210    577.384    635.606    760.716    577.384    577.384
 29.670    789.000    737.076     51.924    576.970    616.189    697.877    576.970    576.970
 29.770    780.000    691.553     88.447    576.557    605.426    662.693    576.557    576.557
 29.870    733.000    665.741     67.259    576.145    599.369    642.522    576.145    576.145
 29.970    633.242    649.740    -16.498    575.734    595.669    629.807    575.734    575.734
 30.070    657.067    638.772     18.295    575.324    593.209    620.889    575.324    575.324
 30.170    719.000    630.787     88.213    574.915    591.535    614.167    574.915    574.915
 30.270    653.889    624.953     28.936    574.507    590.520    608.938    574.507    574.507
 30.370    585.033    621.055    -36.022    574.100    590.266    604.887    574.100    574.100
 30.470    691.000    619.406     71.594    573.695    591.158    601.937    573.695    573.695
 30.570    666.000    620.896     45.104    573.290    593.952    600.224    573.290    573.290
 30.670    587.774    626.867    -39.093    572.887    599.699    600.040    572.887    572.887
 30.770    601.179    638.453    -37.275    572.485    609.277    601.637    572.485    572.485
 30.870    646.622    655.256     -8.634    572.084    622.443    604.861    572.084    572.084
 30.970    698.000    673.513     24.487    571.684    636.514    608.637    571.684    571.684
 31.070    766.000    685.152     80.848    571.285    645.681    610.705    571.285    571.285
 31.170    741.000    682.358     58.642    570.888    644.317    608.883    570.888    570.888
 31.270    644.444    665.904    -21.461    570.492    632.993    603.366    570.492    570.492
 31.370    653.000    644.037      8.963    570.097    617.687    596.422    570.097    570.097
 31.470    675.000    624.184     50.816    569.704    603.778    590.093    569.704    569.704
 31.570    664.000    609.466     54.534    569.311    593.534    585.232    569.311    569.311
 31.670    568.765    599.886    -31.121    568.920    586.966    581.834    568.920    568.920
 31.770    635.000    594.099     40.901    568.531    583.107    579.518    568.531    568.531
 31.870    601.000    590.632     10.368    568.143    580.900    577.870    568.143    568.143
 31.970    624.000    588.437     35.563    567.756    579.593    576.596    567.756    567.756
 32.070    563.531    586.932    -23.401    567.370    578.771    575.529    567.370    567.370
 32.170    539.020    585.844    -46.823    566.986    578.241    574.587    566.986    566.986
 32.270    566.787    585.055    -18.267    566.604    577.925    573.732    566.604    566.604
 32.370    630.000    584.515     45.485    566.223    577.791    572.945    566.223    566.223
 32.470    624.605    584.206     40.399    565.843    577.834    572.214    565.843    565.843
 32.570    572.000    584.130    -12.130    565.464    578.062    571.532    565.464    565.464
 32.670    626.000    584.303     41.697    565.088    578.496    570.893    565.088    565.088
 32.770    614.000    584.754     29.246    564.712    579.170    570.295    564.712    564.712
 32.870    628.000    585.536     42.464    564.339    580.137    569.736    564.339    564.339
 32.970    575.683    586.725    -11.042    563.966    581.472    569.217    563.966    563.966
 33.070    647.000    588.436     58.564    563.595    583.288    568.741    563.595    563.595
 33.170    587.000    590.859     -3.859    563.226    585.768    568.315    563.226    563.226
 33.270    558.765    594.344    -35.578    562.858    589.247    567.951    562.858    562.858
 33.370    636.000    599.616     36.384    562.492    594.421    567.683    562.492    562.492
 33.470    619.000    608.226     10.774    562.128    602.768    567.579    562.128    562.128
 33.570    633.000    623.249      9.751    561.765    617.228    567.776    561.765    561.765
 33.670    614.000    649.907    -35.907    561.404    642.785    568.511    561.404    561.404
 33.770    694.000    695.186     -1.186    561.044    686.109    570.097    561.044    561.044
 33.870    783.000    765.255     17.745    560.686    753.093    572.814    560.686    560.686
 33.970    904.000    860.143     43.857    560.329    843.765    576.661    560.329    560.329
 34.070   1018.000    966.200     51.800    559.974    945.099    581.023    559.974    559.974
 34.170   1159.000   1050.129    108.871    559.621   1025.309    584.392    559.621    559.621
 34.270   1060.000   1069.785     -9.785    559.270   1044.158    584.863    559.270    559.270
 34.370   1050.027   1011.912     38.115    558.920    988.978    581.837    558.920    558.920
 34.470    942.000    909.534     32.466    558.572    891.294    576.805    558.572    558.572
 34.570    802.870    804.890     -2.020    558.226    791.437    571.677    558.226    558.226
 34.670    712.088    721.075     -8.987    557.881    711.459    567.497    557.881    557.881
 34.770    653.000    663.484    -10.484    557.538    656.513    564.509    557.538    557.538
 34.870    562.000    627.962    -65.962    557.197    622.633    562.525    557.197    557.197
 34.970    597.000    607.325    -10.325    556.858    602.961    561.220    556.858    556.858
 35.070    599.000    595.285      3.715    556.520    591.494    560.309    556.520    556.520
 35.170    636.000    587.764     48.236    556.184    584.338    559.609    556.184    556.184
 35.270    621.000    582.585     38.415    555.850    579.413    559.021    555.850    555.850
 35.370    540.009    578.712    -38.703    555.518    575.731    558.498    555.518    555.518
 35.470    537.697    575.660    -37.962    555.187    572.828    558.018    555.187    555.187
 35.570    615.315    573.177     42.137    554.859    570.464    557.571    554.859    554.859
 35.670    503.000    571.117    -68.117    554.532    568.499    557.149    554.532    554.532
 35.770    537.843    569.380    -31.537    554.207    566.837    556.749    554.207    554.207
 35.870    527.399    567.897    -40.497    553.883    565.411    556.369    553.883    553.883
 35.970    590.000    566.616     23.384    553.562    564.173    556.005    553.562    553.562
 36.070    587.422    565.500     21.922    553.243    563.085    555.658    553.243    553.243
 36.170    539.000    564.522    -25.522    552.925    562.120    555.327    552.925    552.925
 36.270    530.000    563.659    -33.659    552.609    561.256    555.012    552.609    552.609
 36.370    568.611    562.894      5.717    552.295    560.475    554.714    552.295    552.295
 36.470    587.858    562.223     25.635    551.983    559.771    554.436    551.983    551.983
 36.570    568.729    561.639      7.091    551.673    559.134    554.178    551.673    551.673
 36.670    562.080    561.136      0.944    551.365    558.556    553.945    551.365    551.365
 36.770    549.099    560.717    -11.618    551.059    558.035    553.741    551.059    551.059
 36.870    598.619    560.387     38.232    550.754    557.569    553.572    550.754    550.754
 36.970    537.000    560.162    -23.162    550.452    557.166    553.448    550.452    550.452
 37.070    580.000    560.076     19.924    550.151    556.846    553.382    550.151    550.151
 37.170    537.000    560.203    -23.203    549.853    556.658    553.399    549.853    549.853
 37.270    545.078    560.699    -15.621    549.556    556.713    553.542    549.556    549.556
 37.370    559.000    561.856     -2.856    549.262    557.212    553.906    549.262    549.262
 37.470    569.000    564.142      4.858    548.969    558.430    554.680    548.969    548.969
 37.570    545.000    568.151    -23.151    548.678    560.618    556.212    548.678    548.678
 37.670    593.000    574.422     18.578    548.389    563.774    559.038    548.389    548.389
 37.770    572.000    583.074    -11.074    548.103    567.366    563.812    548.103    548.103
 37.870    571.000    593.372    -22.372    547.818    570.169    571.023    547.818    547.818
 37.970    611.000    603.731      7.269    547.535    570.746    580.523    547.535    547.535
 38.070    585.874    612.354    -26.480    547.254    568.707    590.905    547.254    547.254
 38.170    608.135    617.180     -9.044    546.975    565.113    599.048    546.975    546.975
 38.270    593.000    615.609    -22.609    546.698    561.251    601.065    546.698    546.698
 38.370    580.000    606.995    -26.995    546.423    557.867    595.560    546.423    546.423
 38.470    543.000    594.447    -51.447    546.151    555.254    585.352    546.151    546.151
 38.570    563.168    581.925    -18.757    545.880    553.401    574.409    545.880    545.880
 38.670    550.000    571.681    -21.681    545.611    552.133    565.163    545.611    545.611
 38.770    518.000    564.309    -46.309    545.344    551.251    558.405    545.344    545.344
 38.870    550.000    559.466     -9.466    545.079    550.608    553.939    545.079    545.079
 38.970    543.000    556.441    -13.441    544.817    550.109    551.150    544.817    544.817
 39.070    587.252    554.547     32.706    544.556    549.696    549.407    544.556    544.556
 39.170    570.000    553.289     16.711    544.297    549.337    548.250    544.297    544.297
 39.270    556.490    552.374      4.116    544.041    549.012    547.403    544.041    544.041
 39.370    593.430    551.652     41.778    543.786    548.713    546.726    543.786    543.786
 39.470    562.000    551.050     10.950    543.534    548.434    546.150    543.534    543.534
 39.570    586.322    550.531     35.791    543.283    548.171    545.644    543.283    543.283
 39.670    540.000    550.075    -10.075    543.035    547.923    545.187    543.035    543.035
 39.770    568.000    549.668     18.332    542.788    547.688    544.769    542.788    542.788
 39.870    510.418    549.303    -38.885    542.544    547.466    544.381    542.544    542.544
 39.970    554.000    548.972      5.028    542.302    547.257    544.018    542.302    542.302
 40.070    555.184    548.671      6.513    542.062    547.059    543.674    542.062    542.062
 40.170    530.935    548.397    -17.462    541.824    546.875    543.347    541.824    541.824
 40.270    543.000    548.148     -5.148    541.588    546.702    543.034    541.588    541.588
 40.370    508.000    547.923    -39.923    541.354    546.544    542.733    541.354    541.354
 40.470    547.000    547.720     -0.720    541.122    546.400    542.443    541.122    541.122
 40.570    566.539    547.540     18.999    540.892    546.271    542.161    540.892    540.892
 40.670    570.000    547.383     22.617    540.665    546.160    541.888    540.665    540.665
 40.770    541.000    547.252     -6.252    540.439    546.068    541.623    540.439    540.439
 40.870    533.000    547.147    -14.147    540.215    545.998    541.364    540.215    540.215
 40.970    576.354    547.072     29.282    539.994    545.954    541.112    539.994    539.994
 41.070    541.000    547.030     -6.030    539.775    545.939    540.866    539.775    539.775
 41.170    587.375    547.027     40.347    539.557    545.960    540.626    539.557    539.557
 41.270    503.698    547.071    -43.372    539.342    546.023    540.391    539.342    539.342
 41.370    519.000    547.169    -28.169    539.129    546.137    540.162    539.129    539.129
 41.470    499.000    547.335    -48.335    538.918    546.316    539.939    538.918    538.918
 41.570    531.101    547.587    -16.486    538.709    546.576    539.722    538.709    538.709
 41.670    483.000    547.950    -64.950    538.502    546.943    539.511    538.502    538.502
 41.770    536.000    548.467    -12.467    538.297    547.459    539.308    538.297    538.297
 41.870    584.972    549.219     35.753    538.095    548.202    539.115    538.095    538.095
 41.970    552.000    550.366      1.634    537.894    549.328    538.935    537.894    537.894
 42.070    575.287    552.225     23.062    537.696    551.147    538.778    537.696    537.696
 42.170    509.000    555.375    -46.375    537.499    554.222    538.658    537.499    537.499
 42.270    499.000    560.738    -61.738    537.305    559.450    538.601    537.305    537.305
 42.370    580.000    569.519     10.481    537.113    568.005    538.638    537.113    537.113
 42.470    548.506    582.875    -34.369    536.923    581.013    538.802    536.923    536.923
 42.570    573.015    601.247    -28.231    536.734    598.904    539.103    536.734    536.734
 42.670    569.000    623.429    -54.429    536.548    620.506    539.509    536.548    536.548
 42.770    666.000    645.552     20.448    536.365    642.049    539.916    536.365    536.365
 42.870    663.364    660.861      2.503    536.183    656.960    540.143    536.183    536.183
 42.970    594.000    662.656    -68.656    536.003    658.712    540.009    536.003    536.003
 43.070    625.141    649.907    -24.765    535.825    646.303    539.487    535.825    535.825
 43.170    596.000    628.420    -32.420    535.650    625.386    538.732    535.650    535.650
 43.270    576.764    605.483    -28.719    535.476    603.054    537.941    535.476    535.476
 43.370    567.000    585.737    -18.737    535.305    583.829    537.238    535.305    535.305
 43.470    603.358    570.931     32.427    535.136    569.413    536.671    535.136    535.136
 43.570    546.000    560.917    -14.917    534.968    559.662    536.234    534.968    534.968
 43.670    543.000    554.631    -11.631    534.803    553.540    535.901    534.803    534.803
 43.770    592.000    550.829     41.172    534.640    549.837    535.637    534.640    534.640
 43.870    541.000    548.504     -7.504    534.479    547.572    535.415    534.479    534.479
 43.970    573.000    547.000     26.000    534.320    546.105    535.217    534.320    534.320
 44.070    573.000    545.948     27.052    534.163    545.079    535.035    534.163    534.163
 44.170    517.767    545.160    -27.393    534.008    544.308    534.862    534.008    534.008
 44.270    587.734    544.543     43.191    533.855    543.704    534.696    533.855    533.855
 44.370    582.583    544.047     38.536    533.704    543.218    534.535    533.704    533.704
 44.470    580.610    543.645     36.965    533.555    542.821    534.380    533.555    533.555
 44.570    568.114    543.317     24.797    533.409    542.497    534.230    533.409    533.409
 44.670    503.000    543.050    -40.050    533.264    542.232    534.083    533.264    533.264
 44.770    584.816    542.834     41.982    533.121    542.016    533.940    533.121    533.121
 44.870    557.000    542.663     14.337    532.981    541.843    533.802    532.981    532.981
 44.970    526.899    542.530    -15.631    532.842    541.706    533.667    532.842    532.842
 45.070    542.000    542.432     -0.432    532.706    541.603    533.535    532.706    532.706
 45.170    566.000    542.366     23.634    532.571    541.530    533.407    532.571    532.571
 45.270    559.000    542.330     16.670    532.439    541.486    533.283    532.439    532.439
 45.370    576.000    542.322     33.678    532.308    541.469    533.162    532.308    532.308
 45.470    534.000    542.342     -8.342    532.180    541.478    533.044    532.180    532.180
 45.570    557.000    542.390     14.610    532.053    541.513    532.931    532.053    532.053
 45.670    538.000    542.466     -4.466    531.929    541.574    532.821    531.929    531.929
 45.770    541.000    542.571     -1.571    531.806    541.662    532.714    531.806    531.806
 45.870    576.873    542.705     34.168    531.686    541.779    532.612    531.686    531.686
 45.970    524.972    542.872    -17.900    531.567    541.925    532.514    531.567    531.567
 46.070    570.000    543.073     26.927    531.451    542.104    532.420    531.451    531.451
 46.170    534.000    543.312     -9.312    531.336    542.317    532.331    531.336    531.336
 46.270    527.345    543.593    -16.248    531.224    542.570    532.246    531.224    531.224
 46.370    565.000    543.920     21.080    531.113    542.866    532.167    531.113    531.113
 46.470    536.039    544.301     -8.262    531.004    543.211    532.093    531.004    531.004
 46.570    541.000    544.743     -3.743    530.898    543.614    532.026    530.898    530.898
 46.670    535.000    545.258    -10.258    530.793    544.085    531.965    530.793    530.793
 46.770    513.955    545.860    -31.905    530.690    544.637    531.912    530.690    530.690
 46.870    548.000    546.572      1.428    530.589    545.291    531.868    530.589    530.589
 46.970    528.000    547.432    -19.432    530.491    546.084    531.836    530.491    530.491
 47.070    583.000    548.509     34.491    530.394    547.081    531.819    530.394    530.394
 47.170    525.132    549.937    -24.805    530.299    548.407    531.825    530.299    530.299
 47.270    592.451    551.959     40.492    530.205    550.293    531.866    530.205    530.205
 47.370    558.000    554.978      3.022    530.114    553.119    531.967    530.114    530.114
 47.470    529.177    559.585    -30.408    530.025    557.443    532.158    530.025    530.025
 47.570    576.000    566.482      9.518    529.937    563.927    532.478    529.937    529.937
 47.670    584.000    576.275      7.725    529.852    573.145    532.960    529.852    529.852
 47.770    609.000    589.116     19.884    529.768    585.241    533.613    529.768    529.768
 47.870    641.348    604.258     37.090    529.687    599.506    534.398    529.687    529.687
 47.970    605.000    619.596    -14.596    529.607    613.951    535.201    529.607    529.607
 48.070    631.717    631.516      0.201    529.529    625.161    535.827    529.529    529.529
 48.170    663.000    636.053     26.947    529.453    629.386    536.063    529.453    529.453
 48.270    644.000    631.775     12.225    529.378    625.270    535.831    529.378    529.378
 48.370    643.304    621.276     22.028    529.306    615.264    535.275    529.306    529.306
 48.470    633.000    608.807     24.193    529.235    603.383    534.627    529.235    529.235
 48.570    617.000    597.636     19.364    529.166    592.712    534.066    529.166    529.166
 48.670    552.017    589.460    -37.442    529.100    584.854    533.689    529.100    529.100
 48.770    597.000    584.775     12.225    529.034    580.271    533.526    529.034    529.034
 48.870    608.886    583.356     25.530    528.971    578.747    533.572    528.971    528.971
 48.970    609.631    584.696     24.936    528.910    579.793    533.806    528.910    528.910
 49.070    586.000    588.347     -2.347    528.850    582.976    534.216    528.850    528.850
 49.170    587.000    594.160     -7.160    528.792    588.135    534.811    528.792    528.792
 49.270    615.000    602.482     12.518    528.736    595.565    535.646    528.736    528.736
 49.370    601.056    614.529    -13.473    528.681    606.347    536.856    528.681    528.681
 49.470    621.455    633.132    -11.678    528.629    623.010    538.739    528.629    528.629
 49.570    640.000    664.009    -24.009    528.578    650.675    541.893    528.578    528.578
 49.670    699.000    717.313    -18.313    528.529    698.436    547.374    528.529    528.529
 49.770    797.117    808.453    -11.336    528.481    780.099    556.783    528.481    528.481
 49.870    863.000    956.350    -93.350    528.436    912.618    572.087    528.436    528.436
 49.970   1164.216   1177.359    -13.143    528.392   1110.654    594.986    528.392    528.392
 50.070   1406.000   1474.759    -68.759    528.350   1377.152    625.821    528.350    528.350
 50.170   1787.994   1826.465    -38.471    528.309   1692.340    662.299    528.309    528.309
 50.270   2274.000   2175.276     98.724    528.270   2004.975    698.471    528.270    528.270
 50.370   2418.000   2430.077    -12.077    528.233   2233.424    724.866    528.233    528.233
 50.470   2594.754   2497.627     97.127    528.198   2294.123    731.778    528.198    528.198
 50.570   2444.000   2348.030     95.970    528.164   2160.267    716.079    528.164    528.164
 50.670   2135.942   2044.109     91.833    528.132   1888.159    684.261    528.132    528.132
 50.770   1648.000   1687.204    -39.204    528.102   1568.664    646.811    528.102    528.102
 50.870   1388.222   1357.573     30.649    528.073   1273.771    612.015    528.073    528.073
 50.970   1001.000   1097.783    -96.783    528.046   1041.683    584.251    528.046    528.046
 51.070    896.769    918.088    -21.319    528.020    881.601    564.583    528.020    528.020
 51.170    789.000    807.576    -18.576    527.996    783.674    551.956    527.996    527.996
 51.270    729.000    745.925    -16.925    527.974    729.496    544.451    527.974    527.974
 51.370    669.000    712.355    -43.355    527.953    700.136    540.215    527.953    527.953
 51.470    716.938    690.757     26.181    527.934    680.827    537.903    527.934    527.934
 51.570    656.000    672.062    -16.062    527.917    663.302    536.711    527.917    527.917
 51.670    671.000    653.784     17.216    527.901    645.490    536.223    527.901    527.901
 51.770    583.677    636.837    -53.160    527.886    628.517    536.227    527.886    527.886
 51.870    630.574    622.589      7.985    527.873    613.906    536.572    527.873    527.873
 51.970    662.233    611.725     50.508    527.862    602.521    537.077    527.862    527.862
 52.070    648.113    604.117     43.996    527.852    594.485    537.490    527.852    527.852
 52.170    636.897    599.086     37.811    527.844    589.407    537.527    527.844    527.844
 52.270    669.000    595.871     73.129    527.837    586.692    537.019    527.837    527.837
 52.370    565.392    594.020    -28.628    527.832    585.806    536.048    527.832    527.832
 52.470    628.300    593.457     34.843    527.828    586.432    534.855    527.828    527.828
 52.570    556.000    594.402    -38.402    527.826    588.550    533.680    527.826    527.826
 52.670    668.000    597.380     70.620    527.825    592.527    532.680    527.825    527.825
 52.770    624.216    603.382     20.834    527.826    599.276    531.932    527.826    527.826
 52.870    619.000    614.147      4.853    527.828    610.514    531.461    527.828    527.828
 52.970    613.000    632.456    -19.456    527.831    629.021    531.264    527.831    527.831
 53.070    640.000    662.217    -22.217    527.836    658.708    531.342    527.836    527.836
 53.170    756.000    708.049     47.951    527.843    704.179    531.708    527.843    527.843
 53.270    817.000    774.086     42.914    527.851    769.555    532.374    527.851    527.851
 53.370    848.861    861.964    -13.103    527.860    856.515    533.301    527.860    527.860
 53.470   1012.000    968.566     43.434    527.870    961.914    534.513    527.870    527.870
 53.570   1108.000   1083.229     24.771    527.882   1075.247    535.857    527.882    527.882
 53.670   1196.000   1186.097      9.903    527.896   1176.924    537.068    527.896    527.896
 53.770   1235.000   1250.508    -15.508    527.910   1240.616    537.812    527.910    527.910
 53.870   1197.359   1254.650    -57.291    527.926   1244.778    537.818    527.926    527.926
 53.970   1234.423   1197.029     37.394    527.944   1187.934    537.066    527.944    527.944
 54.070   1089.927   1097.817     -7.890    527.963   1090.004    535.805    527.963    527.963
 54.170   1009.000    984.030     24.970    527.983    977.671    534.369    527.983    527.983
 54.270    822.000    876.582    -54.582    528.004    871.594    533.015    528.004    528.004
 54.370    752.000    787.085    -35.085    528.026    783.243    531.886    528.026    528.026
 54.470    720.706    719.446      1.260    528.050    716.477    531.031    528.050    528.050
 54.570    644.000    672.380    -28.380    528.075    670.030    530.434    528.075    528.075
 54.670    643.000    641.880      1.120    528.102    639.944    530.043    528.102    528.102
 54.770    577.477    623.261    -45.784    528.129    621.594    529.801    528.129    528.129
 54.870    640.000    612.455     27.545    528.158    610.960    529.656    528.158    528.158
 54.970    615.000    606.515      8.485    528.188    605.134    529.571    528.188    528.188
 55.070    608.000    603.588      4.412    528.220    602.285    529.524    528.220    528.220
 55.170    648.765    602.634     46.131    528.252    601.388    529.499    528.252    528.252
 55.270    611.000    603.134      7.866    528.286    601.930    529.491    528.286    528.286
 55.370    571.000    604.869    -33.869    528.321    603.697    529.494    528.321    528.321
 55.470    569.007    607.796    -38.789    528.357    606.646    529.507    528.357    528.357
 55.570    658.000    611.990     46.010    528.394    610.856    529.528    528.394    528.394
 55.670    609.000    617.657     -8.657    528.432    616.532    529.558    528.432    528.432
 55.770    592.000    625.207    -33.207    528.471    624.083    529.595    528.471    528.471
 55.870    600.000    635.420    -35.420    528.512    634.291    529.640    528.512    528.512
 55.970    621.000    649.774    -28.774    528.554    648.634    529.693    528.554    528.554
 56.070    673.000    670.947      2.053    528.596    669.807    529.734    528.596    528.596
 56.170    720.897    703.615     17.282    528.640    702.443    529.806    528.640    528.640
 56.270    745.000    754.978     -9.978    528.685    753.742    529.912    528.685    528.685
 56.370    804.000    835.002    -31.002    528.731    833.667    530.049    528.731    528.731
 56.470    899.000    955.471    -56.471    528.778    953.992    530.231    528.778    528.778
 56.570   1040.000   1127.343    -87.343    528.826   1125.667    530.466    528.826    528.826
 56.670   1298.742   1356.380    -57.638    528.875   1354.449    530.760    528.875    528.875
 56.770   1656.000   1637.768     18.232    528.925   1635.532    531.110    528.925    528.925
 56.870   1993.000   1950.692     42.308    528.976   1948.124    531.499    528.976    528.976
 56.970   2396.000   2253.725    142.275    529.028   2250.842    531.888    529.028    529.028
 57.070   2425.000   2484.641    -59.641    529.081   2481.519    532.223    529.081    529.081
 57.170   2620.000   2576.829     43.171    529.134   2573.600    532.445    529.134    529.134
 57.270   2393.094   2498.359   -105.264    529.189   2495.167    532.526    529.189    529.189
 57.370   2296.000   2277.712     18.288    529.245   2274.649    532.497    529.245    529.245
 57.470   1966.000   1980.400    -14.400    529.302   1977.480    532.424    529.302    529.302
 57.570   1574.000   1669.615    -95.615    529.359   1666.791    532.372    529.359    529.359
 57.670   1411.092   1388.404     22.688    529.418   1385.582    532.399    529.418    529.418
 57.770   1159.718   1159.119      0.600    529.477   1156.163    532.557    529.477    529.477
 57.870   1011.121    987.914     23.207    529.537    984.629    532.912    529.537    529.537
 57.970    842.000    870.256    -28.256    529.598    866.344    533.571    529.598    529.598
 58.070    787.355    796.487     -9.131    529.660    791.479    534.705    529.660    529.660
 58.170    725.000    756.421    -31.421    529.723    749.591    536.572    529.723    529.723
 58.270    779.000    742.142     36.858    529.787    732.432    539.502    529.787    529.787
 58.370    770.000    748.885     21.115    529.851    734.897    543.834    529.851    529.851
 58.470    802.000    774.461     27.539    529.916    754.560    549.801    529.916    529.916
 58.570    866.492    817.875     48.617    529.982    790.465    557.366    529.982    529.982
 58.670    859.000    877.685    -18.685    530.049    841.638    566.062    530.049    530.049
 58.770    944.704    950.435     -5.731    530.116    905.637    574.876    530.116    530.116
 58.870    969.900   1029.533    -59.633    530.184    977.436    582.243    530.184    530.184
 58.970   1068.000   1105.800    -37.800    530.253   1049.627    586.395    530.253    530.253
 59.070   1156.202   1170.658    -14.456    530.323   1114.756    586.207    530.323    530.323
 59.170   1259.000   1219.020     39.980    530.393   1167.475    581.934    530.393    530.393
 59.270   1293.000   1247.929     45.071    530.464   1203.457    574.946    530.464    530.464
 59.370   1188.024   1254.557    -66.533    530.536   1218.267    566.847    530.536    530.536
 59.470   1255.000   1239.279     15.721    530.608   1210.996    558.915    530.608    530.608
 59.570   1248.000   1209.830     38.170    530.681   1188.547    551.980    530.681    530.681
 59.670   1240.785   1179.048     61.738    530.754   1163.348    546.449    530.754    530.754
 59.770   1201.000   1158.769     42.231    530.829   1147.186    542.374    530.829    530.829
 59.870   1114.000   1156.687    -42.687    530.903   1147.947    539.566    530.903    530.903
 59.970   1199.000   1177.308     21.692    530.979   1170.425    537.741    530.979    530.979
 60.070   1307.000   1223.320     83.680    531.055   1217.591    536.619    531.055    531.055
 60.170   1343.000   1293.991     49.009    531.131   1288.940    535.976    531.131    531.131
 60.270   1394.111   1381.662     12.449    531.208   1376.990    535.642    531.208    531.208
 60.370   1489.000   1469.415     19.585    531.286   1464.958    535.490    531.286    531.286
 60.470   1593.292   1532.006     61.285    531.364   1527.708    535.417    531.364    531.364
 60.570   1539.000   1543.387     -4.387    531.443   1539.265    535.347    531.443    531.443
 60.670   1566.000   1491.276     74.724    531.522   1487.382    535.239    531.522    531.522
 60.770   1435.000   1385.864     49.136    531.602   1382.234    535.095    531.602    531.602
 60.870   1197.375   1251.407    -54.031    531.682   1248.043    534.946    531.682    531.682
 60.970   1084.837   1112.232    -27.394    531.763   1109.098    534.826    531.763    531.763
 61.070   1052.000    985.921     66.079    531.844    982.949    534.766    531.844    531.844
 61.170    924.000    882.600     41.400    531.925    879.696    534.792    531.925    531.925
 61.270    816.000    806.279      9.721    532.007    803.324    534.933    532.007    532.007
 61.370    716.798    756.857    -40.059    532.089    753.692    535.226    532.089    532.089
 61.470    683.499    732.352    -48.853    532.172    728.760    535.732    532.172    532.172
 61.570    756.000    730.852     25.148    532.255    726.534    536.534    532.255    532.255
 61.670    766.754    751.652     15.102    532.338    746.198    537.742    532.338    532.338
 61.770    822.000    795.302     26.698    532.422    788.186    539.471    532.422    532.422
 61.870    862.000    862.647     -0.647    532.506    853.249    541.815    532.506    532.506
 61.970    944.013    953.173     -9.160    532.591    940.847    544.801    532.591    532.591
 62.070   1059.000   1063.121     -4.121    532.675   1047.315    548.341    532.675    532.675
 62.170   1133.000   1183.791    -50.791    532.760   1164.203    552.184    532.760    532.760
 62.270   1354.620   1300.326     54.294    532.846   1277.102    555.892    532.846    532.846
 62.370   1335.000   1392.048    -57.048    532.931   1365.959    558.843    532.931    532.931
 62.470   1500.541   1437.066     63.474    533.017   1409.545    560.382    533.017    533.017
 62.570   1380.000   1422.358    -42.358    533.103   1395.222    560.116    533.103    533.103
 62.670   1303.000   1351.966    -48.966    533.190   1326.899    558.171    533.190    533.190
 62.770   1226.000   1244.059    -18.059    533.276   1222.188    555.095    533.276    533.276
 62.870   1121.000   1120.635      0.365    533.363   1102.415    551.555    533.363    533.363
 62.970    940.000    999.790    -59.790    533.450    985.128    548.100    533.450    533.450
 63.070    877.000    893.286    -16.286    533.537    881.735    545.085    533.537    533.537
 63.170    770.000    806.921    -36.921    533.624    797.856    542.689    533.624    533.624
 63.270    706.000    741.787    -35.787    533.712    734.550    540.948    533.712    533.712
 63.370    728.670    695.837     32.833    533.799    689.829    539.805    533.799    533.799
 63.470    682.000    665.484     16.516    533.887    660.208    539.157    533.887    533.887
 63.570    637.000    646.928     -9.928    533.974    641.995    538.900    533.974    533.974
 63.670    658.000    637.049     20.951    534.062    632.145    538.956    534.062    534.062
 63.770    657.000    633.840     23.160    534.150    628.681    539.296    534.150    534.150
 63.870    591.118    636.504    -45.385    534.238    630.778    539.946    534.238    534.238
 63.970    684.000    645.350     38.650    534.326    638.649    541.004    534.326    534.326
 64.070    644.000    661.561    -17.561    534.414    653.306    542.639    534.414    534.414
 64.170    739.000    686.848     52.152    534.502    676.215    545.095    534.502    534.502
 64.270    760.464    722.962     37.502    534.591    708.832    548.665    534.591    534.591
 64.370    795.000    771.059     23.941    534.679    752.012    553.653    534.679    534.679
 64.470    875.000    830.959     44.041    534.767    805.346    560.288    534.767    534.767
 64.570    918.999    900.384     18.615    534.855    866.500    568.628    534.855    534.855
 64.670    966.000    974.294     -8.294    534.943    930.668    578.441    534.943    534.943
 64.770   1081.000   1044.510     36.490    535.031    990.297    589.106    535.031    535.031
 64.870   1189.000   1100.622     88.378    535.119   1036.050    599.551    535.119    535.119
 64.970   1253.000   1132.746    120.254    535.207   1059.532    608.291    535.207    535.207
 65.070   1198.402   1135.308     63.095    535.294   1056.829    613.663    535.294    535.294
 65.170   1184.000   1109.187     74.813    535.382   1030.096    614.387    535.382    535.382
 65.270   1161.000   1060.998    100.002    535.469    986.164    610.244    535.469    535.469
 65.370   1006.000   1000.420      5.580    535.557    933.692    602.250    535.557    535.557
 65.470    895.000    936.919    -41.919    535.644    880.455    592.094    535.644    535.644
 65.570    837.000    877.310    -40.310    535.731    831.640    581.405    535.731    535.731
 65.670    831.000    825.021      5.979    535.818    789.469    571.386    535.818    535.818
 65.770    740.000    780.718    -40.718    535.904    753.886    562.759    535.904    535.904
 65.870    674.000    743.672    -69.672    535.991    723.854    555.834    535.991    535.991
 65.970    690.000    712.993    -22.993    536.077    698.489    550.604    536.077    536.077
 66.070    631.000    688.060    -57.060    536.163    677.382    546.861    536.163    536.163
 66.170    658.128    668.370    -10.243    536.249    660.333    544.300    536.249    536.249
 66.270    653.000    653.396     -0.396    536.334    647.133    542.607    536.334    536.334
 66.370    630.000    642.591    -12.591    536.420    637.506    541.509    536.420    536.420
 66.470    595.000    635.435    -40.435    536.505    631.142    540.800    536.505    536.505
 66.570    590.000    631.470    -41.470    536.589    627.725    540.335    536.589    536.589
 66.670    592.000    630.329    -38.329    536.674    626.978    540.024    536.674    536.674
 66.770    601.000    631.786    -30.786    536.758    628.730    539.813    536.758    536.758
 66.870    663.000    635.853     27.147    536.841    633.023    539.671    536.841    536.841
 66.970    664.000    642.927     21.073    536.925    640.267    539.584    536.925    536.925
 67.070    671.000    653.977     17.023    537.007    651.436    539.546    537.007    537.007
 67.170    635.000    670.789    -35.789    537.090    668.314    539.561    537.090    537.090
 67.270    710.074    696.234     13.841    537.172    693.761    539.639    537.172    537.172
 67.370    738.000    734.480      3.520    537.254    731.928    539.797    537.254    537.254
 67.470    817.970    791.003     26.967    537.335    788.264    540.061    537.335    537.335
 67.570    930.385    872.213     58.172    537.416    869.150    540.460    537.416    537.416
 67.670    918.000    984.534    -66.534    537.497    980.982    541.026    537.497    537.497
 67.770   1153.432   1132.897     20.535    537.577   1128.670    541.781    537.577    537.577
 67.870   1386.007   1318.792     67.216    537.656   1313.698    542.733    537.656    537.656
 67.970   1534.000   1538.184     -4.184    537.735   1532.058    543.860    537.735    537.735
 68.070   1792.000   1779.635     12.365    537.814   1772.373    545.103    537.814    537.814
 68.170   2000.000   2022.823    -22.823    537.892   2014.425    546.360    537.892    537.892
 68.270   2310.850   2238.040     72.810    537.970   2228.657    547.480    537.970    537.970
 68.370   2312.000   2389.021    -77.021    538.047   2378.980    548.280    538.047    538.047
 68.470   2353.561   2443.021    -89.460    538.123   2432.802    548.594    538.123    538.123
 68.570   2327.000   2386.570    -59.570    538.199   2376.706    548.355    538.199    538.199
 68.670   2229.808   2233.751     -3.943    538.274   2224.698    547.633    538.274    538.274
 68.770   2003.000   2017.603    -14.603    538.349   2009.652    546.593    538.349    538.349
 68.870   1729.000   1774.347    -45.347    538.423   1767.615    545.419    538.423    538.423
 68.970   1509.000   1533.480    -24.480    538.497   1527.942    544.258    538.497    538.497
 69.070   1377.190   1315.082     62.108    538.570   1310.619    543.212    538.570    538.570
 69.170   1098.000   1130.376    -32.376    538.642   1126.820    542.337    538.642    538.642
 69.270    922.000    983.225    -61.225    538.714    980.390    541.652    538.714    538.714
 69.370    892.000    872.017     19.983    538.785    869.727    541.150    538.785    538.785
 69.470    836.606    791.749     44.856    538.855    789.853    540.804    538.855    538.855
 69.570    755.000    735.964     19.036    538.925    734.343    540.582    538.925    538.925
 69.670    724.000    698.242     25.758    538.994    696.809    540.453    538.994    538.994
 69.770    711.000    673.101     37.899    539.062    671.794    540.387    539.062    539.062
 69.870    622.000    656.349    -34.349    539.129    655.127    540.364    539.129    539.129
 69.970    635.000    645.051    -10.051    539.196    643.886    540.369    539.196    539.196
 70.070    649.000    637.297     11.703    539.262    636.173    540.393    539.262    539.262
 70.170    637.240    631.922      5.318    539.327    630.826    540.428    539.327    539.327
 70.270    600.104    628.255    -28.151    539.392    627.176    540.473    539.392    539.392
 70.370    594.000    625.931    -31.931    539.455    624.861    540.527    539.455    539.455
 70.470    600.000    624.780    -24.780    539.518    623.711    540.588    539.518    539.518
 70.570    605.000    624.773    -19.773    539.580    623.697    540.655    539.580    539.580
 70.670    653.686    626.010     27.676    539.642    624.918    540.731    539.642    539.642
 70.770    645.000    628.756     16.244    539.702    627.636    540.817    539.702    539.702
 70.870    621.000    633.509    -12.509    539.762    632.347    540.916    539.762    539.762
 70.970    613.000    641.115    -28.115    539.821    639.888    541.036    539.821    539.821
 71.070    681.000    652.900     28.100    539.878    651.577    541.186    539.878    539.878
 71.170    711.892    670.814     41.078    539.935    669.347    541.380    539.935    539.935
 71.270    714.000    697.518     16.482    539.992    695.840    541.638    539.992    539.992
 71.370    773.172    736.357     36.815    540.047    734.375    541.985    540.047    540.047
 71.470    789.000    791.121     -2.121    540.101    788.714    542.447    540.101    540.101
 71.570    814.000    865.543    -51.543    540.154    862.561    543.054    540.154    540.154
 71.670    945.000    962.506    -17.506    540.207    958.779    543.826    540.207    540.207
 71.770   1066.000   1083.049    -17.049    540.258   1078.400    544.771    540.258    540.258
 71.870   1207.000   1225.299    -18.299    540.309   1219.567    545.875    540.309    540.309
 71.970   1307.312   1383.483    -76.172    540.358   1376.550    547.097    540.358    540.358
 72.070   1472.038   1547.142    -75.104    540.407   1538.971    548.362    540.407    540.407
 72.170   1732.000   1700.746     31.254    540.455   1691.416    549.557    540.455    540.455
 72.270   1798.431   1824.479    -26.048    540.501   1814.219    550.537    540.501    540.501
 72.370   1903.000   1897.718      5.282    540.547   1886.907    551.152    540.547    540.547
 72.470   1863.000   1905.824    -42.824    540.591   1894.944    551.298    540.591    540.591
 72.570   1897.000   1846.937     50.063    540.635   1836.476    550.960    540.635    540.635
 72.670   1692.114   1733.001    -40.887    540.677   1723.355    550.225    540.677    540.677
 72.770   1554.660   1583.953    -29.293    540.718   1575.366    549.238    540.718    540.718
 72.870   1475.287   1420.323     54.964    540.759   1412.892    548.148    540.759    540.759
 72.970   1298.000   1258.837     39.163    540.798   1252.538    547.072    540.798    540.798
 73.070   1169.000   1111.149     57.851    540.836   1105.880    546.092    540.836    540.836
 73.170    927.233    984.069    -56.836    540.873    979.685    545.251    540.873    540.873
 73.270    902.718    880.307     22.411    540.909    876.647    544.566    540.909    540.909
 73.370    855.104    799.420     55.684    540.944    796.328    544.034    540.944    540.944
 73.470    771.000    738.887     32.113    540.978    736.221    543.642    540.978    540.978
 73.570    723.000    695.129     27.871    541.010    692.766    543.371    541.010    541.010
 73.670    713.403    664.352     49.050    541.041    662.186    543.206    541.041    541.041
 73.770    668.000    643.122     24.878    541.072    641.060    543.132    541.072    541.072
 73.870    605.000    628.657    -23.657    541.101    626.616    543.141    541.101    541.101
 73.970    640.000    618.901     21.099    541.128    616.799    543.232    541.128    541.128
 74.070    561.818    612.449    -50.631    541.155    610.200    543.407    541.155    541.155
 74.170    641.000    608.394     32.606    541.180    605.908    543.671    541.180    541.180
 74.270    638.507    606.173     32.334    541.205    603.357    544.030    541.205    541.205
 74.370    637.597    605.420     32.177    541.228    602.180    544.481    541.228    541.228
 74.470    605.979    605.855      0.124    541.249    602.105    545.019    541.249    541.249
 74.570    583.641    607.201    -23.560    541.270    602.872    545.622    541.270    541.270
 74.670    644.000    609.128     34.872    541.289    604.189    546.259    541.289    541.289
 74.770    658.000    611.230     46.770    541.307    605.692    546.881    541.307    541.307
 74.870    647.066    613.014     34.052    541.324    606.951    547.427    541.324    541.324
 74.970    652.362    613.961     38.401    541.339    607.514    547.831    541.339    541.339
 75.070    645.088    613.662     31.425    541.353    607.021    548.041    541.353    541.353
 75.170    658.339    611.991     46.348    541.366    605.360    548.042    541.366    541.366
 75.270    587.241    609.183    -21.942    541.378    602.729    547.874    541.378    541.378
 75.370    678.000    605.751     72.249    541.388    599.565    547.610    541.388    541.388
 75.470    672.000    602.323     69.677    541.397    596.406    547.344    541.397    541.397
 75.570    556.897    599.536    -42.639    541.404    593.792    547.171    541.404    541.404
 75.670    635.325    598.002     37.323    541.410    592.242    547.186    541.410    541.410
 75.770    600.880    598.309      2.571    541.415    592.252    547.481    541.415    541.415
 75.870    547.537    601.032    -53.495    541.418    594.301    548.151    541.418    541.418
 75.970    621.000    606.709     14.291    541.420    598.840    549.284    541.420    541.420
 76.070    632.000    615.808     16.192    541.421    606.256    550.960    541.421    541.421
 76.170    629.815    628.654      1.161    541.420    616.817    553.237    541.420    541.420
 76.270    691.759    645.334     46.425    541.418    630.592    556.131    541.418    541.418
 76.370    609.681    665.588    -55.907    541.415    647.362    559.603    541.415    541.415
 76.470    735.000    688.709     46.291    541.410    666.533    563.538    541.410    541.410
 76.570    743.000    713.448     29.552    541.403    687.063    567.732    541.403    541.403
 76.670    759.000    737.951     21.049    541.395    707.404    571.879    541.395    541.395
 76.770    716.644    759.779    -43.136    541.386    725.521    575.576    541.386    541.386
 76.870    784.000    776.118      7.882    541.375    739.066    578.357    541.375    541.375
 76.970    801.000    784.348     16.652    541.363    745.855    579.787    541.363    541.363
 77.070    811.000    782.929     28.071    541.350    744.602    579.612    541.350    541.350
 77.170    805.000    772.057     32.943    541.334    735.469    577.866    541.334    541.334
 77.270    729.000    753.565    -24.565    541.318    719.983    574.851    541.318    541.318
 77.370    735.000    730.154      4.846    541.300    700.396    571.018    541.300    541.300
 77.470    664.000    704.560    -40.560    541.280    678.989    566.819    541.280    541.280
 77.570    719.561    679.063     40.498    541.259    657.664    562.634    541.259    541.259
 77.670    696.650    655.329     41.321    541.236    637.807    558.740    541.236    541.236
 77.770    631.000    634.413     -3.413    541.212    620.300    555.311    541.212    541.212
 77.870    665.849    616.835     49.015    541.186    605.576    552.435    541.186    541.186
 77.970    626.784    602.675     24.109    541.159    593.701    550.126    541.159    541.159
 78.070    579.000    591.696    -12.696    541.130    584.478    548.343    541.130    541.130
 78.170    535.215    583.468    -48.253    541.100    577.546    547.017    541.100    541.100
 78.270    593.815    577.475     16.340    541.068    572.477    546.063    541.068    541.068
 78.370    560.000    573.209    -13.209    541.035    568.846    545.396    541.035    541.035
 78.470    581.000    570.221     10.779    541.000    566.276    544.942    541.000    541.000
 78.570    594.000    568.146     25.854    540.963    564.465    544.642    540.963    540.963
 78.670    549.000    566.712    -17.712    540.925    563.184    544.451    540.925    540.925
 78.770    552.340    565.728    -13.388    540.885    562.273    544.339    540.885    540.885
 78.870    530.411    565.069    -34.658    540.844    561.627    544.284    540.844    540.844
 78.970    546.093    564.659    -18.566    540.801    561.181    544.277    540.801    540.801
 79.070    566.000    564.457      1.543    540.756    560.901    544.311    540.756    540.756
 79.170    585.000    564.450     20.550    540.710    560.773    544.386    540.710    540.710
 79.270    534.931    564.646    -29.715    540.662    560.800    544.507    540.662    540.662
 79.370    542.000    565.068    -23.068    540.612    560.997    544.682    540.612    540.612
 79.470    552.892    565.757    -12.864    540.561    561.391    544.925    540.561    540.561
 79.570    587.000    566.772     20.228    540.509    562.017    545.262    540.509    540.509
 79.670    571.000    568.194      2.806    540.454    562.920    545.726    540.454    540.454
 79.770    570.000    570.135     -0.135    540.398    564.158    546.372    540.398    540.398
 79.870    585.000    572.742     12.258    540.340    565.801    547.278    540.340    540.340
 79.970    568.000    576.214     -8.214    540.281    567.938    548.552    540.281    540.281
 80.070    540.000    580.812    -40.812    540.220    570.684    550.342    540.220    540.220
 80.170    603.335    586.863     16.472    540.157    574.180    552.833    540.157    540.157
 80.270    604.000    594.763      9.237    540.093    578.600    556.248    540.093    540.093
 80.370    583.000    604.956    -21.956    540.027    584.144    560.829    540.027    540.027
 80.470    606.351    617.907    -11.556    539.959    591.042    566.815    539.959    539.959
 80.570    662.366    634.065     28.301    539.890    599.543    574.402    539.890    539.890
 80.670    671.000    653.804     17.196    539.819    609.911    583.702    539.819    539.819
 80.770    635.000    677.337    -42.337    539.746    622.388    594.687    539.746    539.746
 80.870    702.000    704.591     -2.591    539.671    637.120    607.137    539.671    539.671
 80.970    744.000    735.069      8.931    539.595    654.068    620.594    539.595    539.595
 81.070    727.308    767.743    -40.435    539.517    672.927    634.337    539.517    539.517
 81.170    758.589    801.015    -42.425    539.437    693.077    647.387    539.437    539.437
 81.270    838.125    832.812      5.313    539.356    713.601    658.587    539.356    539.356
 81.370    915.000    860.872     54.128    539.273    733.385    666.790    539.273    539.273
 81.470    828.000    883.169    -55.169    539.188    751.289    671.109    539.188    539.188
 81.570    866.000    898.278    -32.278    539.101    766.305    671.125    539.101    539.101
 81.670    931.000    905.502     25.498    539.013    777.651    666.925    539.013    539.013
 81.770    926.648    904.844     21.804    538.923    784.812    659.023    538.923    538.923
 81.870    911.671    896.936     14.736    538.831    787.592    648.250    538.831    538.831
 81.970    942.908    882.887     60.021    538.737    786.068    635.635    538.737    538.737
 82.070    866.753    864.012      2.741    538.642    780.485    622.250    538.642    538.642
 82.170    826.000    841.602    -15.602    538.545    771.180    609.049    538.545    538.545
 82.270    777.000    816.892    -39.892    538.446    758.660    596.758    538.446    538.446
 82.370    839.000    791.093     47.907    538.346    743.670    585.846    538.346    538.346
 82.470    788.352    765.340     23.012    538.243    727.118    576.539    538.243    538.243
 82.570    728.000    740.515    -12.515    538.139    709.863    568.861    538.139    538.139
 82.670    758.710    717.156     41.554    538.033    692.557    562.697    538.033    538.033
 82.770    678.000    695.499    -17.499    537.926    675.643    557.841    537.926    537.926
 82.870    721.208    675.655     45.553    537.816    659.464    554.059    537.816    537.816
 82.970    643.000    657.744    -14.744    537.705    644.366    551.129    537.705    537.705
 83.070    663.029    641.940     21.089    537.592    630.712    548.859    537.592    537.592
 83.170    590.000    628.421    -38.421    537.477    618.832    547.098    537.477    537.477
 83.270    594.454    617.321    -22.867    537.361    608.975    545.730    537.361    537.361
 83.370    614.000    608.701      5.299    537.242    601.285    544.675    537.242    537.242
 83.470    573.000    602.550    -29.550    537.122    595.809    543.872    537.122    537.122
 83.570    556.000    598.781    -42.781    537.000    592.499    543.283    537.000    537.000
 83.670    588.000    597.227     -9.227    536.877    591.222    542.875    536.877    536.877
 83.770    625.000    597.640     27.360    536.751    591.755    542.621    536.751    536.751
 83.870    587.000    599.680    -12.680    536.624    593.788    542.493    536.624    536.624
 83.970    544.000    602.919    -58.919    536.495    596.923    542.461    536.495    536.495
 84.070    589.000    606.838    -17.838    536.364    600.679    542.487    536.364    536.364
 84.170    579.000    610.840    -31.840    536.232    604.499    542.531    536.232    536.232
 84.270    635.988    614.259     21.729    536.097    607.765    542.546    536.097    536.097
 84.370    592.913    616.439    -23.527    535.961    609.865    542.487    535.961    535.961
 84.470    606.000    616.956    -10.956    535.823    610.403    542.329    535.823    535.823
 84.570    607.000    615.509     -8.509    535.683    609.098    542.048    535.683    535.683
 84.670    590.000    612.162    -22.162    535.542    606.012    541.650    535.542    535.542
 84.770    634.839    607.267     27.571    535.398    601.468    541.159    535.398    535.398
 84.870    533.000    601.325    -68.325    535.253    595.933    540.613    535.253    535.253
 84.970    555.023    594.862    -39.839    535.106    589.890    540.049    535.106    535.106
 85.070    586.000    588.346     -2.346    534.957    583.773    539.507    534.957    534.957
 85.170    581.000    582.156     -1.156    534.807    577.923    539.020    534.807    534.807
 85.270    559.000    576.572    -17.572    534.655    572.591    538.620    534.655    534.655
 85.370    585.000    571.778     13.222    534.500    567.932    538.334    534.500    534.500
 85.470    573.000    567.876      5.124    534.345    564.021    538.188    534.345    534.345
 85.570    521.900    564.896    -42.996    534.187    560.867    538.206    534.187    534.187
 85.670    597.162    562.820     34.342    534.027    558.429    538.410    534.027    534.027
 85.770    603.000    561.596     41.404    533.866    556.638    538.816    533.866    533.866
 85.870    558.000    561.156     -3.156    533.703    555.414    539.436    533.703    533.703
 85.970    563.354    561.428      1.926    533.538    554.684    540.274    533.538    533.538
 86.070    562.000    562.348     -0.348    533.372    554.392    541.318    533.372    533.372
 86.170    553.000    563.859    -10.859    533.203    554.508    542.542    533.203    533.203
 86.270    559.000    565.915     -6.915    533.033    555.034    543.901    533.033    533.033
 86.370    542.000    568.488    -26.488    532.861    556.009    545.325    532.861    532.861
 86.470    615.000    571.555     43.445    532.688    557.500    546.724    532.688    532.688
 86.570    588.000    575.102     12.898    532.512    559.607    547.986    532.512    532.512
 86.670    578.000    579.125     -1.125    532.335    562.452    548.982    532.335    532.335
 86.770    578.861    583.635     -4.774    532.156    566.172    549.588    532.156    532.156
 86.870    589.000    588.669      0.331    531.975    570.902    549.706    531.975    531.975
 86.970    613.000    594.303     18.697    531.793    576.755    549.297    531.793    531.793
 87.070    619.397    600.640     18.757    531.609    583.804    548.392    531.609    531.609
 87.170    637.287    607.771     29.516    531.423    592.049    547.083    531.423    531.423
 87.270    584.000    615.718    -31.718    531.235    601.391    545.490    531.235    531.235
 87.370    659.000    624.383     34.617    531.046    611.611    543.734    531.046    531.046
 87.470    647.000    633.515     13.485    530.854    622.351    541.924    530.854    530.854
 87.570    655.000    642.693     12.307    530.661    633.101    540.147    530.661    530.661
 87.670    617.000    651.330    -34.330    530.467    643.210    538.472    530.467    530.467
 87.770    645.262    658.706    -13.444    530.270    651.912    536.943    530.270    530.270
 87.870    708.000    664.063     43.937    530.072    658.424    535.586    530.072    530.072
 87.970    647.027    666.762    -19.735    529.872    662.099    534.411    529.872    529.872
 88.070    670.933    666.468      4.466    529.671    662.609    533.411    529.671    529.671
 88.170    701.209    663.257     37.952    529.468    660.041    532.573    529.468    529.468
 88.270    659.000    657.587      1.413    529.263    654.875    531.877    529.263    529.263
 88.370    627.000    650.163    -23.163    529.056    647.832    531.301    529.056    529.056
 88.470    642.164    641.779      0.385    528.848    639.729    530.827    528.848    528.848
 88.570    615.000    633.222    -18.222    528.638    631.368    530.434    528.638    528.638
 88.670    639.000    625.203     13.797    528.426    623.476    530.110    528.426    528.426
 88.770    587.143    618.323    -31.180    528.213    616.664    529.841    528.213    528.213
 88.870    664.460    613.036     51.424    527.997    611.396    529.619    527.997    527.997
 88.970    635.409    609.634     25.775    527.781    607.971    529.436    527.781    527.781
 89.070    598.000    608.233    -10.233    527.562    606.511    529.286    527.562    527.562
 89.170    610.000    608.775      1.225    527.342    606.965    529.164    527.342    527.342
 89.270    569.000    611.039    -42.039    527.121    609.119    529.062    527.121    527.121
 89.370    638.000    614.661     23.339    526.897    612.614    528.973    526.897    526.897
 89.470    628.000    619.144      8.856    526.672    616.967    528.886    526.672    526.672
 89.570    648.000    623.888     24.112    526.446    621.587    528.792    526.446    526.446
 89.670    621.000    628.226     -7.226    526.218    625.818    528.676    526.218    526.218
 89.770    680.000    631.476     48.524    525.988    628.993    528.528    525.988    525.988
 89.870    629.000    633.044     -4.044    525.756    630.527    528.335    525.756    525.756
 89.970    637.000    632.536      4.464    525.523    630.033    528.090    525.523    525.523
 90.070    630.000    629.848      0.152    525.289    627.408    527.793    525.289    525.289
 90.170    666.000    625.174     40.826    525.053    622.841    527.448    525.053    525.053
 90.270    625.478    618.929      6.549    524.815    616.737    527.066    524.815    524.815
 90.370    594.000    611.632    -17.632    524.575    609.603    526.659    524.575    524.575
 90.470    542.000    603.804    -61.804    524.335    601.949    526.238    524.335    524.335
 90.570    590.000    595.906     -5.906    524.092    594.227    525.813    524.092    524.092
 90.670    575.000    588.314    -13.314    523.848    586.803    525.395    523.848    523.848
 90.770    572.000    581.309     -9.309    523.603    579.953    524.988    523.603    523.603
 90.870    507.000    575.082    -68.082    523.356    573.865    524.597    523.356    523.356
 90.970    574.000    569.741      4.259    523.107    568.642    524.224    523.107    523.107
 91.070    598.000    565.320     32.680    522.857    564.321    523.870    522.857    522.857
 91.170    529.000    561.801    -32.801    522.606    560.881    523.535    522.606    522.606
 91.270    559.000    559.125     -0.125    522.353    558.268    523.217    522.353    522.353
 91.370    531.060    557.218    -26.158    522.098    556.405    522.915    522.098    522.098
 91.470    576.000    555.998     20.002    521.842    555.216    522.627    521.842    521.842
 91.570    532.000    555.398    -23.398    521.585    554.632    522.351    521.585    521.585
 91.670    515.000    555.371    -40.371    521.326    554.609    522.087    521.326    521.326
 91.770    581.366    555.902     25.464    521.066    555.132    521.833    521.066    521.066
 91.870    546.000    557.008    -11.008    520.804    556.218    521.590    520.804    520.804
 91.970    540.000    558.745    -18.745    520.541    557.922    521.359    520.541    520.541
 92.070    554.000    561.206     -7.206    520.276    560.333    521.141    520.276    520.276
 92.170    603.724    564.513     39.212    520.011    563.573    520.940    520.011    520.011
 92.270    542.000    568.816    -26.816    519.743    567.789    520.757    519.743    519.743
 92.370    618.580    574.281     44.299    519.475    573.144    520.596    519.475    519.475
 92.470    583.032    581.080      1.952    519.205    579.806    520.459    519.205    519.205
 92.570    584.000    589.371     -5.371    518.933    587.931    520.348    518.933    518.933
 92.670    623.000    599.285     23.715    518.661    597.652    520.264    518.661    518.661
 92.770    644.429    610.908     33.521    518.387    609.052    520.206    518.387    518.387
 92.870    573.714    624.251    -50.537    518.111    622.146    520.173    518.111    518.111
 92.970    637.000    639.269     -2.269    517.835    636.893    520.161    517.835    517.835
 93.070    657.968    655.831      2.137    517.557    653.167    520.163    517.557    517.557
 93.170    666.000    673.670     -7.670    517.278    670.709    520.174    517.278    517.278
 93.270    723.309    692.417     30.892    516.997    689.160    520.182    516.997    516.997
 93.370    745.216    711.597     33.620    516.716    708.055    520.179    516.716    516.716
 93.470    757.956    730.659     27.297    516.433    726.853    520.156    516.433    516.433
 93.570    754.000    749.056      4.944    516.149    745.012    520.105    516.149    516.149
 93.670    710.000    766.357    -56.357    515.864    762.104    520.027    515.864    515.864
 93.770    795.626    782.363     13.263    515.577    777.920    519.930    515.577    515.577
 93.870    735.000    797.140    -62.140    515.290    792.508    519.831    515.290    515.290
 93.970    814.072    810.960      3.112    515.001    806.114    519.757    515.001    515.001
 94.070    782.000    824.161    -42.161    514.711    819.045    519.739    514.711    514.711
 94.170    851.000    837.011     13.989    514.420    831.540    519.805    514.420    514.420
 94.270    821.000    849.640    -28.640    514.128    843.700    519.983    514.128    514.128
 94.370    919.530    862.048     57.482    513.834    855.509    520.292    513.834    513.834
 94.470    842.000    874.192    -32.192    513.540    866.913    520.740    513.540    513.540
 94.570    843.915    886.055    -42.140    513.245    877.898    521.325    513.245    513.245
 94.670    954.055    897.663     56.392    512.948    888.507    522.032    512.948    512.948
 94.770    914.000    908.999      5.001    512.651    898.752    522.829    512.651    512.651
 94.870    941.175    919.870     21.305    512.352    908.486    523.671    512.352    512.352
 94.970    965.863    929.797     36.066    512.052    917.288    524.501    512.052    512.052
 95.070    967.000    937.974     29.026    511.752    924.424    525.248    511.752    511.752
 95.170    963.000    943.327     19.673    511.450    928.894    525.837    511.450    511.450
 95.270    941.000    944.675     -3.675    511.148    929.594    526.191    511.148    511.148
 95.370    941.000    940.983      0.017    510.845    925.550    526.247    510.845    510.845
 95.470    934.143    931.655      2.488    510.540    916.206    525.968    510.540    510.540
 95.570    911.000    916.754     -5.754    510.235    901.625    525.350    510.235    510.235
 95.670    949.000    897.036     51.964    509.929    882.533    524.426    509.929    509.929
 95.770    887.000    873.807     13.193    509.622    860.176    523.253    509.622    509.622
 95.870    859.231    848.686     10.544    509.314    836.098    521.906    509.314    509.314
 95.970    814.606    823.384     -8.777    509.006    811.934    520.460    509.006    509.006
 96.070    789.283    799.562    -10.279    508.696    789.277    518.986    508.696    508.696
 96.170    810.000    778.763     31.237    508.386    769.605    517.548    508.386    508.386
 96.270    748.000    762.378    -14.378    508.075    754.259    516.194    508.075    508.075
 96.370    699.017    751.637    -52.620    507.763    744.429    514.965    507.763    507.763
 96.470    712.000    747.601    -35.601    507.451    741.152    513.888    507.451    507.451
 96.570    721.894    751.159    -29.265    507.137    745.300    512.977    507.137    507.137
 96.670    788.804    763.017     25.787    506.823    757.573    512.240    506.823    506.823
 96.770    834.000    783.686     50.314    506.509    778.483    511.676    506.509    506.509
 96.870    867.041    813.453     53.588    506.193    808.323    511.276    506.193    506.193
 96.970    866.000    852.347     13.653    505.877    847.136    511.031    505.877    505.877
 97.070    937.000    900.096     36.904    505.561    894.662    510.927    505.561    505.561
 97.170    937.000    956.065    -19.065    505.244    950.285    510.945    505.244    505.244
 97.270    996.000   1019.205    -23.205    504.926   1012.977    511.066    504.926    504.926
 97.370   1117.000   1087.994     29.006    504.608   1081.237    511.267    504.608    504.608
 97.470   1175.000   1160.392     14.608    504.289   1153.057    511.521    504.289    504.289
 97.570   1280.000   1233.821     46.179    503.970   1225.888    511.795    503.970    503.970
 97.670   1284.188   1305.166    -20.978    503.650   1296.653    512.055    503.650    503.650
 97.770   1421.000   1370.854     50.146    503.330   1361.820    512.260    503.330    503.330
 97.870   1413.000   1427.040    -14.040    503.009   1417.584    512.369    503.009    503.009
 97.970   1502.000   1469.994     32.006    502.688   1460.255    512.344    502.688    502.688
 98.070   1435.176   1496.609    -61.433    502.366   1486.756    512.153    502.366    502.366
 98.170   1451.628   1504.942    -53.314    502.044   1495.161    511.777    502.044    502.044
 98.270   1553.224   1494.842     58.382    501.722   1485.320    511.216    501.722    501.722
 98.370   1523.186   1467.624     55.562    501.399   1458.528    510.486    501.399    501.399
 98.470   1476.107   1425.947     50.160    501.076   1417.416    509.615    501.076    501.076
 98.570   1452.000   1373.264     78.736    500.753   1365.398    508.640    500.753    500.753
 98.670   1256.000   1313.319    -57.319    500.429   1306.179    507.600    500.429    500.429
 98.770   1252.000   1249.783      2.217    500.105   1243.397    506.528    500.105    500.105
 98.870   1220.000   1186.038     33.962    499.781   1180.402    505.457    499.781    499.781
 98.970   1096.000   1125.067    -29.067    499.457   1120.152    504.412    499.457    499.457
 99.070   1012.000   1069.415    -57.415    499.133   1065.172    503.412    499.133    499.133
 99.170    965.000   1021.195    -56.195    498.808   1017.565    502.470    498.808    498.808
 99.270    957.073    982.130    -25.058    498.484    979.042    501.597    498.484    498.484
 99.370    976.000    953.586     22.414    498.159    950.967    500.795    498.159    498.159
 99.470   1000.714    936.602     64.112    497.834    934.381    500.066    497.834    497.834
 99.570    947.916    931.912     16.004    497.509    930.020    499.405    497.509    497.509
 99.670    936.000    939.990     -3.990    497.185    938.363    498.808    497.185    497.185
 99.770    937.000    961.018    -24.018    496.860    959.601    498.267    496.860    496.860
 99.870    977.000    994.910    -17.910    496.535    993.656    497.775    496.535    496.535
 99.970   1003.000   1041.312    -38.312    496.210   1040.179    497.325    496.210    496.210
100.070   1093.000   1099.572     -6.572    495.885   1098.530    496.910    495.885    495.885
100.170   1200.126   1168.712     31.414    495.561   1167.734    496.522    495.561    495.561
100.270   1257.000   1247.376      9.624    495.236   1246.443    496.157    495.236    495.236
100.370   1271.148   1333.783    -62.635    494.912   1332.880    495.808    494.912    494.912
100.470   1416.000   1425.686     -9.686    494.588   1424.804    495.473    494.588    494.588
100.570   1567.104   1520.371     46.733    494.264   1519.504    495.148    494.264    494.264
100.670   1649.000   1614.733     34.267    493.941   1613.876    494.830    493.941    493.941
100.770   1748.823   1705.453     43.370    493.617   1704.604    494.518    493.617    493.617
100.870   1789.000   1789.290     -0.290    493.294   1788.448    494.209    493.294    493.294
100.970   1934.000   1863.396     70.604    492.972   1862.557    493.905    492.972    492.972
101.070   1890.722   1925.530    -34.808    492.649   1924.691    493.604    492.649    492.649
101.170   1968.000   1974.086     -6.086    492.327   1973.242    493.308    492.327    492.327
101.270   2080.000   2007.922     72.078    492.006   2007.066    493.017    492.006    492.006
101.370   2108.245   2026.150     82.096    491.685   2025.272    492.732    491.685    491.685
101.470   2025.000   2028.049     -3.049    491.364   2027.141    492.455    491.364    491.364
101.570   2046.737   2013.220     33.517    491.044   2012.271    492.186    491.044    491.044
101.670   1998.000   1981.930     16.070    490.725   1980.928    491.926    490.725    490.725
101.770   1928.562   1935.456     -6.894    490.406   1934.392    491.673    490.406    490.406
101.870   1883.000   1876.225      6.775    490.087   1875.089    491.427    490.087    490.087
101.970   1755.000   1807.612    -52.612    489.770   1806.395    491.186    489.770    489.770
102.070   1714.000   1733.483    -19.483    489.453   1732.180    490.948    489.453    489.453
102.170   1574.000   1657.685    -83.685    489.136   1656.293    490.711    489.136    489.136
102.270   1542.000   1583.621    -41.621    488.821   1582.143    490.470    488.821    488.821
102.370   1502.837   1514.003    -11.166    488.506   1512.445    490.222    488.506    488.506
102.470   1459.000   1450.719      8.281    488.192   1449.093    489.963    488.192    488.192
102.570   1384.245   1394.931    -10.686    487.878   1393.251    489.691    487.878    487.878
102.670   1273.731   1346.939    -73.208    487.566   1345.222    489.405    487.566    487.566
102.770   1245.000   1306.340    -61.340    487.255   1304.604    489.103    487.255    487.255
102.870   1230.000   1272.102    -42.102    486.944   1270.365    488.785    486.944    486.944
102.970   1266.898   1242.675     24.223    486.634   1240.956    488.452    486.634    486.634
103.070   1157.430   1216.168    -58.737    486.326   1214.483    488.105    486.326    486.326
103.170   1120.743   1190.574    -69.831    486.018   1188.940    487.743    486.018    486.018
103.270   1162.949   1164.050     -1.101    485.711   1162.483    487.369    485.711    485.711
103.370   1132.000   1135.182     -3.182    485.406   1133.695    486.983    485.406    485.406
103.470   1044.000   1103.160    -59.160    485.102   1101.763    486.588    485.102    485.102
103.570   1004.000   1067.819    -63.819    484.798   1066.521    486.186    484.798    484.798
103.670   1012.000   1029.542    -17.542    484.496   1028.345    485.780    484.496    484.496
103.770    984.000    989.077     -5.077    484.196    987.983    485.373    484.196    484.196
103.870    949.000    947.357      1.643    483.896    946.365    484.968    483.896    483.896
103.970    909.000    905.358      3.642    483.598    904.464    484.567    483.598    483.598
104.070    904.000    864.003     39.997    483.301    863.200    484.173    483.301    483.301
104.170    750.000    824.109    -74.109    483.005    823.390    483.787    483.005    483.005
104.270    804.000    786.363     17.637    482.711    785.720    483.410    482.711    482.711
104.370    781.000    751.303     29.697    482.419    750.729    483.043    482.419    482.419
104.470    749.000    719.314     29.686    482.127    718.800    482.686    482.127    482.127
104.570    757.000    690.631     66.369    481.838    690.168    482.339    481.838    481.838
104.670    691.000    665.343     25.657    481.550    664.925    482.001    481.550    481.550
104.770    655.000    643.418     11.582    481.263    643.036    481.673    481.263    481.263
104.870    679.326    624.719     54.607    480.978    624.366    481.353    480.978    480.978
104.970    601.237    609.030     -7.793    480.695    608.701    481.042    480.695    480.695
105.070    634.463    596.089     38.374    480.414    595.778    480.739    480.414    480.414
105.170    546.959    585.605    -38.646    480.134    585.307    480.442    480.134    480.134
105.270    606.000    577.287     28.713    479.856    576.998    480.153    479.856    479.856
105.370    622.000    570.856     51.144    479.580    570.572    479.869    479.580    479.580
105.470    601.838    566.064     35.773    479.305    565.781    479.592    479.305    479.305
105.570    529.357    562.700    -33.343    479.033    562.413    479.320    479.033    479.033
105.670    566.000    560.592      5.408    478.762    560.298    479.055    478.762    478.762
105.770    590.000    559.612     30.388    478.494    559.307    478.796    478.494    478.494
105.870    621.000    559.674     61.326    478.227    559.353    478.543    478.227    478.227
105.970    571.000    560.727     10.273    477.963    560.385    478.297    477.963    477.963
106.070    607.000    562.749     44.251    477.701    562.381    478.058    477.701    477.701
106.170    576.770    565.744     11.026    477.441    565.344    477.827    477.441    477.441
106.270    563.991    569.716     -5.725    477.183    569.278    477.604    477.183    477.183
106.370    621.203    574.727     46.476    476.927    574.245    477.391    476.927    476.927
106.470    599.000    580.810     18.190    476.673    580.276    477.187    476.673    476.673
106.570    597.000    587.981      9.019    476.422    587.387    476.993    476.422    476.422
106.670    613.197    596.245     16.952    476.173    595.583    476.808    476.173    476.173
106.770    629.655    605.578     24.077    475.927    604.841    476.633    475.927    475.927
106.870    586.666    615.919    -29.253    475.683    615.100    476.467    475.683    475.683
106.970    641.000    627.158     13.842    475.441    626.252    476.310    475.441    475.441
107.070    652.000    639.136     12.864    475.203    638.139    476.159    475.203    475.203
107.170    630.000    651.642    -21.642    474.966    650.552    476.013    474.966    474.966
107.270    633.000    664.410    -31.410    474.732    663.226    475.869    474.732    474.732
107.370    688.022    677.124     10.899    474.501    675.850    475.726    474.501    474.501
107.470    679.000    689.424    -10.424    474.273    688.066    475.580    474.273    474.273
107.570    716.928    700.921     16.006    474.047    699.489    475.429    474.047    474.047
107.670    684.000    711.221    -27.221    473.824    709.726    475.267    473.824    473.824
107.770    721.000    719.959      1.041    473.604    718.419    475.093    473.604    473.604
107.870    706.000    726.852    -20.852    473.387    725.286    474.904    473.387    473.387
107.970    763.000    731.746     31.254    473.173    730.175    474.698    473.173    473.173
108.070    743.000    734.652      8.348    472.961    733.096    474.475    472.961    472.961
108.170    694.132    735.753    -41.621    472.753    734.233    474.235    472.753    472.753
108.270    693.127    735.378    -42.251    472.548    733.910    473.981    472.548    472.548
108.370    727.000    733.950     -6.950    472.346    732.549    473.716    472.346    472.346
108.470    730.603    731.924     -1.321    472.147    730.601    473.443    472.147    472.147
108.570    706.000    729.737    -23.737    471.951    728.501    473.165    471.951    471.951
108.670    693.000    727.763    -34.763    471.759    726.618    472.886    471.759    471.759
108.770    748.000    726.292     21.708    471.569    725.238    472.609    471.569    471.569
108.870    756.000    725.507     30.493    471.383    724.545    472.335    471.383    471.383
108.970    743.057    725.487     17.570    471.201    724.612    472.068    471.201    471.201
109.070    721.000    726.196     -5.196    471.022    725.405    471.809    471.022    471.022
109.170    688.000    727.491    -39.491    470.847    726.778    471.559    470.847    470.847
109.270    712.000    729.126    -17.126    470.675    728.484    471.319    470.675    470.675
109.370    722.699    730.771     -8.071    470.506    730.194    471.089    470.506    470.506
109.470    689.000    732.029    -43.029    470.342    731.510    470.869    470.342    470.342
109.570    772.000    732.475     39.525    470.181    732.008    470.659    470.181    470.181
109.670    749.000    731.701     17.299    470.023    731.279    470.459    470.023    470.023
109.770    724.000    729.371     -5.371    469.870    728.989    470.268    469.870    469.870
109.870    707.000    725.266    -18.266    469.720    724.919    470.086    469.720    469.720
109.970    745.994    719.317     26.678    469.574    718.999    469.912    469.574    469.574
110.070    649.000    711.605    -62.605    469.433    711.314    469.745    469.433    469.433
110.170    689.000    702.342    -13.342    469.295    702.073    469.585    469.295    469.295
110.270    680.000    691.827    -11.827    469.161    691.578    469.432    469.161    469.161
110.370    731.000    680.408     50.592    469.031    680.175    469.285    469.031    469.031
110.470    689.204    668.444     20.760    468.906    668.225    469.144    468.906    468.906
110.570    687.794    656.277     31.517    468.785    656.071    469.010    468.785    468.785
110.670    626.000    644.221    -18.221    468.668    644.025    468.881    468.668    468.668
110.770    644.000    632.551     11.449    468.555    632.363    468.758    468.555    468.555
110.870    581.000    621.496    -40.496    468.447    621.316    468.640    468.447    468.447
110.970    645.000    611.240     33.760    468.343    611.067    468.528    468.343    468.343
111.070    625.532    601.924     23.608    468.243    601.756    468.421    468.243    468.243
111.170    601.000    593.638      7.362    468.149    593.474    468.319    468.149    468.149
111.270    584.000    586.429     -2.429    468.058    586.271    468.222    468.058    468.058
111.370    579.000    580.323     -1.323    467.973    580.167    468.131    467.973    467.973
111.470    528.116    575.308    -47.192    467.892    575.154    468.047    467.892    467.892
111.570    522.643    571.332    -48.689    467.815    571.180    467.968    467.815    467.815
111.670    574.000    568.332      5.668    467.744    568.180    467.894    467.744    467.744
111.770    583.000    566.228     16.772    467.678    566.076    467.826    467.678    467.678
111.870    563.064    564.935     -1.872    467.616    564.783    467.763    467.616    467.616
111.970    598.000    564.365     33.635    467.559    564.212    467.706    467.559    467.559
112.070    565.000    564.428      0.572    467.508    564.274    467.654    467.508    467.508
112.170    578.000    565.042     12.958    467.461    564.887    467.608    467.461    467.461
112.270    544.823    566.130    -21.307    467.420    565.974    467.567    467.420    467.420
112.370    537.508    567.626    -30.118    467.384    567.469    467.531    467.384    467.384
112.470    573.000    569.474      3.526    467.353    569.316    467.501    467.353    467.353
112.570    557.000    571.631    -14.631    467.327    571.471    467.476    467.327    467.327
112.670    529.000    574.065    -45.065    467.307    573.904    467.457    467.307    467.307
112.770    591.000    576.762     14.238    467.292    576.600    467.443    467.292    467.292
112.870    595.000    579.719     15.281    467.283    579.555    467.435    467.283    467.283
112.970    598.467    582.949     15.518    467.280    582.784    467.433    467.280    467.280
113.070    636.000    586.481     49.519    467.282    586.313    467.436    467.282    467.282
113.170    570.135    590.355    -20.220    467.289    590.185    467.446    467.289    467.289
113.270    592.670    594.630     -1.959    467.303    594.457    467.462    467.303    467.303
113.370    567.000    599.380    -32.380    467.322    599.204    467.484    467.322    467.322
113.470    606.000    604.705      1.295    467.347    604.524    467.513    467.347    467.347
113.570    571.832    610.727    -38.895    467.378    610.541    467.549    467.378    467.378
113.670    567.000    617.606    -50.606    467.415    617.413    467.592    467.415    467.415
113.770    627.000    625.544      1.456    467.458    625.342    467.642    467.458    467.458
113.870    623.000    634.799    -11.799    467.507    634.586    467.700    467.507    467.507
113.970    634.000    645.694    -11.694    467.562    645.468    467.766    467.562    467.562
114.070    671.000    658.639     12.361    467.624    658.397    467.840    467.624    467.624
114.170    648.902    674.142    -25.239    467.692    673.880    467.923    467.692    467.692
114.270    662.000    692.828    -30.828    467.766    692.542    468.015    467.766    467.766
114.370    693.934    715.461    -21.527    467.847    715.148    468.117    467.847    467.847
114.470    713.000    742.959    -29.959    467.934    742.613    468.228    467.934    467.934
114.570    784.314    776.411      7.902    468.028    776.028    468.349    468.028    468.028
114.670    848.660    817.091     31.570    468.128    816.664    468.481    468.128    468.128
114.770    838.000    866.459    -28.459    468.235    865.982    468.623    468.235    468.235
114.870    912.210    926.166    -13.957    468.349    925.632    468.775    468.349    468.349
114.970   1009.992    998.036     11.957    468.469    997.438    468.938    468.469    468.469
115.070   1039.091   1084.039    -44.948    468.597   1083.371    469.112    468.597    468.597
115.170   1251.421   1186.255     65.166    468.731   1185.510    469.297    468.731    468.731
115.270   1310.000   1306.810      3.190    468.873   1305.980    469.491    468.873    468.873
115.370   1521.000   1447.801     73.199    469.021   1446.879    469.696    469.021    469.021
115.470   1658.000   1611.202     46.798    469.177   1610.184    469.911    469.177    469.177
115.570   1846.000   1798.758     47.242    469.340   1797.638    470.134    469.340    469.340
115.670   2135.000   2011.857    123.143    469.510   2010.632    470.367    469.510    469.510
115.770   2389.000   2251.406    137.594    469.688   2250.075    470.607    469.688    469.688
115.870   2585.610   2517.700     67.910    469.873   2516.261    470.854    469.873    469.873
115.970   2847.650   2810.290     37.360    470.065   2808.747    471.108    470.065    470.065
116.070   3103.000   3127.874    -24.874    470.265   3126.231    471.368    470.265    470.265
116.170   3495.386   3468.202     27.184    470.473   3466.464    471.633    470.473    470.473
116.270   3914.000   3827.998     86.002    470.688   3826.174    471.902    470.688    470.688
116.370   4274.230   4202.924     71.306    470.912   4201.025    472.177    470.912    470.912
116.470   4619.000   4587.560     31.440    471.143   4585.598    472.456    471.143    471.143
116.570   4996.736   4975.425     21.311    471.382   4973.413    472.740    471.382    471.382
116.670   5451.000   5359.027     91.973    471.629   5356.979    473.031    471.629    471.629
116.770   5572.339   5729.960   -157.621    471.884   5727.891    473.328    471.884    471.884
116.870   5938.610   6079.064   -140.454    472.147   6076.989    473.634    472.147    472.147
116.970   6379.000   6396.672    -17.672    472.418   6394.605    473.948    472.418    472.418
117.070   6592.538   6672.987    -80.449    472.698   6670.942    474.272    472.698    472.698
117.170   6858.000   6898.598    -40.598    472.985   6896.588    474.606    472.985    472.985
117.270   6980.000   7065.120    -85.120    473.282   7063.154    474.950    473.282    473.282
117.370   7135.920   7166.134    -30.214    473.587   7164.219    475.304    473.587    473.587
117.470   7097.018   7197.564   -100.546    473.900   7195.703    475.668    473.900    473.900
117.570   7267.532   7158.356    109.177    474.222   7156.547    476.040    474.222    474.222
117.670   7091.000   7050.565     40.435    474.553   7048.806    476.419    474.553    474.553
117.770   6900.000   6879.094     20.906    474.892   6877.376    476.803    474.892    474.892
117.870   6665.000   6651.113     13.887    475.241   6649.432    477.192    475.241    475.241
117.970   6096.000   6375.336   -279.336    475.598   6373.683    477.582    475.598    475.598
118.070   5819.000   6061.277   -242.277    475.965   6059.647    477.972    475.965    475.965
118.170   5661.000   5718.628    -57.628    476.340   5717.018    478.360    476.340    476.340
118.270   5354.000   5356.782     -2.782    476.725   5355.192    478.745    476.725    476.725
118.370   4987.000   4984.512      2.488    477.118   4982.941    479.126    477.118    477.118
118.470   4562.000   4609.749    -47.749    477.522   4608.200    479.502    477.522    477.522
118.570   4467.000   4239.458    227.542    477.934   4237.935    479.875    477.934    477.934
118.670   3858.544   3879.561    -21.017    478.356   3878.067    480.245    478.356    478.356
118.770   3649.465   3534.904    114.561    478.788   3533.445    480.614    478.788    478.788
118.870   3280.704   3209.267     71.436    479.229   3207.847    480.984    479.229    479.229
118.970   2985.000   2905.403     79.597    479.680   2904.025    481.358    479.680    479.680
119.070   2548.664   2625.110    -76.446    480.141   2623.777    481.736    480.141    480.141
119.170   2364.000   2369.327     -5.327    480.611   2368.043    482.123    480.611    480.611
119.270   2221.232   2138.252     82.980    481.092   2137.016    482.520    481.092    481.092
119.370   2015.433   1931.456     83.977    481.583   1930.269    482.928    481.583    481.583
119.470   1772.000   1748.010     23.990    482.083   1746.872    483.350    482.083    482.083
119.570   1533.000   1586.600    -53.600    482.594   1585.509    483.787    482.594    482.594
119.670   1411.000   1445.639    -34.639    483.115   1444.591    484.241    483.115    483.115
119.770   1351.000   1323.362     27.638    483.647   1322.353    484.714    483.647    483.647
119.870   1225.000   1217.920      7.080    484.189   1216.945    485.205    484.189    484.189
119.970   1060.944   1127.453    -66.509    484.741   1126.506    485.715    484.741    484.741
120.070   1050.000   1050.155     -0.155    485.304   1049.229    486.246    485.304    485.304
120.170    951.181    984.319    -33.138    485.878    983.407    486.798    485.878    485.878
120.270    866.551    928.374    -61.822    486.462    927.468    487.371    486.462    486.462
120.370    898.000    880.902     17.098    487.058    879.994    487.965    487.058    487.058
120.470    880.000    840.649     39.351    487.664    839.730    488.580    487.664    487.664
120.570    805.000    806.524     -1.524    488.281    805.585    489.216    488.281    488.281
120.670    740.417    777.592    -37.175    488.910    776.623    489.873    488.910    488.910
120.770    744.400    753.060     -8.660    489.549    752.053    490.552    489.549    489.549
120.870    722.000    732.264    -10.264    490.200    731.210    491.251    490.200    490.200
120.970    700.979    714.653    -13.674    490.862    713.542    491.971    490.862    490.862
121.070    657.000    699.772    -42.772    491.536    698.595    492.711    491.536    491.536
121.170    663.000    687.248    -24.248    492.221    685.995    493.473    492.221    492.221
121.270    636.000    676.774    -40.774    492.917    675.437    494.255    492.917    492.917
121.370    694.000    668.100     25.900    493.626    666.670    495.059    493.626    493.626
121.470    620.303    661.020    -40.717    494.346    659.487    495.883    494.346    494.346
121.570    640.000    655.364    -15.364    495.078    653.718    496.729    495.078    495.078
121.670    661.000    650.989     10.011    495.822    649.221    497.597    495.822    495.822
121.770    683.717    647.776     35.941    496.578    645.875    498.487    496.578    496.578
121.870    600.000    645.620    -45.620    497.346    643.574    499.401    497.346    497.346
121.970    668.031    644.429     23.603    498.127    642.228    500.338    498.127    498.127
122.070    609.757    644.119    -34.362    498.919    641.752    501.300    498.919    498.919
122.170    685.368    644.613     40.755    499.725    642.066    502.286    499.725    499.725
122.270    641.000    645.833     -4.833    500.542    643.093    503.298    500.542    500.542
122.370    668.000    647.702     20.298    501.372    644.758    504.335    501.372    501.372
122.470    628.000    650.142    -22.142    502.215    646.982    505.396    502.215    502.215
122.570    596.000    653.071    -57.071    503.071    649.683    506.482    503.071    503.071
122.670    650.000    656.402     -6.402    503.939    652.776    507.590    503.939    503.939
122.770    624.000    660.041    -36.041    504.821    656.170    508.719    504.821    504.821
122.870    617.600    663.889    -46.289    505.715    659.769    509.867    505.715    505.715
122.970    599.000    667.842    -68.842    506.623    663.468    511.030    506.623    506.623
123.070    665.000    671.787     -6.787    507.544    667.162    512.206    507.544    507.544
123.170    646.000    675.609    -29.609    508.478    670.736    513.390    508.478    508.478
123.270    725.663    679.187     46.475    509.425    674.077    514.578    509.425    509.425
123.370    649.000    682.404    -33.404    510.386    677.069    515.766    510.386    510.386
123.470    732.940    685.145     47.795    511.361    679.604    516.949    511.361    511.361
123.570    684.000    687.305     -3.305    512.349    681.582    518.122    512.349    512.349
123.670    696.000    688.798      7.202    513.351    682.919    519.282    513.351    513.351
123.770    711.000    689.556     21.444    514.367    683.551    520.426    514.367    514.367
123.870    726.000    689.540     36.460    515.397    683.443    521.549    515.397    515.397
123.970    640.837    688.738    -47.901    516.441    682.584    522.651    516.441    516.441
124.070    746.000    687.165     58.835    517.499    680.990    523.730    517.499    517.499
124.170    700.000    684.860     15.140    518.572    678.700    524.787    518.572    518.572
124.270    673.152    681.881     -8.728    519.659    675.772    525.822    519.659    519.659
124.370    727.000    678.283     48.717    520.760    672.262    526.835    520.760    520.760
124.470    707.000    674.159     32.841    521.876    668.257    527.830    521.876    521.876
124.570    701.000    669.629     31.371    523.006    663.878    528.808    523.006    523.006
124.670    654.437    664.760    -10.323    524.151    659.188    529.772    524.151    524.151
124.770    617.000    659.636    -42.636    525.312    654.268    530.724    525.312    525.312
124.870    678.274    654.342     23.932    526.487    649.202    531.670    526.487    526.487
124.970    673.000    648.961     24.039    527.677    644.067    532.612    527.677    527.677
