neutron_powder_diffraction_0089
R_wp: 4.093
Temperature (K): 835.685
Counts: 83459.00
Wavelength (Ã…): 2.52098
COMMENTS
Test file for demonstrating the .xyy file format in Reel1.0
END OF HEADER
   tth       Y_obs     Y_calc      Y_res    Background    Phase_1_Nuc    Phase_1_Mag    Phase_2_Nuc    Phase_2_Mag
  9.970    628.000    547.102     80.898    545.277    546.360    545.277    545.800    545.496
 10.070    590.828    547.960     42.867    546.040    547.214    546.040    546.565    546.261
 10.170    555.205    548.817      6.387    546.789    548.067    546.789    547.316    547.013
 10.270    562.000    549.677     12.323    547.524    548.922    547.524    548.053    547.750
 10.370    603.000    550.540     52.460    548.245    549.780    548.245    548.776    548.473
 10.470    563.755    551.411     12.344    548.952    550.648    548.952    549.485    549.182
 10.570    594.000    552.297     41.703    549.645    551.529    549.645    550.181    549.877
 10.670    555.000    553.205      1.795    550.324    552.432    550.324    550.862    550.558
 10.770    592.000    554.143     37.857    550.990    553.365    550.990    551.530    551.226
 10.870    577.000    555.124     21.876    551.642    554.342    551.642    552.184    551.881
 10.970    586.000    556.166     29.834    552.281    555.378    552.281    552.825    552.522
 11.070    578.000    557.291     20.709    552.906    556.499    552.906    553.453    553.150
 11.170    552.722    558.535     -5.813    553.519    557.738    553.519    554.068    553.764
 11.270    580.197    559.950     20.247    554.118    559.148    554.118    554.669    554.366
 11.370    592.000    561.628     30.372    554.704    560.820    554.704    555.258    554.955
 11.470    578.000    563.756     14.244    555.277    562.943    555.277    555.833    555.531
 11.570    581.000    566.758     14.242    555.838    565.938    555.838    556.396    556.094
 11.670    587.000    571.552     15.448    556.386    570.725    556.386    556.947    556.644
 11.770    582.000    579.832      2.168    556.921    578.995    556.921    557.484    557.182
 11.870    600.000    593.940      6.060    557.444    593.091    557.444    558.010    557.708
 11.970    649.000    615.766     33.234    557.954    614.900    557.954    558.523    558.221
 12.070    649.516    644.357      5.159    558.453    643.470    558.453    559.023    558.722
 12.170    679.000    672.410      6.590    558.939    671.503    558.939    559.512    559.211
 12.270    655.000    685.043    -30.043    559.413    684.123    559.413    559.989    559.688
 12.370    636.076    672.671    -36.594    559.875    671.752    559.875    560.453    560.153
 12.470    634.000    645.305    -11.305    560.325    644.396    560.325    560.906    560.607
 12.570    618.000    617.779      0.221    560.764    616.880    560.764    561.347    561.048
 12.670    590.000    597.154     -7.154    561.191    596.261    561.191    561.777    561.478
 12.770    585.000    584.229      0.771    561.606    583.338    561.606    562.195    561.897
 12.870    592.000    577.061     14.939    562.010    576.168    562.010    562.601    562.304
 12.970    559.000    573.310    -14.310    562.402    572.414    562.402    562.997    562.700
 13.070    578.000    571.310      6.690    562.784    570.409    562.784    563.381    563.084
 13.170    587.000    570.162     16.838    563.154    569.255    563.154    563.754    563.458
 13.270    561.000    569.456     -8.456    563.513    568.543    563.513    564.116    563.820
 13.370    592.000    569.010     22.990    563.861    568.091    563.861    564.467    564.172
 13.470    506.000    568.735    -62.735    564.199    567.811    564.199    564.807    564.513
 13.570    582.000    568.580     13.420    564.525    567.649    564.525    565.136    564.843
 13.670    541.000    568.510    -27.510    564.841    567.573    564.841    565.455    565.163
 13.770    614.419    568.503     45.916    565.146    567.559    565.146    565.764    565.472
 13.870    586.298    568.542     17.756    565.441    567.592    565.441    566.061    565.770
 13.970    585.000    568.616     16.384    565.726    567.659    565.726    566.349    566.059
 14.070    538.000    568.712    -30.712    566.000    567.748    566.000    566.626    566.337
 14.170    560.000    568.827     -8.827    566.264    567.856    566.264    566.893    566.605
 14.270    532.000    568.954    -36.954    566.518    567.976    566.518    567.150    566.863
 14.370    566.848    569.091     -2.243    566.762    568.105    566.762    567.397    567.111
 14.470    533.000    569.238    -36.238    566.996    568.245    566.996    567.635    567.350
 14.570    545.000    569.405    -24.405    567.220    568.405    567.220    567.862    567.578
 14.670    540.840    569.608    -28.768    567.435    568.600    567.435    568.080    567.797
 14.770    570.632    569.835      0.797    567.639    568.819    567.639    568.288    568.006
 14.870    523.000    569.987    -46.987    567.835    568.963    567.835    568.487    568.206
 14.970    560.434    570.129     -9.695    568.021    569.097    568.021    568.676    568.397
 15.070    547.000    570.267    -23.267    568.197    569.227    568.197    568.856    568.578
 15.170    622.000    570.401     51.599    568.364    569.353    568.364    569.026    568.750
 15.270    542.494    570.530    -28.037    568.522    569.474    568.522    569.188    568.913
 15.370    526.000    570.655    -44.655    568.671    569.589    568.671    569.340    569.067
 15.470    578.911    570.774      8.137    568.811    569.699    568.811    569.484    569.212
 15.570    567.141    570.887     -3.746    568.942    569.804    568.942    569.619    569.349
 15.670    583.000    570.994     12.006    569.064    569.902    569.064    569.744    569.476
 15.770    551.000    571.095    -20.095    569.178    569.993    569.178    569.862    569.595
 15.870    547.000    571.189    -24.189    569.282    570.078    569.282    569.970    569.705
 15.970    575.000    571.277      3.723    569.379    570.157    569.379    570.070    569.807
 16.070    610.943    571.358     39.585    569.466    570.228    569.466    570.162    569.901
 16.170    571.000    571.433     -0.433    569.546    570.293    569.546    570.245    569.986
 16.270    526.000    571.501    -45.501    569.617    570.351    569.617    570.320    570.063
 16.370    562.000    571.562     -9.562    569.679    570.402    569.679    570.387    570.132
 16.470    564.958    571.617     -6.659    569.734    570.446    569.734    570.445    570.193
 16.570    535.000    571.665    -36.665    569.780    570.483    569.780    570.496    570.246
 16.670    566.000    571.705     -5.705    569.819    570.513    569.819    570.539    570.291
 16.770    590.000    571.740     18.260    569.850    570.537    569.850    570.574    570.329
 16.870    569.000    571.772     -2.772    569.872    570.557    569.872    570.601    570.359
 16.970    547.000    571.794    -24.794    569.888    570.568    569.888    570.620    570.381
 17.070    527.154    571.814    -44.661    569.895    570.576    569.895    570.632    570.396
 17.170    567.000    571.822     -4.822    569.895    570.573    569.895    570.637    570.403
 17.270    576.000    571.823      4.177    569.887    570.561    569.887    570.634    570.403
 17.370    564.647    571.818     -7.171    569.872    570.543    569.872    570.623    570.396
 17.470    537.700    571.806    -34.106    569.850    570.518    569.850    570.606    570.381
 17.570    570.000    571.787     -1.787    569.820    570.487    569.820    570.581    570.360
 17.670    529.000    571.762    -42.762    569.783    570.449    569.783    570.549    570.332
 17.770    549.869    571.731    -21.862    569.740    570.404    569.740    570.510    570.296
 17.870    541.000    571.694    -30.694    569.689    570.353    569.689    570.464    570.254
 17.970    558.000    571.663    -13.663    569.631    570.308    569.631    570.412    570.205
 18.070    576.065    571.673      4.391    569.566    570.304    569.566    570.352    570.150
 18.170    567.000    571.624     -4.624    569.495    570.240    569.495    570.286    570.088
 18.270    557.000    571.563    -14.563    569.417    570.164    569.417    570.213    570.019
 18.370    593.433    571.496     21.938    569.332    570.081    569.332    570.134    569.944
 18.470    602.413    571.423     30.990    569.240    569.993    569.240    570.048    569.863
 18.570    576.495    571.349      5.146    569.143    569.903    569.143    569.956    569.776
 18.670    533.000    571.274    -38.274    569.038    569.811    569.038    569.858    569.682
 18.770    552.000    571.185    -19.185    568.928    569.706    568.928    569.753    569.583
 18.870    581.000    571.092      9.908    568.811    569.595    568.811    569.642    569.477
 18.970    558.934    571.014    -12.080    568.688    569.499    568.688    569.525    569.366
 19.070    536.223    570.914    -34.691    568.559    569.382    568.559    569.403    569.249
 19.170    522.097    570.804    -48.707    568.424    569.253    568.424    569.274    569.126
 19.270    560.000    570.689    -10.689    568.283    569.118    568.283    569.139    568.997
 19.370    582.075    570.569     11.506    568.136    568.979    568.136    568.999    568.863
 19.470    586.000    570.452     15.548    567.983    568.843    567.983    568.853    568.724
 19.570    520.000    570.326    -50.326    567.825    568.696    567.825    568.701    568.579
 19.670    612.505    570.192     42.313    567.661    568.541    567.661    568.544    568.429
 19.770    597.000    570.054     26.946    567.491    568.382    567.491    568.381    568.273
 19.870    530.000    569.911    -39.911    567.316    568.216    567.316    568.213    568.113
 19.970    606.000    569.763     36.237    567.135    568.046    567.135    568.040    567.947
 20.070    546.000    569.611    -23.611    566.949    567.871    566.949    567.861    567.777
 20.170    547.000    569.465    -22.465    566.757    567.701    566.757    567.678    567.601
 20.270    599.370    569.346     30.025    566.561    567.557    566.561    567.489    567.421
 20.370    612.389    569.186     43.203    566.359    567.373    566.359    567.295    567.236
 20.470    595.285    569.019     26.266    566.152    567.180    566.152    567.097    567.047
 20.570    567.898    568.849     -0.951    565.940    566.983    565.940    566.893    566.853
 20.670    535.000    568.675    -33.675    565.723    566.782    565.723    566.685    566.655
 20.770    567.425    568.498     -1.073    565.501    566.577    565.501    566.472    566.452
 20.870    542.000    568.321    -26.321    565.274    566.370    565.274    566.254    566.245
 20.970    520.677    568.163    -47.487    565.043    566.183    565.043    566.032    566.034
 21.070    538.000    568.010    -30.010    564.806    565.998    564.806    565.805    565.819
 21.170    533.000    567.857    -34.857    564.566    565.814    564.566    565.574    565.600
 21.270    527.051    567.704    -40.653    564.320    565.629    564.320    565.338    565.378
 21.370    596.027    567.524     28.503    564.070    565.415    564.070    565.099    565.151
 21.470    524.813    567.353    -42.541    563.816    565.210    563.816    564.855    564.921
 21.570    556.426    567.166    -10.740    563.557    564.986    563.557    564.607    564.687
 21.670    571.000    567.011      3.989    563.294    564.795    563.294    564.355    564.450
 21.770    550.000    566.835    -16.835    563.026    564.581    563.026    564.099    564.209
 21.870    613.000    566.644     46.356    562.755    564.350    562.755    563.839    563.965
 21.970    582.000    566.451     15.549    562.479    564.117    562.479    563.576    563.718
 22.070    560.000    566.263     -6.263    562.199    563.887    562.199    563.308    563.468
 22.170    555.000    566.072    -11.072    561.916    563.652    561.916    563.037    563.215
 22.270    605.516    565.893     39.624    561.628    563.428    561.628    562.763    562.959
 22.370    545.000    565.708    -20.708    561.336    563.197    561.336    562.485    562.701
 22.470    528.000    565.527    -37.527    561.041    562.967    561.041    562.203    562.440
 22.570    554.000    565.347    -11.347    560.742    562.737    560.742    561.918    562.176
 22.670    607.000    565.173     41.827    560.439    562.511    560.439    561.630    561.910
 22.770    612.000    565.006     46.994    560.132    562.291    560.132    561.339    561.642
 22.870    564.000    564.849     -0.849    559.822    562.078    559.822    561.045    561.372
 22.970    537.000    564.703    -27.703    559.509    561.874    559.509    560.748    561.100
 23.070    548.000    564.572    -16.572    559.192    561.684    559.192    560.447    560.826
 23.170    563.000    564.459     -1.459    558.871    561.509    558.871    560.144    560.550
 23.270    536.000    564.370    -28.370    558.547    561.354    558.547    559.839    560.273
 23.370    601.113    564.311     36.802    558.220    561.228    558.220    559.530    559.995
 23.470    522.802    564.290    -41.488    557.890    561.137    557.890    559.219    559.715
 23.570    584.000    564.321     19.679    557.556    561.095    557.556    558.906    559.435
 23.670    541.391    564.412    -23.021    557.220    561.110    557.220    558.590    559.154
 23.770    556.778    564.587     -7.810    556.880    561.206    556.880    558.272    558.872
 23.870    515.000    564.882    -49.882    556.537    561.419    556.537    557.952    558.589
 23.970    552.000    565.354    -13.354    556.192    561.805    556.192    557.629    558.307
 24.070    525.592    566.119    -40.528    555.843    562.480    555.843    557.305    558.024
 24.170    627.000    567.434     59.566    555.492    563.702    555.492    556.979    557.742
 24.270    550.000    569.845    -19.845    555.138    566.016    555.138    556.651    557.460
 24.370    620.000    574.350     45.650    554.781    570.421    554.781    556.322    557.179
 24.470    580.000    582.350     -2.350    554.421    578.320    554.421    555.991    556.898
 24.570    643.111    595.084     48.027    554.059    590.950    554.059    555.659    556.620
 24.670    607.000    612.330     -5.330    553.694    608.089    553.694    555.325    556.342
 24.770    687.000    630.420     56.580    553.327    626.069    553.327    554.990    556.067
 24.870    628.317    641.107    -12.790    552.957    636.633    552.957    554.655    555.794
 24.970    685.000    637.262     47.738    552.585    632.648    552.585    554.318    555.523
 25.070    630.000    621.688      8.312    552.210    616.919    552.210    553.981    555.255
 25.170    581.000    603.030    -22.030    551.834    598.095    551.834    553.644    554.991
 25.270    586.000    587.377     -1.377    551.454    582.272    551.454    553.306    554.730
 25.370    597.000    576.575     20.425    551.073    571.293    551.073    552.968    554.474
 25.470    533.643    570.000    -36.358    550.690    564.536    550.690    552.630    554.223
 25.570    555.292    566.254    -10.962    550.304    560.600    550.304    552.292    553.977
 25.670    610.718    564.103     46.615    549.917    558.250    549.917    551.955    553.737
 25.770    584.000    562.775     21.225    549.527    556.712    549.527    551.618    553.503
 25.870    573.249    561.879     11.370    549.135    555.595    549.135    551.283    553.276
 25.970    579.000    561.236     17.764    548.742    554.718    548.742    550.948    553.057
 26.070    579.000    560.765     18.235    548.347    554.000    548.347    550.615    552.847
 26.170    531.000    560.427    -29.427    547.949    553.399    547.949    550.284    552.646
 26.270    547.594    560.195    -12.601    547.551    552.890    547.551    549.954    552.455
 26.370    550.000    560.058    -10.058    547.150    552.458    547.150    549.627    552.275
 26.470    562.189    560.008      2.181    546.748    552.096    546.748    549.303    552.107
 26.570    623.000    560.044     62.956    546.344    551.800    546.344    548.982    551.951
 26.670    593.000    560.167     32.833    545.938    551.572    545.938    548.664    551.810
 26.770    545.174    560.383    -15.209    545.531    551.415    545.531    548.349    551.684
 26.870    606.171    560.704     45.467    545.123    551.339    545.123    548.039    551.574
 26.970    589.000    561.145     27.855    544.713    551.358    544.713    547.733    551.481
 27.070    591.000    561.729     29.271    544.301    551.495    544.301    547.432    551.407
 27.170    614.282    562.491     51.792    543.889    551.781    543.889    547.136    551.352
 27.270    606.321    563.479     42.842    543.475    552.265    543.475    546.846    551.319
 27.370    561.000    564.764     -3.764    543.059    553.015    543.059    546.563    551.307
 27.470    585.472    566.475     18.997    542.643    554.158    542.643    546.285    551.319
 27.570    634.000    568.909     65.091    542.225    555.990    542.225    546.015    551.355
 27.670    599.000    572.957     26.043    541.807    559.401    541.807    545.752    551.416
 27.770    562.630    581.380    -18.751    541.387    567.151    541.387    545.496    551.504
 27.870    638.000    601.123     36.877    540.966    586.178    540.966    545.248    551.618
 27.970    671.000    644.387     26.613    540.544    628.683    540.544    545.007    551.758
 28.070    759.000    722.442     36.558    540.121    705.936    540.121    544.774    551.924
 28.170    847.000    828.799     18.201    539.698    811.458    539.698    544.548    552.115
 28.270    952.000    923.721     28.279    539.273    905.531    539.273    544.329    552.329
 28.370    908.395    950.039    -41.645    538.847    930.994    538.847    544.116    552.564
 28.470    901.000    892.007      8.993    538.421    872.091    538.421    543.908    552.816
 28.570    776.000    802.536    -26.536    537.994    781.724    537.994    543.703    553.079
 28.670    750.000    743.555      6.445    537.567    721.827    537.567    543.499    553.348
 28.770    728.000    740.732    -12.732    537.138    718.084    537.138    543.294    553.615
 28.870    799.000    781.654     17.346    536.709    758.100    536.709    543.085    553.871
 28.970    860.000    828.367     31.633    536.280    803.945    536.280    542.869    554.105
 29.070    842.000    837.636      4.364    535.849    812.393    535.849    542.642    554.305
 29.170    777.647    794.688    -17.041    535.419    768.681    535.419    542.401    554.459
 29.270    732.000    725.820      6.180    534.988    699.118    534.988    542.140    554.554
 29.370    646.000    662.949    -16.949    534.556    635.641    534.556    541.857    554.577
 29.470    599.000    620.122    -21.122    534.124    592.317    534.124    541.547    554.515
 29.570    630.000    596.325     33.675    533.692    568.148    533.692    541.208    554.359
 29.670    655.000    584.644     70.356    533.259    556.232    533.259    540.836    554.100
 29.770    630.444    578.896     51.548    532.826    550.390    532.826    540.430    553.734
 29.870    583.000    575.614      7.386    532.393    547.159    532.393    539.989    553.257
 29.970    588.000    573.341     14.659    531.960    545.079    531.960    539.514    552.671
 30.070    579.000    571.567      7.433    531.526    543.635    531.526    539.007    551.982
 30.170    526.602    570.145    -43.543    531.092    542.668    531.092    538.469    551.196
 30.270    550.569    569.107    -18.538    530.658    542.198    530.658    537.905    550.324
 30.370    598.000    568.702     29.298    530.224    542.458    530.224    537.317    549.379
 30.470    592.110    569.561     22.549    529.791    544.061    529.791    536.710    548.371
 30.570    624.054    572.840     51.214    529.357    548.146    529.357    536.088    547.316
 30.670    596.000    580.016     15.984    528.923    556.171    528.923    535.455    546.225
 30.770    594.430    591.952      2.478    528.489    568.984    528.489    534.814    545.111
 30.870    620.000    607.272     12.728    528.055    585.197    528.055    534.170    543.984
 30.970    640.000    620.819     19.181    527.621    599.644    527.621    533.526    542.854
 31.070    635.000    624.613     10.387    527.188    604.338    527.188    532.883    541.729
 31.170    643.633    614.851     28.782    526.755    595.469    526.755    532.243    540.616
 31.270    606.000    597.201      8.799    526.322    578.693    526.322    531.610    539.520
 31.370    596.000    579.574     16.426    525.889    561.911    525.889    530.983    538.444
 31.470    515.638    566.106    -50.468    525.456    549.255    525.456    530.364    537.393
 31.570    590.000    557.393     32.607    525.024    541.318    525.024    529.753    536.368
 31.670    595.547    552.247     43.300    524.592    536.911    524.592    529.152    535.369
 31.770    552.000    549.196      2.804    524.161    534.561    524.161    528.559    534.399
 31.870    576.000    547.205     28.795    523.730    533.234    523.730    527.975    533.456
 31.970    527.111    545.739    -18.629    523.300    532.397    523.300    527.401    532.541
 32.070    558.000    544.575     13.425    522.869    531.827    522.869    526.835    531.653
 32.170    535.334    543.627     -8.293    522.440    531.438    522.440    526.278    530.791
 32.270    555.000    542.863     12.137    522.011    531.201    522.011    525.730    529.955
 32.370    549.000    542.275      6.725    521.583    531.109    521.583    525.189    529.142
 32.470    529.000    541.864    -12.864    521.155    531.165    521.155    524.657    528.353
 32.570    537.000    541.645     -4.645    520.727    531.384    520.727    524.131    527.586
 32.670    572.419    541.642     30.777    520.301    531.792    520.301    523.613    526.839
 32.770    541.000    541.891     -0.891    519.875    532.428    519.875    523.101    526.112
 32.870    520.831    542.448    -21.617    519.450    533.348    519.450    522.596    525.404
 32.970    579.000    543.394     35.606    519.025    534.635    519.025    522.097    524.713
 33.070    560.000    544.852     15.148    518.602    536.413    518.602    521.604    524.039
 33.170    501.766    547.034    -45.268    518.179    538.895    518.179    521.116    523.380
 33.270    540.000    550.361    -10.361    517.757    542.504    517.757    520.634    522.735
 33.370    594.235    555.793     38.442    517.336    548.201    517.336    520.157    522.105
 33.470    552.000    565.504    -13.504    516.915    558.160    516.915    519.684    521.487
 33.570    573.000    583.862    -10.862    516.496    576.750    516.496    519.216    520.882
 33.670    614.293    617.973     -3.681    516.077    611.077    516.077    518.752    520.288
 33.770    666.000    676.176    -10.176    515.660    669.479    515.660    518.292    519.704
 33.870    756.000    763.052     -7.052    515.243    756.539    515.243    517.837    519.131
 33.970    870.170    871.358     -1.188    514.828    865.019    514.828    517.385    518.568
 34.070    949.000    973.183    -24.183    514.413    967.013    514.413    516.937    518.013
 34.170    998.645   1020.666    -22.021    514.000   1014.667    514.000    516.493    517.467
 34.270    955.000    982.905    -27.905    513.587    977.080    513.587    516.051    516.930
 34.370    900.000    884.903     15.097    513.176    879.241    513.176    515.614    516.399
 34.470    782.994    774.513      8.482    512.766    768.996    512.766    515.179    515.877
 34.570    689.525    682.727      6.798    512.357    677.341    512.357    514.748    515.361
 34.670    580.164    619.316    -39.152    511.949    614.050    511.949    514.319    514.851
 34.770    556.307    580.937    -24.630    511.542    575.784    511.542    513.894    514.348
 34.870    596.000    559.481     36.519    511.137    554.434    511.137    513.471    513.851
 34.970    550.000    547.547      2.453    510.733    542.602    510.733    513.051    513.360
 35.070    504.870    540.387    -35.517    510.330    535.539    510.330    512.634    512.874
 35.170    546.939    535.561     11.378    509.928    530.805    509.928    512.220    512.393
 35.270    499.000    531.971    -32.971    509.528    527.301    509.528    511.808    511.918
 35.370    543.000    529.130     13.870    509.129    524.542    509.129    511.399    511.447
 35.470    511.854    526.803    -14.949    508.731    522.292    508.731    510.992    510.981
 35.570    510.000    524.851    -14.851    508.335    520.413    508.335    510.588    510.519
 35.670    544.553    523.184     21.369    507.940    518.815    507.940    510.187    510.062
 35.770    563.738    521.739     41.999    507.546    517.436    507.546    509.788    509.609
 35.870    484.000    520.469    -36.469    507.154    516.227    507.154    509.391    509.160
 35.970    566.071    519.341     46.730    506.763    515.156    506.763    508.997    508.715
 36.070    544.000    518.327     25.673    506.374    514.198    506.374    508.605    508.273
 36.170    535.000    517.410     17.590    505.986    513.332    505.986    508.216    507.836
 36.270    531.000    516.574     14.426    505.600    512.544    505.600    507.829    507.402
 36.370    548.235    515.808     32.427    505.216    511.825    505.216    507.445    506.971
 36.470    468.236    515.106    -46.870    504.832    511.165    504.832    507.062    506.544
 36.570    501.000    514.461    -13.461    504.451    510.561    504.451    506.683    506.120
 36.670    517.000    513.872      3.128    504.071    510.010    504.071    506.305    505.700
 36.770    514.000    513.339      0.661    503.692    509.513    503.692    505.930    505.283
 36.870    453.000    512.872    -59.872    503.316    509.079    503.316    505.557    504.869
 36.970    486.000    512.492    -26.492    502.941    508.730    502.941    505.187    504.458
 37.070    481.842    512.249    -30.407    502.567    508.516    502.567    504.819    504.050
 37.170    514.621    512.239      2.382    502.195    508.532    502.195    504.453    503.645
 37.270    506.000    512.614     -6.614    501.825    508.933    501.825    504.090    503.243
 37.370    509.000    513.568     -4.568    501.457    509.910    501.457    503.729    502.844
 37.470    557.339    515.257     42.082    501.090    511.620    501.090    503.371    502.448
 37.570    527.000    517.665      9.335    500.725    514.049    500.725    503.015    502.055
 37.670    553.000    520.419     32.581    500.362    516.821    500.362    502.661    501.665
 37.770    553.000    522.642     30.358    500.000    519.062    500.000    502.310    501.277
 37.870    562.000    523.226     38.774    499.641    519.662    499.641    501.961    500.892
 37.970    557.000    521.753     35.247    499.283    518.204    499.283    501.614    500.510
 38.070    520.000    518.936      1.064    498.927    515.399    498.927    501.270    500.131
 38.170    548.826    515.718     33.108    498.573    512.192    498.573    500.929    499.754
 38.270    552.000    512.664     39.336    498.220    509.145    498.220    500.590    499.380
 38.370    534.000    510.083     23.917    497.870    506.569    497.870    500.253    499.008
 38.470    473.000    508.094    -35.094    497.521    504.583    497.521    499.919    498.640
 38.570    518.000    506.639     11.361    497.174    503.131    497.174    499.588    498.274
 38.670    478.386    505.588    -27.202    496.829    502.081    496.829    499.259    497.910
 38.770    521.829    504.807     17.022    496.486    501.301    496.486    498.932    497.549
 38.870    475.713    504.194    -28.481    496.145    500.688    496.145    498.608    497.191
 38.970    483.915    503.683    -19.768    495.806    500.175    495.806    498.287    496.835
 39.070    486.931    503.232    -16.301    495.469    499.721    495.469    497.968    496.481
 39.170    541.105    502.820     38.285    495.134    499.305    495.134    497.652    496.131
 39.270    468.418    502.436    -34.018    494.800    498.916    494.800    497.339    495.783
 39.370    461.911    502.074    -40.162    494.469    498.548    494.469    497.028    495.437
 39.470    453.000    501.730    -48.730    494.140    498.197    494.140    496.720    495.094
 39.570    517.179    501.402     15.777    493.813    497.860    493.813    496.415    494.753
 39.670    504.000    501.088      2.912    493.487    497.537    493.487    496.112    494.415
 39.770    493.000    500.788     -7.788    493.164    497.225    493.164    495.812    494.080
 39.870    473.301    500.496    -27.195    492.843    496.921    492.843    495.515    493.747
 39.970    497.000    500.222     -3.222    492.524    496.634    492.524    495.221    493.416
 40.070    533.000    499.962     33.038    492.207    496.359    492.207    494.930    493.088
 40.170    437.000    499.715    -62.715    491.892    496.096    491.892    494.641    492.763
 40.270    496.000    499.482     -3.482    491.579    495.845    491.579    494.356    492.440
 40.370    519.000    499.264     19.736    491.268    495.609    491.268    494.073    492.119
 40.470    505.000    499.061      5.939    490.959    495.386    490.959    493.794    491.801
 40.570    481.000    498.876    -17.876    490.653    495.180    490.653    493.517    491.486
 40.670    496.000    498.711     -2.711    490.348    494.992    490.348    493.243    491.173
 40.770    491.000    498.566     -7.566    490.046    494.824    490.046    492.973    490.862
 40.870    489.384    498.447     -9.063    489.746    494.680    489.746    492.705    490.555
 40.970    508.000    498.356      9.644    489.448    494.563    489.448    492.441    490.249
 41.070    530.226    498.299     31.927    489.152    494.478    489.152    492.180    489.946
 41.170    542.000    498.282     43.718    488.858    494.432    488.858    491.922    489.646
 41.270    488.000    498.314    -10.314    488.566    494.433    488.566    491.668    489.348
 41.370    471.000    498.405    -27.405    488.277    494.492    488.277    491.416    489.053
 41.470    511.000    498.572     12.428    487.990    494.626    487.990    491.168    488.760
 41.570    478.000    498.838    -20.838    487.705    494.856    487.705    490.924    488.470
 41.670    476.760    499.238    -22.478    487.422    495.220    487.422    490.683    488.182
 41.770    477.000    499.842    -22.842    487.141    495.785    487.141    490.445    487.897
 41.870    545.000    500.785     44.215    486.863    496.689    486.863    490.211    487.614
 41.970    482.000    502.345    -20.345    486.587    498.207    486.587    489.981    487.334
 42.070    507.000    505.039      1.961    486.313    500.860    486.313    489.754    487.057
 42.170    505.000    509.726     -4.726    486.041    505.503    486.041    489.532    486.782
 42.270    544.819    517.572     27.248    485.772    513.304    485.772    489.313    486.510
 42.370    522.000    529.765     -7.765    485.504    525.454    485.504    489.097    486.240
 42.470    522.760    546.881    -24.121    485.240    542.527    485.240    488.886    485.973
 42.570    615.906    567.973     47.933    484.977    563.577    484.977    488.679    485.709
 42.670    593.846    589.568      4.278    484.716    585.128    484.716    488.476    485.447
 42.770    582.000    605.308    -23.308    484.458    600.821    484.458    488.277    485.187
 42.870    616.589    608.375      8.213    484.202    603.832    484.202    488.083    484.931
 42.970    553.000    597.033    -44.033    483.949    592.422    483.949    487.893    484.677
 43.070    604.000    576.594     27.406    483.697    571.906    483.697    487.707    484.426
 43.170    488.000    554.314    -66.314    483.448    549.545    483.448    487.526    484.177
 43.270    514.000    534.968    -20.968    483.201    530.117    483.201    487.350    483.931
 43.370    523.000    520.432      2.568    482.957    515.498    482.957    487.179    483.688
 43.470    528.000    510.629     17.371    482.715    505.611    482.715    487.012    483.447
 43.570    458.769    504.518    -45.749    482.475    499.416    482.475    486.851    483.209
 43.670    489.000    500.860    -11.860    482.237    495.671    482.237    486.695    482.974
 43.770    468.416    498.647    -30.231    482.002    493.369    482.002    486.545    482.742
 43.870    457.572    497.228    -39.656    481.769    491.858    481.769    486.400    482.513
 43.970    476.000    496.241    -20.241    481.538    490.775    481.538    486.261    482.286
 44.070    516.000    495.504     20.496    481.310    489.938    481.310    486.128    482.062
 44.170    525.000    494.930     30.070    481.084    489.259    481.084    486.001    481.841
 44.270    451.486    494.471    -42.985    480.860    488.691    480.860    485.880    481.623
 44.370    532.269    494.103     38.166    480.639    488.209    480.639    485.766    481.408
 44.470    505.000    493.807     11.193    480.420    487.794    480.420    485.659    481.195
 44.570    536.000    493.571     42.429    480.203    487.434    480.203    485.560    480.986
 44.670    445.000    493.387    -48.387    479.989    487.119    479.989    485.467    480.780
 44.770    503.000    493.248      9.752    479.777    486.844    479.777    485.383    480.576
 44.870    494.000    493.150      0.850    479.567    486.602    479.567    485.307    480.376
 44.970    476.755    493.088    -16.333    479.359    486.391    479.359    485.239    480.179
 45.070    487.124    493.061     -5.936    479.154    486.206    479.154    485.180    479.985
 45.170    467.000    493.067    -26.067    478.952    486.047    478.952    485.130    479.794
 45.270    454.113    493.105    -38.991    478.751    485.911    478.751    485.090    479.607
 45.370    496.000    493.174      2.826    478.553    485.799    478.553    485.060    479.423
 45.470    484.000    493.276     -9.276    478.357    485.708    478.357    485.042    479.242
 45.570    502.888    493.410      9.478    478.164    485.640    478.164    485.034    479.065
 45.670    515.032    493.578     21.454    477.973    485.595    477.973    485.038    478.891
 45.770    534.000    493.781     40.219    477.784    485.574    477.784    485.055    478.721
 45.870    506.235    494.021     12.214    477.598    485.578    477.598    485.085    478.554
 45.970    475.831    494.302    -18.471    477.413    485.609    477.413    485.129    478.392
 46.070    485.000    494.626     -9.626    477.232    485.669    477.232    485.188    478.233
 46.170    487.000    494.998     -7.998    477.052    485.762    477.052    485.263    478.078
 46.270    489.553    495.422     -5.870    476.875    485.892    476.875    485.354    477.927
 46.370    470.437    495.906    -25.469    476.700    486.064    476.700    485.463    477.781
 46.470    479.000    496.457    -17.457    476.528    486.284    476.528    485.590    477.639
 46.570    501.000    497.086      3.914    476.358    486.563    476.358    485.737    477.501
 46.670    500.000    497.806      2.194    476.190    486.913    476.190    485.905    477.368
 46.770    487.000    498.640    -11.640    476.024    487.353    476.024    486.095    477.240
 46.870    465.000    499.622    -34.622    475.861    487.919    475.861    486.308    477.117
 46.970    510.000    500.820      9.180    475.700    488.675    475.700    486.546    476.999
 47.070    558.000    502.359     55.641    475.542    489.745    475.542    486.810    476.887
 47.170    534.505    504.468     30.038    475.386    491.356    475.386    487.101    476.780
 47.270    507.521    507.527     -0.006    475.232    493.887    475.232    487.421    476.678
 47.370    534.000    512.083     21.917    475.080    497.883    475.080    487.771    476.583
 47.470    508.000    518.781    -10.781    474.931    503.985    474.931    488.153    476.494
 47.570    552.000    528.158     23.842    474.784    512.730    474.784    488.568    476.411
 47.670    533.000    540.309     -7.309    474.639    524.212    474.639    489.016    476.334
 47.770    536.000    554.471    -18.471    474.496    537.667    474.496    489.499    476.264
 47.870    584.000    568.613     15.387    474.356    551.064    474.356    490.018    476.201
 47.970    593.574    579.362     14.211    474.218    561.035    474.218    490.573    476.144
 48.070    631.665    583.198     48.467    474.083    564.059    474.083    491.162    476.095
 48.170    553.201    579.057    -25.855    473.949    559.075    473.949    491.787    476.052
 48.270    586.000    569.432     16.568    473.818    548.576    473.818    492.444    476.016
 48.370    533.000    558.154    -25.154    473.690    536.392    473.690    493.131    475.986
 48.470    551.000    548.096      2.904    473.563    525.400    473.563    493.845    475.961
 48.570    526.000    540.704    -14.704    473.439    517.051    473.439    494.579    475.942
 48.670    487.000    536.336    -49.336    473.317    511.710    473.317    495.327    475.927
 48.770    579.433    534.702     44.732    473.197    509.098    473.197    496.081    475.915
 48.870    499.554    535.257    -35.704    473.080    508.682    473.080    496.829    475.905
 48.970    476.000    537.491    -61.491    472.964    509.967    472.964    497.560    475.895
 49.070    517.000    541.112    -24.112    472.851    512.675    472.851    498.259    475.882
 49.170    519.019    546.175    -27.156    472.740    516.881    472.740    498.911    475.866
 49.270    563.000    553.294      9.706    472.632    523.216    472.632    499.500    475.843
 49.370    587.000    564.270     22.730    472.525    533.498    472.525    500.010    475.811
 49.470    540.130    583.361    -43.231    472.421    552.004    472.421    500.425    475.767
 49.570    650.795    619.301     31.494    472.319    587.478    472.319    500.732    475.711
 49.670    724.000    687.268     36.732    472.220    655.110    472.220    500.919    475.640
 49.770    749.846    808.633    -58.787    472.122    776.276    472.122    500.981    475.553
 49.870   1012.000   1005.323      6.677    472.027    972.914    472.027    500.914    475.450
 49.970   1260.000   1287.255    -27.255    471.933   1254.946    471.933    500.721    475.331
 50.070   1591.000   1636.128    -45.128    471.842   1604.084    471.842    500.408    475.197
 50.170   2000.106   1993.880      6.226    471.753   1962.266    471.753    499.986    475.050
 50.270   2242.874   2266.087    -23.213    471.667   2235.058    471.667    499.468    474.892
 50.370   2266.178   2354.233    -88.055    471.582   2323.901    471.582    498.870    474.724
 50.470   2208.144   2219.979    -11.835    471.500   2190.394    471.500    498.207    474.549
 50.570   1940.000   1920.274     19.726    471.419   1891.444    471.419    497.497    474.369
 50.670   1521.000   1559.169    -38.169    471.341   1531.091    471.341    496.755    474.188
 50.770   1177.000   1225.580    -48.580    471.265   1198.255    471.265    495.996    474.006
 50.870    979.072    968.622     10.449    471.191    942.055    471.191    495.232    473.825
 50.970    742.000    798.736    -56.736    471.120    772.930    471.120    494.474    473.647
 51.070    660.607    700.953    -40.346    471.050    675.905    471.050    493.731    473.473
 51.170    648.000    650.785     -2.785    470.982    626.482    470.982    493.011    473.304
 51.270    590.353    625.583    -35.230    470.917    602.000    470.917    492.319    473.140
 51.370    642.000    609.778     32.222    470.853    586.881    470.853    491.660    472.982
 51.470    584.000    595.768    -11.768    470.792    573.518    470.792    491.036    472.831
 51.570    576.540    581.816     -5.277    470.732    560.173    470.732    490.451    472.686
 51.670    552.000    568.723    -16.723    470.675    547.644    470.675    489.904    472.548
 51.770    594.866    557.549     37.317    470.620    536.993    470.620    489.398    472.417
 51.870    558.000    548.871      9.129    470.566    528.796    470.566    488.931    472.292
 51.970    580.000    542.758     37.242    470.515    523.124    470.515    488.503    472.173
 52.070    593.000    538.943     54.057    470.466    519.708    470.466    488.115    472.061
 52.170    544.000    537.033      6.967    470.419    518.159    470.419    487.765    471.955
 52.270    564.611    536.681     27.930    470.374    518.129    470.374    487.453    471.855
 52.370    516.281    537.709    -21.427    470.330    519.440    470.330    487.176    471.760
 52.470    588.000    540.191     47.809    470.289    522.169    470.289    486.936    471.671
 52.570    572.000    544.581     27.419    470.250    526.771    470.250    486.729    471.587
 52.670    521.908    551.906    -29.998    470.212    534.272    470.212    486.557    471.508
 52.770    561.000    564.002     -3.002    470.177    546.511    470.177    486.417    471.434
 52.870    570.000    583.766    -13.766    470.144    566.386    470.144    486.309    471.365
 52.970    611.000    615.133     -4.133    470.112    597.831    470.112    486.232    471.301
 53.070    685.253    662.509     22.745    470.082    645.255    470.082    486.185    471.240
 53.170    691.000    729.483    -38.483    470.055    712.247    470.055    486.169    471.184
 53.270    861.000    816.834     44.166    470.029    799.588    470.029    486.182    471.132
 53.370    959.525    920.198     39.327    470.005    902.915    470.005    486.224    471.084
 53.470   1076.000   1027.720     48.280    469.983   1010.373    469.983    486.295    471.040
 53.570   1172.003   1118.691     53.311    469.963   1101.255    469.963    486.395    470.999
 53.670   1205.546   1167.385     38.160    469.944   1149.832    469.944    486.525    470.962
 53.770   1125.738   1156.582    -30.844    469.928   1138.880    469.928    486.683    470.929
 53.870   1146.000   1090.827     55.173    469.913   1072.941    469.913    486.870    470.899
 53.970    996.000    992.340      3.660    469.900    974.236    469.900    487.088    470.872
 54.070    873.000    885.762    -12.762    469.889    867.404    469.889    487.335    470.848
 54.170    822.073    788.542     33.531    469.880    769.899    469.880    487.614    470.827
 54.270    747.611    709.601     38.011    469.872    690.641    469.872    487.924    470.810
 54.370    668.000    651.196     16.804    469.866    631.890    469.866    488.266    470.795
 54.470    602.000    611.304     -9.304    469.862    591.620    469.862    488.643    470.784
 54.570    613.921    585.876     28.045    469.860    565.781    469.860    489.054    470.775
 54.670    610.000    570.590     39.410    469.860    550.050    469.860    489.501    470.769
 54.770    600.338    561.873     38.465    469.861    540.852    469.861    489.986    470.766
 54.870    557.000    557.227     -0.227    469.864    535.686    469.864    490.511    470.765
 54.970    553.000    555.117     -2.117    469.868    533.017    469.868    491.077    470.768
 55.070    588.148    554.700     33.448    469.875    531.999    469.875    491.686    470.773
 55.170    586.334    555.561     30.772    469.883    532.214    469.883    492.340    470.780
 55.270    601.000    557.527     43.473    469.892    533.486    469.892    493.043    470.791
 55.370    566.000    560.567      5.433    469.904    535.782    469.904    493.795    470.804
 55.470    577.380    564.751     12.628    469.917    539.172    469.917    494.601    470.819
 55.570    523.760    570.270    -46.510    469.931    543.839    469.931    495.463    470.837
 55.670    633.000    577.503     55.497    469.947    550.163    469.947    496.385    470.858
 55.770    599.204    587.208     11.996    469.965    558.896    469.965    497.368    470.881
 55.870    623.232    600.863     22.369    469.985    571.513    469.985    498.418    470.907
 55.970    628.000    621.242      6.758    470.006    590.782    470.006    499.538    470.936
 56.070    642.000    653.187    -11.187    470.028    621.544    470.028    500.732    470.967
 56.170    713.000    704.364      8.636    470.052    671.458    470.052    502.003    471.001
 56.270    729.735    785.470    -55.734    470.078    751.218    470.078    503.357    471.037
 56.370    930.050    909.132     20.917    470.105    873.448    470.105    504.796    471.076
 56.470   1022.000   1086.849    -64.849    470.133   1049.645    470.133    506.326    471.118
 56.570   1298.641   1323.953    -25.312    470.164   1285.143    470.164    507.951    471.162
 56.670   1529.000   1613.575    -84.575    470.195   1573.075    470.195    509.675    471.209
 56.770   1857.000   1931.114    -74.114    470.228   1888.841    470.228    511.502    471.259
 56.870   2170.911   2230.815    -59.904    470.263   2186.686    470.263    513.435    471.312
 56.970   2454.000   2448.587      5.413    470.299   2402.512    470.299    515.478    471.367
 57.070   2463.000   2521.451    -58.451    470.336   2473.314    470.336    517.633    471.426
 57.170   2394.000   2424.886    -30.886    470.375   2374.544    470.375    519.901    471.487
 57.270   2197.000   2192.559      4.441    470.415   2139.858    470.415    522.282    471.551
 57.370   1836.000   1890.656    -54.656    470.457   1835.452    470.457    524.774    471.618
 57.470   1531.653   1581.194    -49.541    470.500   1523.361    470.500    527.374    471.688
 57.570   1261.000   1306.116    -45.116    470.544   1245.547    470.544    530.075    471.761
 57.670   1094.000   1086.518      7.482    470.590   1023.123    470.590    532.868    471.837
 57.770    968.126    926.791     41.335    470.637    860.501    470.637    535.740    471.916
 57.870    854.247    820.473     33.774    470.685    751.236    470.685    538.673    471.998
 57.970    756.000    756.366     -0.366    470.734    684.149    470.734    541.646    472.083
 58.070    782.000    723.432     58.568    470.785    648.229    470.785    544.631    472.171
 58.170    730.000    713.568     16.432    470.837    635.402    470.837    547.598    472.262
 58.270    716.000    722.286     -6.286    470.891    641.215    470.891    550.507    472.356
 58.370    729.017    747.915    -18.898    470.946    664.038    470.946    553.317    472.453
 58.470    757.000    790.068    -33.068    471.001    703.529    471.001    555.983    472.553
 58.570    804.487    847.947    -43.460    471.058    758.942    471.058    558.454    472.655
 58.670    891.000    918.866    -27.866    471.117    827.641    471.117    560.681    472.761
 58.770   1038.452    997.302     41.150    471.176    904.154    471.176    562.615    472.869
 58.870   1120.318   1075.277     45.040    471.237    980.550    471.237    564.210    472.980
 58.970   1074.000   1144.684    -70.684    471.299   1048.760    471.299    565.427    473.093
 59.070   1209.000   1199.326      9.674    471.362   1102.617    471.362    566.236    473.209
 59.170   1297.000   1234.076     62.924    471.426   1137.010    471.426    566.615    473.328
 59.270   1302.000   1244.442     57.558    471.491   1147.454    471.491    566.557    473.450
 59.370   1196.039   1230.440    -34.401    471.557   1133.955    471.557    566.066    473.575
 59.470   1253.405   1200.169     53.236    471.624   1104.594    471.624    565.159    473.703
 59.570   1238.730   1166.820     71.910    471.693   1072.529    471.693    563.861    473.834
 59.670   1161.191   1142.845     18.345    471.762   1050.179    471.762    562.212    473.968
 59.770   1136.533   1137.444     -0.910    471.833   1046.700    471.833    560.254    474.106
 59.870   1187.000   1157.300     29.700    471.904   1068.732    471.904    558.035    474.248
 59.970   1276.372   1206.464     69.908    471.977   1120.280    471.977    555.605    474.394
 60.070   1227.397   1283.185    -55.787    472.050   1199.547    472.050    553.014    474.544
 60.170   1350.000   1376.596    -26.596    472.124   1295.626    472.124    550.309    474.699
 60.270   1514.000   1466.172     47.828    472.200   1387.958    472.200    547.534    474.857
 60.370   1598.000   1524.938     73.062    472.276   1449.530    472.276    544.727    475.019
 60.470   1521.362   1528.326     -6.964    472.353   1455.742    472.353    541.922    475.185
 60.570   1435.000   1467.225    -32.225    472.431   1397.443    472.431    539.148    475.355
 60.670   1384.000   1353.735     30.265    472.510   1286.702    472.510    536.428    475.527
 60.770   1202.478   1212.428     -9.949    472.590   1148.062    472.590    533.780    475.702
 60.870   1057.000   1067.817    -10.817    472.671   1006.025    472.671    531.219    475.878
 60.970    882.396    937.953    -55.557    472.753    878.629    472.753    528.754    476.055
 61.070    813.591    833.147    -19.555    472.835    776.182    472.835    526.394    476.231
 61.170    740.000    757.022    -17.022    472.918    702.305    472.918    524.140    476.406
 61.270    737.000    708.727     28.273    473.002    656.150    473.002    521.997    476.579
 61.370    694.942    685.591      9.351    473.087    635.046    473.087    519.962    476.746
 61.470    738.705    685.359     53.346    473.173    636.742    473.173    518.036    476.908
 61.570    728.000    707.367     20.633    473.259    660.577    473.259    516.215    477.063
 61.670    711.000    752.410    -41.410    473.346    707.352    473.346    514.496    477.209
 61.770    812.000    821.466     -9.466    473.434    778.049    473.434    512.874    477.345
 61.870    901.000    913.705    -12.705    473.522    871.846    473.522    511.346    477.469
 61.970    950.000   1024.428    -74.428    473.612    984.051    473.612    509.907    477.582
 62.070   1078.383   1143.462    -65.080    473.701   1104.502    473.701    508.553    477.681
 62.170   1251.000   1254.480     -3.480    473.792   1216.879    473.792    507.278    477.768
 62.270   1242.000   1336.208    -94.208    473.883   1299.922    473.883    506.078    477.841
 62.370   1341.000   1368.015    -27.015    473.975   1333.001    473.975    504.950    477.901
 62.470   1312.000   1340.138    -28.138    474.067   1306.355    474.067    503.889    477.949
 62.570   1289.971   1260.109     29.862    474.160   1227.508    474.160    502.892    477.986
 62.670   1110.390   1147.532    -37.142    474.253   1116.057    474.253    501.955    478.013
 62.770    982.628   1023.875    -41.247    474.347    993.471    474.347    501.074    478.031
 62.870    863.000    906.084    -43.084    474.442    876.696    474.442    500.248    478.041
 62.970    801.000    804.857     -3.857    474.537    776.434    474.537    499.472    478.045
 63.070    730.000    724.964      5.036    474.632    697.458    474.632    498.745    478.045
 63.170    635.000    666.495    -31.495    474.728    639.862    474.728    498.064    478.041
 63.270    659.000    626.582     32.418    474.825    600.781    474.825    497.426    478.035
 63.370    621.000    601.143     19.857    474.922    576.135    474.922    496.830    478.029
 63.470    566.583    586.245    -19.661    475.019    561.990    475.019    496.273    478.023
 63.570    542.569    578.901    -36.332    475.117    555.364    475.117    495.753    478.017
 63.670    616.000    577.381     38.619    475.215    554.524    475.215    495.268    478.014
 63.770    595.317    581.187     14.131    475.314    558.975    475.314    494.817    478.014
 63.870    602.000    590.859     11.141    475.413    569.257    475.413    494.398    478.016
 63.970    617.000    607.672      9.328    475.512    586.645    475.512    494.010    478.022
 64.070    649.440    633.227     16.213    475.611    612.740    475.611    493.650    478.031
 64.170    698.266    668.915     29.351    475.711    648.935    475.711    493.317    478.044
 64.270    751.000    715.271     35.729    475.812    695.767    475.812    493.010    478.061
 64.370    785.000    771.280     13.720    475.912    752.223    475.912    492.728    478.082
 64.470    883.000    833.729     49.271    476.013    815.091    476.013    492.469    478.107
 64.570    865.000    896.728    -31.728    476.114    878.488    476.114    492.233    478.136
 64.670    931.000    951.833    -20.833    476.215    933.972    476.215    492.018    478.170
 64.770   1001.000    989.659     11.341    476.317    972.163    476.317    491.823    478.206
 64.870   1061.000   1003.268     57.732    476.418    986.122    476.418    491.648    478.247
 64.970   1027.000    991.173     35.827    476.520    974.364    476.520    491.491    478.291
 65.070    945.000    957.462    -12.462    476.622    940.971    476.622    491.352    478.339
 65.170    913.910    909.604      4.306    476.724    893.411    476.724    491.230    478.390
 65.270    888.266    855.817     32.450    476.827    839.899    476.827    491.124    478.445
 65.370    796.000    802.893     -6.893    476.929    787.229    476.929    491.034    478.502
 65.470    752.636    755.031     -2.395    477.032    739.598    477.032    490.959    478.563
 65.570    762.815    713.841     48.974    477.134    698.617    477.134    490.899    478.626
 65.670    702.000    679.235     22.765    477.237    664.198    477.237    490.853    478.692
 65.770    668.820    650.554     18.266    477.340    635.684    477.340    490.822    478.760
 65.870    614.000    627.196    -13.196    477.442    612.476    477.442    490.803    478.831
 65.970    566.000    608.655    -42.655    477.545    594.067    477.545    490.798    478.904
 66.070    570.625    594.398    -23.773    477.648    579.928    477.648    490.805    478.979
 66.170    569.000    583.870    -14.870    477.751    569.502    477.751    490.826    479.057
 66.270    566.927    576.553     -9.626    477.853    562.276    477.853    490.859    479.136
 66.370    578.000    572.016      5.984    477.956    557.815    477.956    490.904    479.217
 66.470    611.275    569.923     41.352    478.058    555.786    478.058    490.961    479.300
 66.570    522.000    570.053    -48.053    478.161    555.967    478.161    491.030    479.385
 66.670    528.133    572.353    -44.220    478.263    558.304    478.263    491.112    479.471
 66.770    566.797    577.038    -10.242    478.366    563.012    478.366    491.205    479.559
 66.870    571.000    584.754    -13.754    478.468    570.737    478.468    491.311    479.648
 66.970    583.000    596.790    -13.790    478.570    582.769    478.570    491.429    479.739
 67.070    614.000    615.355     -1.355    478.671    601.315    478.671    491.559    479.831
 67.170    618.000    643.843    -25.843    478.773    629.769    478.773    491.702    479.924
 67.270    664.000    686.995    -22.995    478.874    672.874    478.874    491.858    480.019
 67.370    798.256    750.772     47.484    478.976    736.589    478.976    492.027    480.115
 67.470    833.000    841.753     -8.753    479.076    827.493    479.076    492.209    480.212
 67.570    911.000    965.921    -54.921    479.177    951.574    479.177    492.405    480.310
 67.670   1193.651   1126.888     66.762    479.278   1112.443    479.278    492.615    480.409
 67.770   1376.252   1323.782     52.470    479.378   1309.231    479.378    492.839    480.510
 67.870   1453.000   1549.214    -96.214    479.477   1534.551    479.477    493.079    480.612
 67.970   1825.065   1787.697     37.369    479.577   1772.915    479.577    493.335    480.714
 68.070   2043.845   2014.910     28.935    479.676   2000.004    479.676    493.607    480.818
 68.170   2258.000   2198.979     59.021    479.775   2183.939    479.775    493.897    480.923
 68.270   2275.000   2306.345    -31.345    479.873   2291.152    479.873    494.206    481.030
 68.370   2340.000   2313.556     26.444    479.971   2298.178    479.971    494.533    481.137
 68.470   2310.120   2218.958     91.162    480.069   2203.348    480.069    494.881    481.246
 68.570   2015.000   2043.685    -28.685    480.166   2027.789    480.166    495.250    481.355
 68.670   1841.000   1820.831     20.169    480.263   1804.599    480.263    495.643    481.467
 68.770   1628.000   1583.014     44.986    480.359   1566.402    480.359    496.060    481.579
 68.870   1283.530   1355.676    -72.147    480.455   1338.648    480.455    496.503    481.693
 68.970   1183.000   1155.419     27.581    480.550   1137.942    480.550    496.973    481.809
 69.070    994.000    990.585      3.415    480.645    972.633    480.645    497.474    481.926
 69.170    906.868    862.769     44.099    480.740    844.314    480.740    498.006    482.044
 69.270    808.000    768.802     39.198    480.833    749.816    480.833    498.573    482.165
 69.370    751.000    702.882     48.118    480.927    683.332    480.927    499.176    482.287
 69.470    675.000    658.406     16.594    481.019    638.258    481.019    499.818    482.412
 69.570    630.940    629.264      1.676    481.111    608.478    481.111    500.502    482.538
 69.670    602.176    610.508     -8.332    481.203    589.038    481.203    501.232    482.667
 69.770    599.000    598.517      0.483    481.294    576.314    481.294    502.011    482.798
 69.870    615.000    590.859     24.141    481.384    567.868    481.384    502.842    482.932
 69.970    579.000    586.010     -7.010    481.473    562.172    481.473    503.730    483.069
 70.070    536.364    583.074    -46.710    481.562    558.325    481.562    504.677    483.209
 70.170    573.000    581.556     -8.556    481.651    555.827    481.651    505.690    483.351
 70.270    544.353    581.208    -36.855    481.738    554.425    481.738    506.772    483.498
 70.370    606.000    581.940     24.060    481.825    554.024    481.825    507.928    483.647
 70.470    616.000    583.789     32.211    481.911    554.655    481.911    509.162    483.801
 70.570    596.975    586.925     10.050    481.996    556.484    481.996    510.482    483.958
 70.670    607.000    591.710     15.290    482.081    559.867    482.081    511.890    484.120
 70.770    597.244    598.784     -1.540    482.165    565.438    482.165    513.393    484.286
 70.870    573.000    609.200    -36.200    482.248    574.244    482.248    514.996    484.456
 70.970    633.953    624.570      9.383    482.330    587.893    482.330    516.703    484.631
 71.070    602.000    647.202    -45.202    482.411    608.685    482.411    518.520    484.812
 71.170    699.038    680.143     18.895    482.492    639.666    482.492    520.449    484.997
 71.270    687.508    727.064    -39.557    482.572    684.501    482.572    522.495    485.187
 71.370    755.000    791.877    -36.877    482.651    747.099    482.651    524.659    485.382
 71.470    815.000    878.048    -63.048    482.728    830.928    482.728    526.941    485.581
 71.570    910.000    987.651    -77.651    482.806    938.063    482.806    529.340    485.786
 71.670   1101.000   1120.267    -19.267    482.882   1068.090    482.882    531.852    485.994
 71.770   1246.730   1271.934    -25.204    482.957   1217.060    482.957    534.467    486.206
 71.870   1442.000   1434.317      7.683    483.031   1376.651    483.031    537.176    486.420
 71.970   1642.000   1594.205     47.795    483.104   1533.676    483.104    539.960    486.636
 72.070   1729.000   1733.689     -4.689    483.177   1670.251    483.177    542.796    486.853
 72.170   1767.000   1832.130    -65.130    483.248   1765.773    483.248    545.656    487.068
 72.270   1810.000   1871.489    -61.489    483.318   1802.240    483.318    548.503    487.280
 72.370   1890.000   1843.916     46.084    483.388   1771.845    483.388    551.292    487.486
 72.470   1754.835   1755.869     -1.034    483.456   1681.091    483.456    553.972    487.685
 72.570   1563.673   1624.590    -60.917    483.523   1547.275    483.523    556.486    487.874
 72.670   1440.706   1470.597    -29.891    483.589   1390.976    483.589    558.772    488.049
 72.770   1344.000   1312.069     31.931    483.654   1230.438    483.654    560.766    488.208
 72.870   1126.250   1162.603    -36.354    483.718   1079.324    483.718    562.408    488.350
 72.970   1016.000   1030.920    -14.920    483.781    946.412    483.781    563.642    488.471
 73.070    970.464    921.317     49.147    483.843    836.046    483.843    564.428    488.570
 73.170    839.000    834.486      4.514    483.903    748.948    483.903    564.735    488.646
 73.270    755.349    768.556    -13.207    483.963    683.260    483.963    564.554    488.699
 73.370    739.000    720.190     18.810    484.021    635.636    484.021    563.894    488.729
 73.470    664.450    685.553    -21.103    484.078    602.215    484.078    562.780    488.736
 73.570    610.000    661.019    -51.019    484.134    579.328    484.134    561.256    488.723
 73.670    633.000    643.574    -10.574    484.188    563.905    484.188    559.374    488.692
 73.770    619.354    630.955    -11.601    484.242    553.619    484.242    557.194    488.645
 73.870    625.447    621.603      3.844    484.294    546.847    484.294    554.780    488.584
 73.970    558.000    614.528    -56.528    484.345    542.532    484.345    552.194    488.512
 74.070    547.000    609.133    -62.133    484.395    540.018    484.395    549.494    488.433
 74.170    620.688    605.063     15.625    484.443    538.897    484.443    546.731    488.348
 74.270    630.000    602.080     27.920    484.490    538.881    484.490    543.951    488.259
 74.370    581.000    599.971    -18.971    484.536    539.719    484.536    541.191    488.168
 74.470    640.000    598.492     41.508    484.580    541.135    484.580    538.480    488.078
 74.570    574.000    597.334    -23.334    484.624    542.794    484.624    535.842    487.989
 74.670    647.000    596.110     50.890    484.665    544.292    484.665    533.295    487.902
 74.770    606.000    594.393     11.607    484.706    545.187    484.706    530.850    487.819
 74.870    662.000    591.812     70.188    484.745    545.100    484.745    528.517    487.739
 74.970    649.000    588.202     60.798    484.782    543.858    484.782    526.298    487.664
 75.070    619.037    583.689     35.348    484.819    541.585    484.819    524.197    487.593
 75.170    692.000    578.649    113.351    484.853    538.660    484.853    522.213    487.527
 75.270    601.000    573.586     27.414    484.887    535.588    484.887    520.344    487.466
 75.370    611.000    569.024     41.976    484.919    532.896    484.919    518.588    487.410
 75.470    559.838    565.472     -5.634    484.949    531.098    484.949    516.940    487.358
 75.570    540.220    563.417    -23.197    484.978    530.686    484.978    515.395    487.311
 75.670    577.000    563.331     13.669    485.006    532.137    485.006    513.949    487.268
 75.770    582.000    565.665     16.335    485.032    535.908    485.032    512.597    487.230
 75.870    582.874    570.820     12.054    485.057    542.403    485.057    511.332    487.195
 75.970    630.951    579.093     51.857    485.080    551.928    485.080    510.151    487.165
 76.070    592.000    590.608      1.392    485.101    564.609    485.101    509.047    487.138
 76.170    633.000    605.222     27.778    485.121    580.310    485.121    508.017    487.114
 76.270    657.624    622.446     35.177    485.139    598.547    485.139    507.054    487.094
 76.370    615.000    641.355    -26.355    485.156    618.399    485.156    506.154    487.077
 76.470    638.969    660.548    -21.579    485.172    638.472    485.172    505.313    487.062
 76.570    706.215    678.150     28.065    485.185    656.895    485.185    504.526    487.051
 76.670    685.000    691.936     -6.936    485.197    671.447    485.197    503.790    487.042
 76.770    666.000    699.709    -33.709    485.208    679.938    485.208    503.101    487.035
 76.870    737.964    699.944     38.020    485.217    680.844    485.217    502.455    487.031
 76.970    683.000    692.404     -9.404    485.224    673.931    485.224    501.849    487.030
 77.070    667.000    678.243    -11.243    485.229    660.357    485.229    501.280    487.030
 77.170    701.408    659.514     41.895    485.233    642.174    485.233    500.745    487.032
 77.270    637.000    638.464     -1.464    485.236    621.634    485.236    500.241    487.037
 77.370    614.119    617.064     -2.946    485.236    600.709    485.236    499.767    487.043
 77.470    597.961    596.815      1.146    485.235    580.902    485.235    499.320    487.051
 77.570    587.000    578.715      8.285    485.232    563.213    485.232    498.898    487.061
 77.670    528.881    563.305    -34.425    485.228    548.184    485.228    498.498    487.073
 77.770    549.075    550.738     -1.662    485.221    535.971    485.221    498.120    487.086
 77.870    552.000    540.873     11.127    485.213    526.434    485.213    497.762    487.101
 77.970    562.000    533.381     28.619    485.204    519.247    485.204    497.421    487.118
 78.070    546.187    527.842     18.345    485.192    513.992    485.192    497.098    487.137
 78.170    487.000    523.827    -36.827    485.179    510.237    485.179    496.790    487.158
 78.270    536.000    520.945     15.055    485.164    507.597    485.164    496.496    487.180
 78.370    523.000    518.877      4.123    485.147    505.752    485.147    496.216    487.203
 78.470    557.488    517.380     40.108    485.128    504.461    485.128    495.948    487.229
 78.570    551.000    516.281     34.719    485.108    503.551    485.108    495.691    487.256
 78.670    520.798    515.465      5.333    485.085    502.907    485.085    495.446    487.284
 78.770    548.000    514.860     33.140    485.061    502.460    485.061    495.210    487.314
 78.870    540.672    514.426     26.246    485.035    502.170    485.035    494.983    487.346
 78.970    498.343    514.147    -15.804    485.008    502.021    485.008    494.764    487.378
 79.070    566.000    514.020     51.980    484.978    502.012    484.978    494.554    487.412
 79.170    514.000    514.057     -0.057    484.947    502.154    484.947    494.351    487.446
 79.270    531.602    514.277     17.325    484.913    502.468    484.913    494.155    487.482
 79.370    557.080    514.708     42.372    484.878    502.983    484.878    493.965    487.517
 79.470    490.000    515.385    -25.385    484.841    503.735    484.841    493.781    487.552
 79.570    484.003    516.355    -32.352    484.802    504.771    484.802    493.602    487.586
 79.670    509.000    517.674     -8.674    484.761    506.148    484.761    493.428    487.619
 79.770    512.000    519.416     -7.416    484.718    507.942    484.718    493.259    487.651
 79.870    500.000    521.682    -21.682    484.673    510.254    484.673    493.094    487.680
 79.970    548.804    524.603     24.201    484.626    513.217    484.626    492.933    487.705
 80.070    532.000    528.349      3.651    484.578    517.002    484.578    492.775    487.726
 80.170    540.716    533.127      7.589    484.527    521.818    484.527    492.620    487.742
 80.270    536.000    539.188     -3.188    484.474    527.916    484.474    492.469    487.751
 80.370    542.000    546.822     -4.822    484.420    535.589    484.420    492.319    487.753
 80.470    522.556    556.338    -33.782    484.363    545.146    484.363    492.172    487.748
 80.570    578.126    568.012     10.114    484.305    556.866    484.305    492.027    487.732
 80.670    580.000    582.117     -2.117    484.244    571.022    484.244    491.884    487.707
 80.770    603.725    598.631      5.094    484.182    587.593    484.182    491.742    487.671
 80.870    562.000    617.292    -55.292    484.117    606.318    484.117    491.602    487.623
 80.970    622.447    637.524    -15.077    484.051    626.622    484.051    491.462    487.564
 81.070    636.000    658.446    -22.446    483.982    647.623    483.982    491.324    487.492
 81.170    703.000    678.940     24.060    483.912    668.205    483.912    491.186    487.408
 81.270    730.078    697.809     32.269    483.839    687.168    483.839    491.049    487.312
 81.370    762.000    713.934     48.066    483.765    703.396    483.765    490.912    487.204
 81.470    679.000    726.399    -47.399    483.688    715.969    483.688    490.776    487.084
 81.570    695.000    734.555    -39.555    483.609    724.240    483.609    490.640    486.955
 81.670    698.000    738.074    -40.074    483.529    727.878    483.529    490.505    486.815
 81.770    707.000    736.949    -29.949    483.446    726.876    483.446    490.369    486.666
 81.870    706.000    731.416    -25.416    483.361    721.467    483.361    490.234    486.510
 81.970    725.000    721.885      3.115    483.274    712.063    483.274    490.100    486.346
 82.070    725.000    708.975     16.025    483.185    699.280    483.185    489.965    486.176
 82.170    715.000    693.540     21.460    483.094    683.971    483.094    489.831    486.002
 82.270    678.000    676.579      1.421    483.001    667.134    483.001    489.697    485.823
 82.370    631.764    659.024    -27.260    482.905    649.702    482.905    489.563    485.641
 82.470    594.254    641.583    -47.329    482.808    632.380    482.808    489.429    485.456
 82.570    641.000    624.713     16.287    482.709    615.627    482.709    489.295    485.269
 82.670    590.127    608.716    -18.590    482.607    599.743    482.607    489.161    485.081
 82.770    589.970    593.855     -3.886    482.503    584.992    482.503    489.028    484.892
 82.870    627.931    580.403     47.527    482.397    571.644    482.397    488.894    484.702
 82.970    600.000    568.627     31.373    482.289    559.968    482.289    488.761    484.512
 83.070    530.895    558.750    -27.855    482.179    550.187    482.179    488.627    484.322
 83.170    585.000    550.925     34.075    482.067    542.453    482.067    488.494    484.132
 83.270    543.000    545.226     -2.226    481.953    536.840    481.953    488.360    483.943
 83.370    537.000    541.644     -4.644    481.836    533.339    481.836    488.227    483.754
 83.470    539.500    540.080     -0.580    481.718    531.853    481.718    488.093    483.565
 83.570    533.000    540.345     -7.345    481.597    532.190    481.597    487.959    483.378
 83.670    571.846    542.154     29.693    481.474    534.067    481.474    487.825    483.190
 83.770    533.224    545.124    -11.900    481.349    537.101    481.349    487.691    483.003
 83.870    523.000    548.788    -25.788    481.221    540.825    481.221    487.556    482.817
 83.970    514.000    552.605    -38.605    481.092    544.698    481.092    487.422    482.631
 84.070    518.000    555.989    -37.989    480.961    548.135    480.961    487.287    482.445
 84.170    544.000    558.368    -14.368    480.827    550.565    480.827    487.152    482.260
 84.270    561.000    559.262      1.738    480.691    551.507    480.691    487.016    482.075
 84.370    559.000    558.394      0.606    480.553    550.685    480.553    486.881    481.890
 84.470    539.000    555.761    -16.761    480.413    548.095    480.413    486.745    481.705
 84.570    553.361    551.612      1.749    480.270    543.987    480.270    486.609    481.520
 84.670    582.975    546.359     36.615    480.126    538.771    480.126    486.472    481.335
 84.770    500.000    540.470    -40.470    479.979    532.915    479.979    486.335    481.150
 84.870    507.918    534.384    -26.466    479.830    526.858    479.830    486.198    480.964
 84.970    543.000    528.470     14.530    479.679    520.970    479.679    486.061    480.778
 85.070    475.000    523.010    -48.010    479.526    515.532    479.526    485.923    480.592
 85.170    538.000    518.192     19.808    479.370    510.731    479.370    485.785    480.405
 85.270    474.000    514.117    -40.117    479.212    506.669    479.212    485.646    480.217
 85.370    561.000    510.812     50.188    479.053    503.373    479.053    485.508    480.029
 85.470    501.857    508.248     -6.391    478.891    500.814    478.891    485.369    479.840
 85.570    507.000    506.360      0.640    478.726    498.928    478.726    485.230    479.650
 85.670    484.000    505.070    -21.070    478.560    497.636    478.560    485.090    479.459
 85.770    491.000    504.300    -13.300    478.392    496.860    478.392    484.951    479.267
 85.870    512.473    503.991      8.482    478.221    496.542    478.221    484.811    479.074
 85.970    482.000    504.107    -22.107    478.048    496.645    478.048    484.671    478.880
 86.070    500.063    504.647     -4.584    477.873    497.169    477.873    484.531    478.685
 86.170    527.000    505.642     21.358    477.696    498.144    477.696    484.391    478.489
 86.270    543.000    507.158     35.842    477.516    499.636    477.516    484.251    478.292
 86.370    538.870    509.291     29.579    477.334    501.742    477.334    484.111    478.093
 86.470    472.170    512.159    -39.989    477.151    504.578    477.151    483.971    477.893
 86.570    472.370    515.893    -43.523    476.965    508.277    476.965    483.832    477.691
 86.670    502.478    520.620    -18.142    476.776    512.965    476.776    483.692    477.489
 86.770    512.000    526.444    -14.444    476.586    518.744    476.586    483.553    477.284
 86.870    515.236    533.421    -18.185    476.394    525.673    476.394    483.414    477.079
 86.970    493.492    541.535    -48.043    476.199    533.735    476.199    483.275    476.871
 87.070    533.824    550.670    -16.846    476.002    542.813    476.002    483.137    476.663
 87.170    569.000    560.591      8.409    475.803    552.672    475.803    483.000    476.453
 87.270    555.830    570.923    -15.092    475.602    562.940    475.602    482.863    476.241
 87.370    632.000    581.151     50.849    475.399    573.102    475.399    482.727    476.027
 87.470    582.140    590.623     -8.484    475.193    582.506    475.193    482.591    475.813
 87.570    614.000    598.595     15.405    474.986    590.407    474.986    482.457    475.596
 87.670    661.000    604.322     56.678    474.776    596.064    474.776    482.324    475.378
 87.770    666.000    607.226     58.774    474.564    598.897    474.564    482.192    475.158
 87.870    658.467    607.058     51.409    474.350    598.658    474.350    482.061    474.937
 87.970    614.003    603.984     10.019    474.134    595.513    474.134    481.932    474.714
 88.070    565.000    598.526    -33.526    473.915    589.982    473.915    481.804    474.489
 88.170    641.559    591.415     50.144    473.695    582.794    473.695    481.679    474.262
 88.270    567.507    583.451    -15.944    473.472    574.749    473.472    481.555    474.034
 88.370    572.000    575.406     -3.406    473.247    566.620    473.247    481.433    473.805
 88.470    533.000    567.975    -34.974    473.021    559.097    473.021    481.313    473.573
 88.570    549.000    561.727    -12.727    472.792    552.754    472.792    481.196    473.340
 88.670    561.000    557.085      3.915    472.561    548.009    472.561    481.081    473.105
 88.770    564.889    554.301     10.588    472.328    545.117    472.328    480.969    472.869
 88.870    539.291    553.459    -14.168    472.092    544.160    472.092    480.860    472.631
 88.970    562.000    554.474      7.526    471.855    545.055    471.855    480.754    472.391
 89.070    541.000    557.106    -16.106    471.616    547.560    471.616    480.652    472.150
 89.170    603.000    560.979     42.021    471.374    551.300    471.374    480.553    471.907
 89.270    567.210    565.604      1.606    471.131    555.785    471.131    480.458    471.662
 89.370    577.000    570.403      6.597    470.885    560.436    470.885    480.368    471.416
 89.470    581.519    574.743      6.776    470.637    564.622    470.637    480.281    471.168
 89.570    574.000    578.000     -4.000    470.388    567.716    470.388    480.199    470.918
 89.670    558.304    579.635    -21.332    470.136    569.181    470.136    480.122    470.667
 89.770    588.000    579.303      8.697    469.882    568.667    469.882    480.050    470.414
 89.870    593.860    576.917     16.943    469.626    566.091    469.626    479.984    470.160
 89.970    596.000    572.661     23.339    469.369    561.635    469.369    479.923    469.904
 90.070    546.000    566.915    -20.915    469.109    555.678    469.109    479.867    469.647
 90.170    605.611    560.159     45.452    468.847    548.701    468.847    479.818    469.388
 90.270    536.557    552.879    -16.321    468.583    541.191    468.583    479.776    469.127
 90.370    525.553    545.514    -19.961    468.317    533.586    468.317    479.740    468.865
 90.470    508.000    538.427    -30.427    468.049    526.251    468.049    479.711    468.601
 90.570    578.839    531.897     46.941    467.780    519.462    467.780    479.689    468.336
 90.670    474.000    526.114    -52.114    467.508    513.410    467.508    479.675    468.070
 90.770    525.667    521.185      4.482    467.234    508.205    467.234    479.668    467.802
 90.870    539.000    517.151     21.849    466.959    503.883    466.959    479.668    467.532
 90.970    506.000    513.994     -7.994    466.681    500.430    466.681    479.677    467.262
 91.070    457.000    511.662    -54.662    466.402    497.791    466.402    479.694    466.989
 91.170    465.000    510.079    -45.079    466.120    495.893    466.120    479.718    466.715
 91.270    523.000    509.171     13.829    465.837    494.659    465.837    479.751    466.440
 91.370    504.000    508.871     -4.871    465.552    494.023    465.552    479.791    466.164
 91.470    493.000    509.137    -16.137    465.265    493.944    465.265    479.839    465.886
 91.570    534.000    509.956     24.044    464.976    494.407    464.976    479.895    465.606
 91.670    517.000    511.349      5.651    464.685    495.435    464.685    479.958    465.325
 91.770    515.000    513.372      1.628    464.393    497.085    464.393    480.027    465.043
 91.870    493.000    516.119    -23.119    464.098    499.450    464.098    480.102    464.759
 91.970    547.552    519.711     27.841    463.802    502.653    463.802    480.182    464.474
 92.070    548.000    524.295     23.705    463.504    506.840    463.504    480.267    464.187
 92.170    544.000    530.030     13.970    463.204    512.174    463.204    480.354    463.898
 92.270    526.070    537.078    -11.009    462.903    518.817    462.903    480.444    463.608
 92.370    563.000    545.585     17.415    462.599    526.915    462.599    480.533    463.316
 92.470    610.000    555.665     54.335    462.294    536.586    462.294    480.621    463.022
 92.570    520.000    567.383    -47.383    461.988    547.896    461.988    480.706    462.726
 92.670    556.000    580.741    -24.741    461.679    560.850    461.679    480.785    462.429
 92.770    641.638    595.655     45.984    461.369    575.366    461.369    480.856    462.129
 92.870    629.000    611.938     17.062    461.057    591.260    461.057    480.917    461.827
 92.970    614.000    629.339    -15.339    460.743    608.283    460.743    480.966    461.523
 93.070    635.000    647.478    -12.478    460.428    626.060    460.428    481.000    461.216
 93.170    666.000    665.874      0.126    460.111    644.110    460.111    481.016    460.907
 93.270    676.000    683.999     -7.999    459.792    661.910    459.792    481.013    460.595
 93.370    661.000    701.348    -40.348    459.472    678.957    459.472    480.987    460.280
 93.470    708.000    717.540     -9.540    459.150    694.871    459.150    480.938    459.963
 93.570    734.000    732.401      1.599    458.826    709.481    458.826    480.862    459.642
 93.670    764.000    745.984     18.016    458.501    722.840    458.501    480.759    459.319
 93.770    761.000    758.498      2.502    458.175    735.159    458.175    480.629    458.993
 93.870    767.275    770.198     -2.922    457.847    746.693    457.847    480.470    458.664
 93.970    744.353    781.283    -36.930    457.517    757.641    457.517    480.282    458.331
 94.070    808.000    791.864     16.136    457.186    768.113    457.186    480.066    457.996
 94.170    849.641    801.998     47.643    456.853    778.165    456.853    479.823    457.658
 94.270    853.000    811.752     41.248    456.519    787.864    456.519    479.555    457.317
 94.370    827.000    821.255      5.745    456.183    797.334    456.183    479.263    456.973
 94.470    882.000    830.628     51.372    455.846    806.696    455.846    478.949    456.627
 94.570    854.000    839.888     14.112    455.508    815.964    455.508    478.617    456.278
 94.670    804.870    848.827    -43.957    455.168    824.928    455.168    478.268    455.926
 94.770    886.000    856.946     29.054    454.827    833.084    454.827    477.906    455.572
 94.870    892.751    863.456     29.295    454.484    839.643    454.484    477.534    455.217
 94.970    921.000    867.368     53.632    454.140    843.611    454.140    477.154    454.859
 95.070    907.257    867.646     39.611    453.795    843.948    453.795    476.771    454.499
 95.170    874.000    863.428     10.572    453.448    839.791    453.448    476.385    454.138
 95.270    941.000    854.260     86.740    453.100    830.681    453.100    476.002    453.775
 95.370    857.932    840.248     17.684    452.751    816.721    452.751    475.622    453.411
 95.470    894.000    822.082     71.918    452.400    798.599    452.400    475.249    453.045
 95.570    833.000    800.914     32.086    452.049    777.463    452.049    474.885    452.678
 95.670    830.000    778.182     51.818    451.696    754.749    451.696    474.532    452.310
 95.770    789.000    755.439     33.561    451.342    732.008    451.342    474.192    451.941
 95.870    756.000    734.237     21.763    450.986    710.789    450.986    473.867    451.571
 95.970    764.000    716.050     47.950    450.630    692.567    450.630    473.558    451.200
 96.070    722.000    702.226     19.774    450.273    678.687    450.273    473.268    450.829
 96.170    699.000    693.937      5.063    449.914    670.319    449.914    472.997    450.456
 96.270    679.307    692.325    -13.019    449.554    668.606    449.554    472.746    450.083
 96.370    704.000    698.194      5.806    449.193    674.349    449.193    472.518    449.709
 96.470    730.580    712.210     18.370    448.832    688.215    448.832    472.313    449.335
 96.570    707.382    734.809    -27.427    448.469    710.638    448.469    472.132    448.960
 96.670    772.000    766.186      5.814    448.105    741.812    448.105    471.975    448.584
 96.770    842.410    806.253     36.156    447.740    781.649    447.740    471.845    448.208
 96.870    859.000    854.601      4.399    447.375    829.739    447.375    471.742    447.831
 96.970    928.000    910.440     17.560    447.008    885.292    447.008    471.666    447.454
 97.070    968.000    972.556     -4.556    446.641    947.093    446.641    471.619    447.076
 97.170   1092.640   1039.266     53.374    446.272   1013.459    446.272    471.601    446.698
 97.270   1075.000   1108.395    -33.395    445.903   1082.215    445.903    471.613    446.319
 97.370   1162.569   1177.277    -14.708    445.533   1150.694    445.533    471.657    445.940
 97.470   1222.063   1242.788    -20.726    445.162   1215.773    445.162    471.732    445.561
 97.570   1256.243   1301.466    -45.223    444.791   1273.988    444.791    471.839    445.181
 97.670   1380.000   1349.745     30.255    444.418   1321.773    444.418    471.980    444.801
 97.770   1457.722   1384.360     73.362    444.045   1355.862    444.045    472.155    444.420
 97.870   1426.000   1402.871     23.129    443.672   1373.814    443.672    472.365    444.039
 97.970   1410.006   1404.141      5.865    443.297   1374.489    443.297    472.611    443.658
 98.070   1458.000   1388.567     69.433    442.922   1358.282    442.922    472.893    443.276
 98.170   1347.638   1357.946    -10.308    442.547   1326.988    442.547    473.212    442.895
 98.270   1362.919   1315.075     47.844    442.170   1283.404    442.170    473.568    442.513
 98.370   1251.134   1263.274    -12.140    441.794   1230.846    441.794    473.962    442.130
 98.470   1178.000   1205.990    -27.990    441.416   1172.762    441.416    474.395    441.748
 98.570   1210.212   1146.542     63.669    441.039   1112.472    441.039    474.867    441.365
 98.670   1128.701   1087.971     40.730    440.660   1053.015    440.660    475.377    440.982
 98.770   1069.875   1032.965     36.910    440.282    997.081    440.282    475.927    440.599
 98.870    963.470    983.839    -20.369    439.903    946.986    439.903    476.515    440.215
 98.970    986.692    942.541     44.151    439.523    904.678    439.523    477.142    439.832
 99.070    948.000    910.666     37.334    439.143    871.754    439.143    477.806    439.449
 99.170    869.000    889.474    -20.474    438.763    849.477    438.763    478.507    439.065
 99.270    879.000    879.907     -0.907    438.383    838.788    438.383    479.244    438.681
 99.370    890.423    882.597      7.826    438.002    840.324    438.002    480.013    438.297
 99.470    870.000    897.883    -27.883    437.621    854.426    437.621    480.814    437.914
 99.570    877.194    925.821    -48.628    437.240    881.153    437.240    481.643    437.530
 99.670    928.000    966.232    -38.232    436.859    920.329    436.859    482.496    437.146
 99.770    992.000   1018.593    -26.593    436.477    971.439    436.477    483.370    436.762
 99.870   1040.000   1082.084    -42.084    436.096   1033.664    436.096    484.259    436.378
 99.970   1215.029   1155.537     59.492    435.714   1105.844    435.714    485.159    435.995
100.070   1176.839   1237.393    -60.554    435.333   1186.428    435.333    486.061    435.611
100.170   1272.975   1325.672    -52.698    434.951   1273.441    434.951    486.960    435.228
100.270   1366.000   1417.952    -51.952    434.570   1364.471    434.570    487.846    434.844
100.370   1501.930   1511.398     -9.468    434.188   1456.692    434.188    488.711    434.461
100.470   1578.950   1602.875    -23.926    433.807   1546.977    433.807    489.545    434.078
100.570   1684.000   1689.141     -5.141    433.426   1632.095    433.426    490.338    433.695
100.670   1742.000   1767.117    -25.117    433.044   1708.976    433.044    491.079    433.313
100.770   1844.000   1834.142      9.858    432.664   1774.970    432.664    491.757    432.930
100.870   1874.000   1888.104    -14.104    432.283   1827.975    432.283    492.361    432.548
100.970   2018.000   1927.412     90.588    431.903   1866.409    431.903    492.879    432.166
101.070   1826.000   1950.869   -124.869    431.522   1889.085    431.522    493.302    431.785
101.170   1876.709   1957.604    -80.894    431.143   1895.141    431.143    493.618    431.403
101.270   1980.000   1947.170     32.830    430.763   1884.140    430.763    493.821    431.023
101.370   1858.000   1919.820    -61.820    430.384   1856.340    430.384    493.901    430.642
101.470   1871.672   1876.804     -5.132    430.006   1812.996    430.006    493.854    430.262
101.570   1756.000   1820.491    -64.491    429.628   1756.484    429.628    493.676    429.882
101.670   1743.000   1754.199    -11.199    429.251   1690.121    429.251    493.364    429.503
101.770   1730.671   1681.766     48.905    428.874   1617.747    428.874    492.918    429.124
101.870   1580.000   1607.056    -27.056    428.497   1543.225    428.497    492.341    428.746
101.970   1532.219   1533.537     -1.318    428.122   1470.019    428.122    491.638    428.369
102.070   1501.000   1464.020     36.980    427.747   1400.937    427.747    490.813    427.992
102.170   1425.000   1400.537     24.463    427.372   1338.003    427.372    489.874    427.615
102.270   1353.000   1344.316      8.684    426.999   1282.437    426.999    488.831    427.240
102.370   1364.000   1295.813     68.187    426.626   1234.686    426.626    487.694    426.865
102.470   1253.000   1254.768     -1.768    426.254   1194.480    426.254    486.472    426.491
102.570   1184.000   1220.290    -36.290    425.883   1160.917    425.883    485.177    426.118
102.670   1137.766   1190.985    -53.219    425.513   1132.592    425.513    483.821    425.745
102.770   1131.576   1165.077    -33.502    425.144   1107.717    425.144    482.414    425.374
102.870   1116.000   1140.636    -24.636    424.776   1084.352    424.776    480.967    425.004
102.970   1073.273   1115.818    -42.545    424.409   1060.642    424.409    479.492    424.634
103.070   1100.000   1089.121     10.879    424.043   1035.073    424.043    477.997    424.266
103.170   1075.411   1059.576     15.835    423.678   1006.668    423.678    476.491    423.899
103.270   1033.000   1026.822      6.178    423.314    975.057    423.314    474.984    423.533
103.370   1001.394    991.054     10.340    422.952    940.427    422.952    473.481    423.169
103.470    945.000    952.871     -7.871    422.590    903.370    422.590    471.990    422.805
103.570    917.000    913.106      3.894    422.230    864.715    422.230    470.516    422.444
103.670    881.000    872.678      8.322    421.872    825.374    421.872    469.065    422.083
103.770    827.000    832.474     -5.474    421.515    786.232    421.515    467.640    421.724
103.870    855.000    793.360     61.640    421.159    748.151    421.159    466.245    421.366
103.970    731.223    756.035    -24.812    420.804    711.827    420.804    464.883    421.010
104.070    817.000    721.076     95.924    420.451    677.834    420.451    463.556    420.655
104.170    732.040    688.914     43.126    420.100    646.604    420.100    462.267    420.303
104.270    679.000    659.836     19.164    419.751    618.421    419.751    461.017    419.951
104.370    631.000    633.985     -2.985    419.402    593.427    419.402    459.806    419.602
104.470    602.000    611.374     -9.374    419.056    571.635    419.056    458.636    419.254
104.570    646.000    591.910     54.090    418.712    552.951    418.712    457.506    418.908
104.670    598.000    575.415     22.585    418.369    537.197    418.369    456.418    418.564
104.770    575.000    561.651     13.349    418.028    524.136    418.028    455.372    418.222
104.870    499.979    550.351    -50.371    417.689    513.499    417.689    454.366    417.881
104.970    541.000    541.233     -0.233    417.352    505.006    417.352    453.402    417.543
105.070    620.000    534.027     85.973    417.016    498.387    417.016    452.478    417.207
105.170    566.000    528.487     37.513    416.683    493.396    416.683    451.594    416.873
105.270    548.372    524.397     23.975    416.352    489.818    416.352    450.750    416.541
105.370    514.000    521.583     -7.583    416.023    487.478    416.023    449.945    416.211
105.470    554.789    519.909     34.880    415.696    486.243    415.696    449.179    415.883
105.570    526.000    519.281      6.719    415.372    486.018    415.372    448.450    415.558
105.670    568.000    519.640     48.360    415.050    486.745    415.050    447.759    415.235
105.770    558.000    520.959     37.041    414.730    488.397    414.730    447.104    414.914
105.870    565.508    523.237     42.270    414.412    490.975    414.412    446.485    414.596
105.970    553.000    526.494     26.506    414.097    494.497    414.097    445.902    414.281
106.070    530.000    530.758     -0.758    413.784    498.996    413.784    445.354    413.967
106.170    570.000    536.064     33.936    413.474    504.504    413.474    444.840    413.657
106.270    547.000    542.440      4.560    413.167    511.050    413.167    444.359    413.349
106.370    588.000    549.895     38.105    412.862    518.644    412.862    443.913    413.044
106.470    572.000    558.409     13.591    412.559    527.267    412.559    443.499    412.741
106.570    575.326    567.928      7.398    412.260    536.866    412.260    443.117    412.442
106.670    612.034    578.353     33.680    411.963    547.340    411.963    442.768    412.145
106.770    634.589    589.537     45.052    411.669    558.545    411.669    442.451    411.851
106.870    572.742    601.286    -28.544    411.378    570.286    411.378    442.165    411.560
106.970    634.000    613.355     20.645    411.090    582.319    411.090    441.910    411.272
107.070    628.000    625.456      2.544    410.805    594.357    410.805    441.687    410.987
107.170    608.000    637.264    -29.264    410.524    606.074    410.524    441.495    410.705
107.270    627.000    648.427    -21.427    410.245    617.118    410.245    441.334    410.426
107.370    617.576    658.588    -41.013    409.969    627.134    409.969    441.203    410.151
107.470    686.000    667.415     18.585    409.697    635.789    409.697    441.104    409.879
107.570    704.000    674.642     29.358    409.428    642.816    409.428    441.036    409.610
107.670    678.000    680.109     -2.109    409.162    648.056    409.162    440.999    409.345
107.770    655.000    683.800    -28.800    408.900    651.493    408.900    440.993    409.083
107.870    682.000    685.848     -3.848    408.641    653.260    408.641    441.019    408.824
107.970    670.000    686.520    -16.520    408.385    653.623    408.385    441.077    408.569
108.070    668.000    686.174    -18.174    408.133    652.939    408.133    441.167    408.318
108.170    675.284    685.206     -9.921    407.885    651.603    407.885    441.290    408.071
108.270    612.000    683.999    -71.999    407.641    650.000    407.641    441.446    407.827
108.370    647.000    682.891    -35.891    407.400    648.465    407.400    441.635    407.587
108.470    664.000    682.141    -18.141    407.163    647.258    407.163    441.859    407.351
108.570    671.404    681.918    -10.514    406.930    646.546    406.930    442.117    407.119
108.670    703.000    682.288     20.712    406.701    646.397    406.701    442.410    406.890
108.770    687.000    683.215      3.785    406.476    646.773    406.476    442.740    406.666
108.870    668.718    684.562    -15.844    406.255    647.535    406.255    443.106    406.446
108.970    637.000    686.094    -49.094    406.038    648.448    406.038    443.510    406.230
109.070    664.000    687.494    -23.494    405.825    649.195    405.825    443.952    406.019
109.170    639.375    688.394    -49.019    405.617    649.408    405.617    444.433    405.812
109.270    656.068    688.409    -32.341    405.413    648.699    405.413    444.955    405.609
109.370    661.177    687.178    -26.001    405.213    646.706    405.213    445.517    405.410
109.470    651.000    684.424    -33.424    405.017    643.154    405.017    446.122    405.216
109.570    657.000    679.999    -22.999    404.827    637.890    404.827    446.769    405.027
109.670    694.000    673.898     20.102    404.640    630.911    404.640    447.461    404.842
109.770    654.000    666.257    -12.257    404.459    622.349    404.459    448.197    404.662
109.870    656.874    657.319     -0.445    404.281    612.450    404.281    448.980    404.487
109.970    657.000    647.396      9.604    404.109    601.521    404.109    449.810    404.316
110.070    665.984    636.826     29.158    403.942    589.903    403.942    450.689    404.150
110.170    623.135    625.940     -2.804    403.779    577.922    403.779    451.617    403.990
110.270    600.000    615.065    -15.065    403.622    565.907    403.622    452.595    403.834
110.370    615.000    604.481     10.519    403.469    554.135    403.469    453.626    403.684
110.470    582.158    594.424    -12.267    403.321    542.843    403.321    454.710    403.538
110.570    624.000    585.094     38.906    403.179    532.228    403.179    455.847    403.398
110.670    590.000    576.645     13.355    403.042    522.443    403.042    457.040    403.263
110.770    616.000    569.187     46.813    402.910    513.600    402.910    458.289    403.134
110.870    553.000    562.791     -9.791    402.783    505.766    402.783    459.595    403.010
110.970    534.950    557.487    -22.537    402.662    498.971    402.662    460.960    402.891
111.070    596.000    553.273     42.727    402.547    493.213    402.547    462.383    402.779
111.170    522.000    550.118    -28.118    402.437    488.460    402.437    463.867    402.671
111.270    520.000    547.968    -27.968    402.332    484.657    402.332    465.411    402.570
111.370    529.864    546.754    -16.890    402.234    481.734    402.234    467.016    402.474
111.470    557.062    546.393     10.668    402.141    479.610    402.141    468.682    402.384
111.570    537.000    546.799     -9.799    402.054    478.196    402.054    470.410    402.301
111.670    519.000    547.886    -28.886    401.972    477.407    401.972    472.200    402.223
111.770    539.657    549.569     -9.912    401.897    477.160    401.897    474.051    402.151
111.870    562.000    551.769     10.231    401.828    477.373    401.828    475.964    402.086
111.970    510.824    554.413    -43.589    401.765    477.978    401.765    477.936    402.026
112.070    569.000    557.439     11.561    401.708    478.910    401.708    479.968    401.973
112.170    576.000    560.794     15.206    401.658    480.121    401.658    482.058    401.927
112.270    552.000    564.436    -12.436    401.614    481.570    401.614    484.203    401.887
112.370    543.935    568.337    -24.402    401.576    483.230    401.576    486.401    401.853
112.470    596.380    572.479     23.900    401.545    485.087    401.545    488.650    401.826
112.570    601.000    576.858     24.142    401.520    487.141    401.520    490.946    401.806
112.670    583.000    581.482      1.518    401.502    489.404    401.502    493.285    401.792
112.770    569.000    586.372    -17.372    401.491    491.901    401.491    495.662    401.785
112.870    524.000    591.560    -67.560    401.487    494.671    401.487    498.071    401.786
112.970    597.933    597.096      0.837    401.489    497.768    401.489    500.507    401.793
113.070    609.692    603.044      6.648    401.499    501.266    401.499    502.962    401.807
113.170    556.000    609.489    -53.489    401.515    505.256    401.515    505.428    401.828
113.270    634.000    616.543     17.457    401.539    509.860    401.539    507.896    401.857
113.370    562.000    624.352    -62.352    401.569    515.232    401.569    510.357    401.892
113.470    572.000    633.104    -61.104    401.607    521.574    401.607    512.800    401.935
113.570    601.000    643.045    -42.045    401.653    529.140    401.653    515.214    401.986
113.670    618.000    654.486    -36.486    401.706    538.254    401.706    517.586    402.044
113.770    648.000    667.821    -19.821    401.766    549.325    401.766    519.904    402.109
113.870    613.000    683.549    -70.549    401.834    562.863    401.834    522.153    402.182
113.970    747.321    702.284     45.037    401.909    579.497    401.909    524.320    402.262
114.070    738.000    724.782     13.218    401.993    599.997    401.993    526.391    402.351
114.170    768.000    751.951     16.049    402.084    625.287    402.084    528.350    402.447
114.270    787.917    784.875      3.042    402.183    656.464    402.183    530.183    402.551
114.370    830.000    824.819      5.181    402.290    694.806    402.290    531.876    402.663
114.470    848.000    873.237    -25.237    402.405    741.782    402.405    533.416    402.782
114.570    895.000    931.768    -36.768    402.529    799.045    402.529    534.789    402.910
114.670   1019.202   1002.222     16.980    402.660    868.413    402.660    535.984    403.046
114.770   1076.187   1086.549    -10.362    402.800    951.848    402.800    536.991    403.191
114.870   1166.084   1186.795    -20.710    402.948   1051.406    402.948    537.801    403.343
114.970   1302.404   1305.041     -2.637    403.105   1169.173    403.105    538.408    403.504
115.070   1447.000   1443.323      3.677    403.271   1307.190    403.271    538.806    403.673
115.170   1612.000   1603.531      8.469    403.445   1467.351    403.445    538.994    403.851
115.270   1845.000   1787.301     57.699    403.628   1651.292    403.628    538.970    404.037
115.370   2061.000   1995.886     65.114    403.819   1860.265    403.819    538.738    404.232
115.470   2178.422   2230.006    -51.585    404.020   2094.988    404.020    538.300    404.436
115.570   2575.000   2489.785     85.215    404.229   2355.577    404.229    537.664    404.649
115.670   2821.854   2774.596     47.258    404.448   2641.401    404.448    536.837    404.871
115.770   3141.000   3082.877     58.123    404.676   2950.889    404.676    535.829    405.102
115.870   3604.000   3412.133    191.867    404.913   3281.535    404.913    534.651    405.342
115.970   3850.984   3758.856     92.128    405.160   3629.822    405.160    533.317    405.591
116.070   4163.000   4118.503     44.497    405.416   3991.193    405.416    531.839    405.850
116.170   4479.000   4485.508     -6.508    405.681   4360.069    405.681    530.232    406.119
116.270   4839.000   4853.332    -14.332    405.957   4729.900    405.957    528.510    406.397
116.370   5107.000   5214.561   -107.561    406.242   5093.257    406.242    526.689    406.685
116.470   5708.598   5561.044    147.554    406.536   5441.974    406.536    524.782    406.982
116.570   5747.195   5884.090   -136.895    406.841   5767.349    406.841    522.804    407.290
116.670   6337.140   6174.748    162.391    407.156   6060.415    407.156    520.769    407.608
116.770   6477.000   6424.179     52.821    407.480   6312.319    407.480    518.691    407.936
116.870   6476.313   6624.131   -147.818    407.815   6514.795    407.815    516.581    408.275
116.970   6920.037   6767.512    152.525    408.161   6660.737    408.161    514.453    408.624
117.070   6997.987   6848.982    149.004    408.516   6744.792    408.516    512.316    408.983
117.170   6867.861   6865.478      2.383    408.882   6763.880    408.882    510.182    409.353
117.270   6840.000   6816.537     23.463    409.259   6717.527    409.259    508.059    409.734
117.370   6711.917   6704.345      7.572    409.646   6607.907    409.646    505.956    410.126
117.470   6595.000   6533.494     61.506    410.044   6439.600    410.044    503.880    410.529
117.570   6338.979   6310.501     28.479    410.453   6219.114    410.453    501.838    410.943
117.670   6113.083   6043.224     69.859    410.873   5954.301    410.873    499.836    411.369
117.770   5575.000   5740.273   -165.273    411.304   5653.766    411.304    497.879    411.805
117.870   5181.000   5410.497   -229.497    411.746   5326.352    411.746    495.971    412.253
117.970   5155.994   5062.576     93.419    412.199   4980.737    412.199    494.117    412.713
118.070   4843.437   4704.715    138.722    412.664   4625.125    412.664    492.320    413.184
118.170   4241.000   4344.428   -103.428    413.140   4267.029    413.140    490.582    413.668
118.270   4009.000   3988.382     20.618    413.628   3913.113    413.628    488.905    414.163
118.370   3737.916   3642.293     95.623    414.127   3569.095    414.127    487.292    414.670
118.470   3361.271   3310.878     50.394    414.638   3239.692    414.638    485.743    415.189
118.570   3078.000   2997.836     80.164    415.160   2928.604    415.160    484.260    415.720
118.670   2798.172   2705.882     92.290    415.695   2638.549    415.695    482.843    416.264
118.770   2391.000   2436.808    -45.808    416.242   2371.317    416.242    481.493    416.820
118.870   2129.000   2191.569    -62.569    416.801   2127.866    416.801    480.210    417.388
118.970   1937.000   1970.387    -33.387    417.372   1908.420    417.372    478.994    417.970
119.070   1852.722   1772.868     79.854    417.955   1712.584    417.955    477.844    418.564
119.170   1498.000   1598.111   -100.111    418.551   1539.460    418.551    476.761    419.171
119.270   1418.880   1444.830    -25.950    419.159   1387.761    419.159    475.743    419.791
119.370   1328.000   1311.456     16.544    419.780   1255.921    419.780    474.790    420.423
119.470   1125.127   1196.244    -71.117    420.414   1142.195    420.414    473.902    421.070
119.570   1083.000   1097.362    -14.362    421.061   1044.752    421.061    473.076    421.729
119.670   1087.000   1012.970     74.030    421.720    961.752    421.720    472.314    422.402
119.770   1008.000    941.284     66.716    422.393    891.413    422.393    471.612    423.088
119.870    856.202    880.623    -24.422    423.079    832.054    423.079    470.972    423.788
119.970    836.000    829.442      6.558    423.778    782.130    423.778    470.390    424.502
120.070    781.000    786.350     -5.350    424.491    740.253    424.491    469.867    425.229
120.170    764.047    750.121     13.926    425.217    705.197    425.217    469.401    425.970
120.270    712.000    719.691     -7.691    425.956    675.897    425.956    468.992    426.726
120.370    665.637    694.147    -28.509    426.709    651.443    426.709    468.637    427.495
120.470    691.276    672.720     18.556    427.477    631.066    427.477    468.336    428.279
120.570    648.000    654.767     -6.767    428.258    614.126    428.258    468.087    429.077
120.670    659.000    639.756     19.244    429.053    600.089    429.053    467.891    429.889
120.770    616.694    627.249    -10.555    429.862    588.520    429.862    467.744    430.716
120.870    585.527    616.889    -31.362    430.685    579.063    430.685    467.647    431.557
120.970    556.000    608.384    -52.384    431.523    571.427    431.523    467.599    432.413
121.070    600.000    601.497     -1.497    432.376    565.376    432.376    467.597    433.284
121.170    560.000    596.034    -36.034    433.242    560.718    433.242    467.642    434.170
121.270    577.000    591.835    -14.835    434.124    557.293    434.124    467.731    435.070
121.370    554.000    588.767    -34.767    435.020    554.970    435.020    467.864    435.986
121.470    579.000    586.719     -7.719    435.932    553.639    435.932    468.041    436.916
121.570    619.328    585.593     33.735    436.858    553.203    436.858    468.259    437.862
121.670    630.000    585.304     44.696    437.800    553.578    437.800    468.518    438.823
121.770    585.000    585.772     -0.772    438.757    554.685    438.757    468.818    439.799
121.870    589.000    586.921      2.079    439.729    556.451    439.729    469.156    440.791
121.970    573.000    588.679    -15.679    440.716    558.803    440.716    469.533    441.797
122.070    601.000    590.970     10.030    441.720    561.667    441.720    469.946    442.820
122.170    622.000    593.717     28.283    442.739    564.967    442.739    470.397    443.857
122.270    572.000    596.840    -24.840    443.774    568.623    443.774    470.882    444.911
122.370    608.000    600.253      7.747    444.825    572.552    444.825    471.403    445.979
122.470    611.743    603.866      7.876    445.892    576.663    445.892    471.957    447.064
122.570    618.000    607.586     10.414    446.975    580.865    446.975    472.544    448.163
122.670    649.000    611.311     37.689    448.074    585.057    448.074    473.164    449.279
122.770    624.000    614.939      9.061    449.190    589.137    449.190    473.815    450.410
122.870    664.618    618.361     46.258    450.323    592.998    450.323    474.497    451.557
122.970    637.000    621.441     15.559    451.472    596.504    451.472    475.209    452.720
123.070    617.000    624.145     -7.145    452.638    599.623    452.638    475.951    453.898
123.170    649.353    626.354     22.999    453.821    602.235    453.821    476.721    455.093
123.270    621.000    627.982     -6.982    455.021    604.256    455.021    477.520    456.303
123.370    613.000    628.967    -15.967    456.238    605.624    456.238    478.347    457.529
123.470    633.000    629.267      3.733    457.472    606.298    457.472    479.201    458.771
123.570    665.562    628.864     36.699    458.724    606.261    458.724    480.081    460.029
123.670    657.000    627.764     29.236    459.993    605.519    459.993    480.988    461.303
123.770    626.000    625.996      0.004    461.280    604.101    461.280    481.921    462.594
123.870    625.000    623.604      1.396    462.585    602.054    462.585    482.879    463.900
123.970    623.454    620.651      2.803    463.908    599.438    463.908    483.863    465.223
124.070    584.367    617.207    -32.840    465.248    596.326    465.248    484.871    466.563
124.170    610.710    613.349     -2.639    466.607    592.794    466.607    485.904    467.919
124.270    625.000    609.157     15.843    467.984    588.924    467.984    486.962    469.293
124.370    620.000    604.714     15.286    469.380    584.798    469.380    488.043    470.683
124.470    616.240    600.100     16.140    470.794    580.497    470.794    489.149    472.090
124.570    609.000    595.393     13.607    472.227    576.098    472.227    490.279    473.514
124.670    611.807    590.666     21.141    473.679    571.676    473.679    491.433    474.956
124.770    614.000    585.989     28.011    475.149    567.299    475.149    492.611    476.416
124.870    578.000    581.424     -3.424    476.639    563.031    476.639    493.813    477.894
124.970    565.000    577.026    -12.026    478.148    558.926    478.148    495.039    479.389
