neutron_powder_diffraction_0125
R_wp: 3.841
Temperature (K): 1011.849
Counts: 83765.00
Wavelength (Ã…): 2.52098
COMMENTS
Test file for demonstrating the .xyy file format in Reel1.0
END OF HEADER
   tth       Y_obs     Y_calc      Y_res    Background    Phase_1_Nuc    Phase_1_Mag    Phase_2_Nuc    Phase_2_Mag
  9.970    590.000    558.988     31.012    557.936    558.869    557.936    558.054    557.936
 10.070    579.000    559.431     19.569    558.298    559.312    558.298    558.416    558.298
 10.170    578.779    559.877     18.902    558.651    559.757    558.651    558.769    558.651
 10.270    582.000    560.327     21.673    558.994    560.207    558.994    559.114    558.994
 10.370    570.520    560.786      9.734    559.329    560.666    559.329    559.449    559.329
 10.470    589.000    561.257     27.743    559.655    561.136    559.655    559.776    559.655
 10.570    628.000    561.745     66.255    559.972    561.623    559.972    560.093    559.972
 10.670    553.000    562.257     -9.257    560.280    562.135    560.280    560.402    560.280
 10.770    571.435    562.802      8.633    560.580    562.679    560.580    560.702    560.580
 10.870    554.315    563.391     -9.077    560.871    563.268    560.871    560.993    560.871
 10.970    576.000    564.043     11.957    561.153    563.918    561.153    561.276    561.153
 11.070    597.000    564.779     32.221    561.427    564.654    561.427    561.551    561.427
 11.170    535.000    565.636    -30.636    561.693    565.510    561.693    561.817    561.693
 11.270    597.000    566.669     30.331    561.950    566.542    561.950    562.074    561.950
 11.370    540.554    567.977    -27.423    562.199    567.849    562.199    562.324    562.199
 11.470    569.429    569.783     -0.355    562.439    569.654    562.439    562.565    562.439
 11.570    608.680    572.628     36.052    562.672    572.496    562.672    562.798    562.672
 11.670    571.000    577.726     -6.726    562.897    577.591    562.897    563.023    562.897
 11.770    560.837    587.306    -26.469    563.113    587.165    563.113    563.240    563.113
 11.870    648.000    604.250     43.750    563.322    604.099    563.322    563.450    563.322
 11.970    589.867    630.190    -40.323    563.523    630.024    563.523    563.651    563.523
 12.070    680.000    661.831     18.169    563.716    661.647    563.716    563.845    563.716
 12.170    678.948    687.359     -8.410    563.901    687.160    563.901    564.031    563.901
 12.270    653.000    691.073    -38.073    564.079    690.872    564.079    564.209    564.079
 12.370    665.000    670.042     -5.042    564.249    669.852    564.249    564.380    564.249
 12.470    603.000    638.600    -35.600    564.412    638.428    564.412    564.543    564.412
 12.570    633.166    610.906     22.260    564.567    610.749    564.567    564.699    564.567
 12.670    591.000    592.123     -1.123    564.715    591.976    564.715    564.847    564.715
 12.770    584.000    581.389      2.611    564.856    581.247    564.856    564.989    564.856
 12.870    589.797    575.837     13.960    564.989    575.697    564.989    565.123    564.989
 12.970    600.058    572.976     27.082    565.115    572.837    565.115    565.250    565.115
 13.070    550.000    571.359    -21.359    565.235    571.221    565.235    565.370    565.235
 13.170    544.969    570.325    -25.357    565.347    570.187    565.347    565.482    565.347
 13.270    605.525    569.604     35.921    565.452    569.465    565.452    565.588    565.452
 13.370    574.532    569.077      5.456    565.550    568.938    565.550    565.687    565.550
 13.470    548.000    568.682    -20.682    565.642    568.543    565.642    565.780    565.642
 13.570    575.000    568.382      6.618    565.727    568.242    565.727    565.865    565.727
 13.670    571.768    568.150      3.618    565.805    568.010    565.805    565.944    565.805
 13.770    542.000    567.968    -25.968    565.876    567.828    565.876    566.016    565.876
 13.870    560.997    567.824     -6.827    565.941    567.683    565.941    566.082    565.941
 13.970    577.700    567.708      9.991    566.000    567.566    566.000    566.141    566.000
 14.070    563.461    567.613     -4.152    566.052    567.471    566.052    566.194    566.052
 14.170    570.000    567.534      2.466    566.098    567.391    566.098    566.240    566.098
 14.270    594.000    567.467     26.533    566.137    567.323    566.137    566.280    566.137
 14.370    571.000    567.410      3.590    566.170    567.265    566.170    566.314    566.170
 14.470    530.000    567.358    -37.358    566.197    567.213    566.197    566.342    566.197
 14.570    569.413    567.310      2.104    566.218    567.164    566.218    566.364    566.218
 14.670    584.424    567.263     17.161    566.233    567.117    566.233    566.379    566.233
 14.770    594.605    567.219     27.386    566.242    567.072    566.242    566.389    566.242
 14.870    531.000    567.175    -36.175    566.245    567.027    566.245    566.393    566.245
 14.970    608.000    567.132     40.868    566.242    566.983    566.242    566.391    566.242
 15.070    533.000    567.087    -34.087    566.233    566.937    566.233    566.383    566.233
 15.170    527.143    567.039    -39.896    566.219    566.889    566.219    566.369    566.219
 15.270    546.000    566.989    -20.989    566.199    566.838    566.199    566.350    566.199
 15.370    560.766    566.937     -6.171    566.173    566.785    566.173    566.325    566.173
 15.470    549.000    566.882    -17.882    566.142    566.729    566.142    566.294    566.142
 15.570    551.529    566.824    -15.295    566.105    566.670    566.105    566.259    566.105
 15.670    569.571    566.762      2.808    566.063    566.608    566.063    566.217    566.063
 15.770    562.535    566.698     -4.163    566.015    566.542    566.015    566.170    566.015
 15.870    510.000    566.629    -56.629    565.963    566.473    565.963    566.118    565.963
 15.970    536.000    566.557    -30.557    565.904    566.400    565.904    566.061    565.904
 16.070    571.977    566.481      5.496    565.841    566.323    565.841    565.999    565.841
 16.170    553.276    566.401    -13.125    565.773    566.243    565.773    565.931    565.773
 16.270    592.000    566.318     25.682    565.699    566.158    565.699    565.858    565.699
 16.370    592.000    566.230     25.770    565.620    566.069    565.620    565.781    565.620
 16.470    609.000    566.138     42.862    565.537    565.977    565.537    565.698    565.537
 16.570    538.000    566.043    -28.043    565.448    565.881    565.448    565.611    565.448
 16.670    565.000    565.950     -0.950    565.355    565.787    565.355    565.518    565.355
 16.770    578.000    565.866     12.134    565.257    565.702    565.257    565.421    565.257
 16.870    543.000    565.761    -22.761    565.154    565.595    565.154    565.319    565.154
 16.970    577.978    565.649     12.329    565.046    565.483    565.046    565.213    565.046
 17.070    577.000    565.534     11.466    564.934    565.366    564.934    565.101    564.934
 17.170    539.000    565.414    -26.414    564.817    565.245    564.817    564.986    564.817
 17.270    571.000    565.291      5.709    564.696    565.121    564.696    564.865    564.696
 17.370    536.312    565.163    -28.851    564.570    564.992    564.570    564.741    564.570
 17.470    577.000    565.032     11.968    564.440    564.860    564.440    564.612    564.440
 17.570    557.000    564.897     -7.897    564.305    564.724    564.305    564.478    564.305
 17.670    598.651    564.758     33.894    564.166    564.583    564.166    564.340    564.166
 17.770    559.000    564.615     -5.615    564.023    564.439    564.023    564.198    564.023
 17.870    524.992    564.468    -39.476    563.876    564.292    563.876    564.052    563.876
 17.970    586.030    564.318     21.712    563.724    564.140    563.724    563.902    563.724
 18.070    522.000    564.164    -42.164    563.569    563.986    563.569    563.748    563.569
 18.170    564.798    564.010      0.787    563.409    563.830    563.409    563.589    563.409
 18.270    531.135    563.849    -32.715    563.245    563.668    563.245    563.427    563.245
 18.370    605.749    563.685     42.065    563.078    563.502    563.078    563.260    563.078
 18.470    553.000    563.516    -10.516    562.906    563.332    562.906    563.090    562.906
 18.570    580.651    563.345     17.306    562.731    563.159    562.731    562.916    562.731
 18.670    603.110    563.170     39.941    562.552    562.983    562.552    562.739    562.552
 18.770    553.000    563.002    -10.002    562.369    562.814    562.369    562.557    562.369
 18.870    586.000    562.920     23.080    562.183    562.731    562.183    562.372    562.183
 18.970    545.000    562.746    -17.746    561.992    562.555    561.992    562.183    561.992
 19.070    550.000    562.563    -12.563    561.799    562.371    561.799    561.991    561.799
 19.170    572.618    562.374     10.244    561.601    562.180    561.601    561.795    561.601
 19.270    596.084    562.180     33.904    561.401    561.984    561.401    561.596    561.401
 19.370    527.000    561.983    -34.983    561.196    561.786    561.196    561.393    561.196
 19.470    537.000    561.783    -24.783    560.989    561.584    560.989    561.187    560.989
 19.570    497.000    561.580    -64.580    560.778    561.380    560.778    560.978    560.778
 19.670    585.000    561.374     23.626    560.564    561.172    560.564    560.766    560.564
 19.770    560.000    561.166     -1.166    560.346    560.962    560.346    560.550    560.346
 19.870    572.000    560.954     11.046    560.126    560.749    560.126    560.331    560.126
 19.970    521.000    560.741    -39.741    559.902    560.534    559.902    560.109    559.902
 20.070    566.000    560.525      5.475    559.675    560.316    559.675    559.884    559.675
 20.170    593.477    560.306     33.171    559.445    560.095    559.445    559.656    559.445
 20.270    599.000    560.085     38.915    559.212    559.873    559.212    559.424    559.212
 20.370    523.477    559.866    -36.389    558.976    559.651    558.976    559.190    558.976
 20.470    547.649    559.672    -12.022    558.737    559.455    558.737    558.954    558.737
 20.570    551.000    559.483     -8.483    558.495    559.264    558.495    558.714    558.495
 20.670    544.000    559.257    -15.257    558.251    559.036    558.251    558.471    558.251
 20.770    521.788    559.026    -37.238    558.003    558.803    558.003    558.226    558.003
 20.870    588.000    558.793     29.207    557.753    558.569    557.753    557.978    557.753
 20.970    585.294    558.559     26.735    557.501    558.332    557.501    557.728    557.501
 21.070    574.000    558.324     15.676    557.245    558.094    557.245    557.475    557.245
 21.170    575.000    558.088     16.912    556.987    557.856    556.987    557.219    556.987
 21.270    581.462    557.853     23.609    556.726    557.618    556.726    556.961    556.726
 21.370    571.758    557.614     14.145    556.463    557.377    556.463    556.700    556.463
 21.470    594.000    557.374     36.626    556.198    557.134    556.198    556.437    556.198
 21.570    525.162    557.134    -31.972    555.930    556.892    555.930    556.172    555.930
 21.670    532.000    556.904    -24.904    555.659    556.659    555.659    555.904    555.659
 21.770    552.641    556.700     -4.059    555.387    556.453    555.387    555.634    555.387
 21.870    561.113    556.464      4.650    555.112    556.213    555.112    555.362    555.112
 21.970    554.109    556.224     -2.115    554.834    555.971    554.834    555.088    554.834
 22.070    566.000    555.986     10.014    554.555    555.729    554.555    554.812    554.555
 22.170    551.181    555.754     -4.573    554.273    555.494    554.273    554.533    554.273
 22.270    569.000    555.526     13.474    553.989    555.263    553.989    554.253    553.989
 22.370    572.000    555.304     16.696    553.703    555.038    553.703    553.970    553.703
 22.470    539.000    555.091    -16.091    553.416    554.821    553.416    553.686    553.416
 22.570    597.000    554.869     42.131    553.126    554.595    553.126    553.399    553.126
 22.670    555.000    554.657      0.343    552.834    554.379    552.834    553.111    552.834
 22.770    542.665    554.451    -11.786    552.540    554.170    552.540    552.821    552.540
 22.870    554.000    554.250     -0.250    552.244    553.965    552.244    552.529    552.244
 22.970    573.000    554.059     18.941    551.946    553.770    551.946    552.236    551.946
 23.070    516.297    553.883    -37.586    551.647    553.589    551.647    551.941    551.647
 23.170    522.000    553.724    -31.724    551.346    553.426    551.346    551.644    551.346
 23.270    592.144    553.589     38.555    551.043    553.287    551.043    551.346    551.043
 23.370    569.000    553.492     15.508    550.738    553.185    550.738    551.046    550.738
 23.470    551.000    553.442     -2.442    550.432    553.130    550.432    550.745    550.432
 23.570    548.000    553.442     -5.442    550.124    553.125    550.124    550.443    550.124
 23.670    562.000    553.505      8.495    549.815    553.183    549.815    550.139    549.815
 23.770    574.000    553.650     20.350    549.504    553.323    549.504    549.833    549.504
 23.870    533.095    553.940    -20.845    549.191    553.606    549.191    549.527    549.191
 23.970    562.000    554.479      7.521    548.877    554.140    548.877    549.219    548.877
 24.070    529.000    555.377    -26.377    548.562    555.032    548.562    548.910    548.562
 24.170    599.179    557.101     42.078    548.245    556.750    548.245    548.600    548.245
 24.270    581.000    560.556     20.444    547.927    560.201    547.927    548.290    547.927
 24.370    596.000    567.228     28.772    547.607    566.870    547.607    547.978    547.607
 24.470    628.000    578.852     49.148    547.286    578.495    547.286    547.665    547.286
 24.570    629.000    595.970     33.030    546.964    595.617    546.964    547.351    546.964
 24.670    618.000    615.854      2.146    546.641    615.506    546.641    547.037    546.641
 24.770    601.000    630.617    -29.617    546.317    630.271    546.317    546.722    546.317
 24.870    634.000    631.006      2.994    545.991    630.651    545.991    546.406    545.991
 24.970    584.000    616.510    -32.510    545.664    616.134    545.664    546.090    545.664
 25.070    640.467    596.094     44.373    545.337    595.693    545.337    545.773    545.337
 25.170    564.000    578.072    -14.072    545.008    577.647    545.008    545.456    545.008
 25.270    592.000    565.537     26.463    544.678    565.090    544.678    545.138    544.678
 25.370    565.000    558.040      6.960    544.347    557.574    544.347    544.821    544.347
 25.470    572.000    553.904     18.096    544.016    553.422    544.016    544.503    544.016
 25.570    543.000    551.584     -8.584    543.683    551.085    543.683    544.185    543.683
 25.670    558.722    550.137      8.585    543.350    549.622    543.350    543.868    543.350
 25.770    597.000    549.116     47.884    543.015    548.583    543.015    543.551    543.015
 25.870    646.000    548.329     97.671    542.680    547.777    542.680    543.234    542.680
 25.970    507.407    547.694    -40.286    542.344    547.122    542.344    542.917    542.344
 26.070    551.000    547.170      3.830    542.007    546.577    542.007    542.602    542.007
 26.170    535.000    546.730    -11.730    541.670    546.114    541.670    542.287    541.670
 26.270    567.606    546.361     21.245    541.332    545.720    541.332    541.973    541.332
 26.370    539.000    546.055     -7.055    540.993    545.387    540.993    541.661    540.993
 26.470    582.715    545.807     36.909    540.654    545.111    540.654    541.351    540.654
 26.570    504.000    545.617    -41.617    540.314    544.889    540.314    541.042    540.314
 26.670    553.000    545.487      7.513    539.974    544.726    539.974    540.735    539.974
 26.770    544.000    545.425     -1.425    539.633    544.627    539.633    540.432    539.633
 26.870    530.000    545.443    -15.443    539.291    544.603    539.291    540.131    539.291
 26.970    551.000    545.552      5.448    538.949    544.668    538.949    539.833    538.949
 27.070    552.000    545.776      6.224    538.607    544.843    538.607    539.540    538.607
 27.170    527.475    546.149    -18.675    538.264    545.161    538.264    539.252    538.264
 27.270    602.000    546.721     55.279    537.921    545.672    537.921    538.969    537.921
 27.370    549.000    547.568      1.432    537.578    546.452    537.578    538.693    537.578
 27.470    605.000    548.832     56.168    537.234    547.640    537.234    538.425    537.234
 27.570    551.000    550.887      0.113    536.890    549.609    536.890    538.165    536.890
 27.670    540.310    555.045    -14.736    536.545    553.670    536.545    537.917    536.545
 27.770    595.000    565.701     29.299    536.201    564.213    536.201    537.681    536.201
 27.870    595.000    593.819      1.181    535.856    592.197    535.856    537.461    535.856
 27.970    622.538    656.460    -33.922    535.511    654.674    535.511    537.258    535.511
 28.070    805.236    761.987     43.249    535.166    760.005    535.166    537.078    535.166
 28.170    897.000    883.479     13.521    534.821    881.281    534.821    536.922    534.821
 28.270    953.000    952.270      0.730    534.475    949.852    534.475    536.797    534.475
 28.370    890.000    916.860    -26.860    534.130    914.220    534.130    536.707    534.130
 28.470    774.113    815.347    -41.234    533.785    812.445    533.785    536.658    533.785
 28.570    761.707    726.749     34.957    533.439    723.521    533.439    536.658    533.439
 28.670    708.000    699.636      8.364    533.094    696.008    533.094    536.711    533.094
 28.770    745.000    735.043      9.957    532.748    730.948    532.748    536.824    532.748
 28.870    794.000    797.882     -3.882    532.403    793.261    532.403    537.002    532.403
 28.970    785.717    833.309    -47.592    532.058    828.106    532.058    537.247    532.058
 29.070    803.363    804.457     -1.094    531.713    798.620    531.713    537.553    531.713
 29.170    700.000    731.251    -31.251    531.368    724.727    531.368    537.905    531.368
 29.270    631.616    655.985    -24.369    531.023    648.747    531.023    538.276    531.023
 29.370    639.777    602.883     36.894    530.678    594.954    530.678    538.617    530.678
 29.470    550.000    573.870    -23.870    530.334    565.344    530.334    538.866    530.334
 29.570    577.000    560.491     16.509    529.990    551.533    529.990    538.950    529.990
 29.670    563.741    554.487      9.254    529.646    545.327    529.646    538.807    529.646
 29.770    520.619    551.268    -30.649    529.302    542.166    529.302    538.406    529.302
 29.870    579.000    549.016     29.984    528.959    540.219    528.959    537.756    528.959
 29.970    581.000    547.172     33.828    528.616    538.883    528.616    536.906    528.616
 30.070    562.000    545.616     16.384    528.274    537.966    528.274    535.923    528.274
 30.170    537.000    544.383     -7.383    527.932    537.435    527.932    534.879    527.932
 30.270    563.000    543.652     19.348    527.590    537.412    527.590    533.828    527.590
 30.370    547.000    543.894      3.106    527.248    538.329    527.248    532.811    527.248
 30.470    602.000    546.192     55.808    526.908    541.245    526.908    531.848    526.908
 30.570    571.000    552.356     18.644    526.567    547.961    526.567    530.951    526.567
 30.670    564.000    564.220     -0.220    526.227    560.308    526.227    530.119    526.227
 30.770    558.000    581.666    -23.666    525.888    578.169    525.888    529.352    525.888
 30.870    605.000    600.109      4.891    525.549    596.970    525.549    528.642    525.549
 30.970    636.000    609.995     26.005    525.211    607.172    525.211    527.984    525.211
 31.070    590.000    603.961    -13.961    524.873    601.419    524.873    527.372    524.873
 31.170    597.151    586.127     11.024    524.536    583.835    524.536    526.799    524.536
 31.270    608.273    566.242     42.031    524.199    564.165    524.199    526.259    524.199
 31.370    534.868    550.740    -15.872    523.864    548.846    523.864    525.748    523.864
 31.470    548.000    541.103      6.897    523.528    539.364    523.528    525.262    523.528
 31.570    544.000    535.955      8.045    523.194    534.350    523.194    524.797    523.194
 31.670    534.000    533.361      0.639    522.860    531.871    522.860    524.349    522.860
 31.770    524.000    531.969     -7.969    522.527    530.579    522.527    523.916    522.527
 31.870    494.577    531.111    -36.534    522.195    529.809    522.195    523.496    522.195
 31.970    510.000    530.522    -20.522    521.863    529.298    521.863    523.087    521.863
 32.070    488.732    530.109    -41.377    521.533    528.953    521.533    522.688    521.533
 32.170    550.000    529.836     20.164    521.203    528.742    521.203    522.297    521.203
 32.270    518.000    529.693    -11.693    520.874    528.653    520.874    521.913    520.874
 32.370    519.000    529.679    -10.679    520.545    528.688    520.545    521.536    520.545
 32.470    539.000    529.804      9.196    520.218    528.857    520.218    521.164    520.218
 32.570    536.000    530.086      5.914    519.892    529.179    519.892    520.798    519.892
 32.670    537.000    530.554      6.446    519.566    529.682    519.566    520.437    519.566
 32.770    542.000    531.251     10.749    519.241    530.412    519.241    520.079    519.241
 32.870    573.340    532.241     41.099    518.918    531.432    518.918    519.726    518.918
 32.970    546.000    533.618     12.382    518.595    532.835    518.595    519.377    518.595
 33.070    558.529    535.530     22.999    518.273    534.771    518.273    519.030    518.273
 33.170    591.000    538.257     52.743    517.952    537.521    517.952    518.687    517.952
 33.270    603.000    542.440     60.560    517.632    541.724    517.632    518.347    517.632
 33.370    535.000    549.685    -14.685    517.313    548.986    517.313    518.009    517.313
 33.470    586.000    563.751     22.249    516.996    563.067    516.996    517.675    516.996
 33.570    601.714    591.920      9.794    516.679    591.246    516.679    517.342    516.679
 33.670    646.000    644.670      1.330    516.363    644.002    516.363    517.012    516.363
 33.770    683.000    730.822    -47.822    516.049    730.155    516.049    516.684    516.049
 33.870    810.000    847.310    -37.310    515.735    846.642    515.735    516.359    515.735
 33.970   1002.000    967.152     34.848    515.423    966.490    515.423    516.035    515.423
 34.070   1086.023   1037.239     48.784    515.112   1036.596    515.112    515.714    515.112
 34.170   1056.813   1014.245     42.568    514.802   1013.633    514.802    515.395    514.802
 34.270    901.000    914.256    -13.256    514.493    913.671    514.493    515.077    514.493
 34.370    823.000    790.952     32.048    514.185    790.384    514.185    514.762    514.185
 34.470    653.000    686.196    -33.196    513.879    685.635    513.879    514.448    513.879
 34.570    585.000    614.986    -29.986    513.573    614.430    513.573    514.136    513.573
 34.670    613.046    573.733     39.313    513.269    573.179    513.269    513.826    513.269
 34.770    557.000    552.104      4.896    512.967    551.555    512.967    513.518    512.967
 34.870    564.000    540.902     23.098    512.665    540.357    512.665    513.211    512.665
 34.970    562.000    534.557     27.443    512.365    534.015    512.365    512.906    512.365
 35.070    545.000    530.419     14.581    512.066    529.881    512.066    512.603    512.066
 35.170    560.679    527.396     33.283    511.768    526.862    511.768    512.302    511.768
 35.270    524.620    525.038     -0.417    511.471    524.507    511.471    512.002    511.471
 35.370    542.000    523.133     18.867    511.176    522.605    511.176    511.704    511.176
 35.470    529.000    521.557      7.443    510.883    521.032    510.883    511.408    510.883
 35.570    513.000    520.230     -7.230    510.590    519.707    510.590    511.113    510.590
 35.670    516.000    519.093     -3.093    510.299    518.573    510.299    510.820    510.299
 35.770    510.000    518.107     -8.107    510.009    517.588    510.009    510.529    510.009
 35.870    509.000    517.240     -8.240    509.721    516.722    509.721    510.239    509.721
 35.970    473.000    516.471    -43.471    509.434    515.954    509.434    509.951    509.434
 36.070    490.783    515.782    -24.999    509.149    515.266    509.149    509.665    509.149
 36.170    495.776    515.161    -19.385    508.865    514.645    508.865    509.380    508.865
 36.270    490.097    514.598    -24.501    508.582    514.083    508.582    509.097    508.582
 36.370    502.000    514.088    -12.088    508.301    513.573    508.301    508.816    508.301
 36.470    510.000    513.626     -3.626    508.021    513.111    508.021    508.536    508.021
 36.570    511.114    513.210     -2.096    507.743    512.695    507.743    508.258    507.743
 36.670    498.000    512.843    -14.843    507.466    512.328    507.466    507.982    507.466
 36.770    514.000    512.533      1.467    507.191    512.017    507.191    507.707    507.191
 36.870    509.000    512.303     -3.303    506.917    511.786    506.917    507.434    506.917
 36.970    514.000    512.206      1.794    506.645    511.688    506.645    507.163    506.645
 37.070    503.424    512.350     -8.926    506.374    511.831    506.374    506.893    506.374
 37.170    471.000    512.909    -41.909    506.105    512.389    506.105    506.625    506.105
 37.270    506.000    514.104     -8.104    505.837    513.583    505.837    506.359    505.837
 37.370    478.067    516.107    -38.039    505.571    515.584    505.571    506.095    505.571
 37.470    474.000    518.868    -44.868    505.306    518.344    505.306    505.832    505.306
 37.570    517.000    521.904     -4.904    505.043    521.379    505.043    505.571    505.043
 37.670    503.000    524.188    -21.188    504.782    523.662    504.782    505.312    504.782
 37.770    543.000    524.595     18.405    504.522    524.068    504.522    505.055    504.522
 37.870    537.911    522.894     15.017    504.264    522.367    504.264    504.799    504.264
 37.970    499.000    519.964    -20.964    504.007    519.436    504.007    504.545    504.007
 38.070    537.000    516.770     20.230    503.752    516.240    503.752    504.293    503.752
 38.170    513.000    513.831     -0.831    503.499    513.297    503.499    504.043    503.499
 38.270    507.942    511.412     -3.470    503.247    510.873    503.247    503.794    503.247
 38.370    533.000    509.599     23.401    502.997    509.054    502.997    503.547    502.997
 38.470    497.668    508.321    -10.653    502.748    507.771    502.748    503.302    502.748
 38.570    478.309    507.437    -29.128    502.501    506.881    502.501    503.059    502.501
 38.670    564.000    506.810     57.190    502.256    506.250    502.256    502.818    502.256
 38.770    507.000    506.338      0.662    502.013    505.774    502.013    502.578    502.013
 38.870    481.693    505.954    -24.261    501.771    505.385    501.771    502.341    501.771
 38.970    535.479    505.621     29.859    501.531    505.047    501.531    502.105    501.531
 39.070    513.288    505.319      7.969    501.292    504.741    501.292    501.871    501.292
 39.170    501.000    505.040     -4.040    501.056    504.457    501.056    501.639    501.056
 39.270    531.716    504.778     26.938    500.821    504.190    500.821    501.409    500.821
 39.370    477.000    504.530    -27.530    500.587    503.937    500.587    501.181    500.587
 39.470    511.112    504.295      6.817    500.356    503.697    500.356    500.954    500.356
 39.570    455.000    504.071    -49.071    500.126    503.468    500.126    500.730    500.126
 39.670    532.855    503.859     28.996    499.898    503.250    499.898    500.507    499.898
 39.770    524.037    503.656     20.380    499.671    503.042    499.671    500.287    499.671
 39.870    504.000    503.464      0.536    499.447    502.843    499.447    500.068    499.447
 39.970    499.000    503.282     -4.282    499.224    502.655    499.224    499.851    499.224
 40.070    492.383    503.110    -10.727    499.003    502.477    499.003    499.636    499.003
 40.170    498.000    502.948     -4.948    498.783    502.309    498.783    499.423    498.783
 40.270    480.000    502.799    -22.799    498.566    502.153    498.566    499.213    498.566
 40.370    492.000    502.661    -10.661    498.350    502.008    498.350    499.004    498.350
 40.470    514.705    502.538     12.167    498.136    501.878    498.136    498.797    498.136
 40.570    476.000    502.430    -26.430    497.924    501.762    497.924    498.592    497.924
 40.670    488.000    502.339    -14.339    497.713    501.663    497.713    498.389    497.713
 40.770    464.000    502.267    -38.267    497.505    501.584    497.505    498.189    497.505
 40.870    490.000    502.219    -12.219    497.298    501.528    497.298    497.990    497.298
 40.970    467.000    502.199    -35.199    497.093    501.499    497.093    497.793    497.093
 41.070    502.000    502.211     -0.211    496.889    501.503    496.889    497.599    496.889
 41.170    487.000    502.264    -15.264    496.688    501.547    496.688    497.406    496.688
 41.270    470.000    502.366    -32.366    496.488    501.640    496.488    497.216    496.488
 41.370    501.000    502.532     -1.532    496.290    501.796    496.290    497.028    496.290
 41.470    487.601    502.780    -15.178    496.094    502.034    496.094    496.841    496.094
 41.570    493.000    503.140    -10.140    495.900    502.384    495.900    496.657    495.900
 41.670    490.136    503.668    -13.532    495.708    502.902    495.708    496.476    495.708
 41.770    482.700    504.480    -21.780    495.517    503.704    495.517    496.296    495.517
 41.870    468.643    505.833    -37.190    495.329    505.047    495.329    496.119    495.329
 41.970    488.000    508.254    -20.254    495.142    507.458    495.142    495.944    495.142
 42.070    509.000    512.697     -3.697    494.957    511.890    494.957    495.771    494.957
 42.170    535.000    520.569     14.431    494.774    519.753    494.774    495.600    494.774
 42.270    508.000    533.413    -25.413    494.592    532.590    494.592    495.432    494.592
 42.370    533.262    552.068    -18.806    494.413    551.241    494.413    495.266    494.413
 42.470    533.679    575.424    -41.746    494.235    574.597    494.235    495.102    494.235
 42.570    579.405    599.156    -19.752    494.060    598.328    494.060    494.940    494.060
 42.670    550.000    615.549    -65.549    493.886    614.717    493.886    494.782    493.886
 42.770    590.000    617.033    -27.033    493.714    616.190    493.714    494.625    493.714
 42.870    641.185    602.703     38.481    493.543    601.838    493.543    494.471    493.543
 42.970    610.000    579.368     30.632    493.375    578.474    493.375    494.319    493.375
 43.070    565.819    555.228     10.591    493.209    554.303    493.209    494.170    493.209
 43.170    554.252    535.300     18.951    493.044    534.345    493.044    494.024    493.044
 43.270    524.000    521.189      2.811    492.881    520.206    492.881    493.880    492.881
 43.370    499.000    512.302    -13.302    492.720    511.294    492.720    493.738    492.720
 43.470    521.000    507.139     13.861    492.561    506.107    492.561    493.600    492.561
 43.570    532.000    504.222     27.778    492.404    503.167    492.404    493.464    492.404
 43.670    509.000    502.508      6.492    492.249    501.430    492.249    493.331    492.249
 43.770    522.127    501.404     20.723    492.096    500.302    492.096    493.200    492.096
 43.870    535.916    500.618     35.299    491.944    499.491    491.944    493.073    491.944
 43.970    493.000    500.016     -7.016    491.795    498.864    491.795    492.948    491.795
 44.070    494.000    499.536     -5.536    491.647    498.357    491.647    492.827    491.647
 44.170    471.000    499.146    -28.146    491.501    497.939    491.501    492.709    491.501
 44.270    511.991    498.825     13.166    491.357    497.589    491.357    492.594    491.357
 44.370    504.000    498.559      5.441    491.215    497.293    491.215    492.482    491.215
 44.470    495.807    498.340     -2.533    491.074    497.042    491.074    492.374    491.074
 44.570    531.278    498.159     33.119    490.936    496.827    490.936    492.269    490.936
 44.670    507.000    498.012      8.988    490.799    496.644    490.799    492.167    490.799
 44.770    500.000    497.894      2.106    490.665    496.489    490.665    492.070    490.665
 44.870    495.654    497.802     -2.148    490.532    496.358    490.532    491.976    490.532
 44.970    500.000    497.735      2.265    490.401    496.249    490.401    491.887    490.401
 45.070    498.000    497.690      0.310    490.272    496.161    490.272    491.801    490.272
 45.170    518.000    497.668     20.332    490.144    496.093    490.144    491.720    490.144
 45.270    535.000    497.667     37.333    490.019    496.043    490.019    491.644    490.019
 45.370    541.000    497.688     43.312    489.896    496.012    489.896    491.573    489.896
 45.470    492.236    497.731     -5.495    489.774    495.999    489.774    491.506    489.774
 45.570    493.000    497.797     -4.797    489.654    496.006    489.654    491.445    489.654
 45.670    486.000    497.887    -11.887    489.536    496.033    489.536    491.390    489.536
 45.770    499.776    498.002      1.774    489.420    496.081    489.420    491.341    489.420
 45.870    508.000    498.144      9.856    489.306    496.152    489.306    491.299    489.306
 45.970    506.000    498.317      7.683    489.193    496.248    489.193    491.263    489.193
 46.070    439.000    498.524    -59.524    489.083    496.372    489.083    491.235    489.083
 46.170    506.000    498.768      7.232    488.974    496.527    488.974    491.215    488.974
 46.270    500.000    499.056      0.944    488.867    496.720    488.867    491.204    488.867
 46.370    466.380    499.395    -33.015    488.762    496.954    488.762    491.202    488.762
 46.470    492.635    499.793     -7.157    488.659    497.240    488.659    491.211    488.659
 46.570    470.224    500.263    -30.039    488.558    497.589    488.558    491.231    488.558
 46.670    500.370    500.825     -0.455    488.458    498.018    488.458    491.264    488.458
 46.770    496.000    501.512     -5.512    488.361    498.561    488.361    491.311    488.361
 46.870    465.000    502.391    -37.391    488.265    499.281    488.265    491.373    488.265
 46.970    490.000    503.594    -13.594    488.171    500.310    488.171    491.453    488.171
 47.070    487.296    505.381    -18.084    488.079    501.903    488.079    491.553    488.079
 47.170    516.000    508.201      7.799    487.988    504.510    487.988    491.675    487.988
 47.270    525.000    512.727     12.273    487.900    508.796    487.900    491.823    487.900
 47.370    520.000    519.754      0.246    487.813    515.552    487.813    492.002    487.813
 47.470    543.000    529.910     13.090    487.728    525.404    487.728    492.215    487.728
 47.570    553.000    543.187      9.813    487.645    538.335    487.645    492.469    487.645
 47.670    553.090    558.386     -5.297    487.564    553.140    487.564    492.771    487.564
 47.770    598.000    572.680     25.320    487.484    566.987    487.484    493.130    487.484
 47.870    547.000    581.929    -34.929    487.407    575.728    487.407    493.556    487.407
 47.970    611.000    582.762     28.238    487.331    575.982    487.331    494.061    487.331
 48.070    628.000    575.404     52.596    487.256    567.959    487.256    494.659    487.256
 48.170    604.314    563.465     40.849    487.184    555.250    487.184    495.366    487.184
 48.270    549.000    551.077     -2.077    487.113    541.967    487.113    496.200    487.113
 48.370    554.523    540.973     13.550    487.045    530.821    487.045    497.181    487.045
 48.470    572.007    534.297     37.710    486.978    522.937    486.978    498.328    486.978
 48.570    528.000    531.058     -3.058    486.912    518.303    486.912    499.662    486.912
 48.670    555.000    530.679     24.321    486.849    516.327    486.849    501.198    486.849
 48.770    497.068    532.465    -35.397    486.787    516.300    486.787    502.950    486.787
 48.870    527.000    535.872     -8.872    486.727    517.680    486.727    504.919    486.727
 48.970    548.000    540.616      7.384    486.669    520.197    486.669    507.088    486.669
 49.070    544.000    546.697     -2.697    486.612    523.897    486.612    509.413    486.612
 49.170    543.440    554.553    -11.113    486.557    529.301    486.557    511.809    486.557
 49.270    578.000    565.589     12.411    486.504    537.950    486.504    514.141    486.504
 49.370    614.000    583.508     30.492    486.453    553.734    486.453    516.221    486.453
 49.470    639.676    616.706     22.970    486.403    585.267    486.403    517.825    486.403
 49.570    688.971    681.168      7.803    486.355    648.744    486.355    518.742    486.355
 49.670    853.000    801.372     51.628    486.309    768.779    486.309    518.833    486.309
 49.770   1036.000   1004.791     31.209    486.264    972.868    486.264    518.077    486.264
 49.870   1343.000   1306.799     36.201    486.221   1276.289    486.221    516.587    486.221
 49.970   1719.000   1689.296     29.704    486.180   1660.762    486.180    514.561    486.180
 50.070   2050.151   2084.778    -34.627    486.141   2058.579    486.141    512.225    486.141
 50.170   2373.000   2381.499     -8.499    486.103   2357.797    486.103    509.780    486.103
 50.270   2372.000   2465.925    -93.925    486.066   2444.704    486.066    507.375    486.066
 50.370   2307.927   2299.167      8.760    486.032   2280.262    486.032    505.109    486.032
 50.470   1893.377   1953.119    -59.743    485.999   1936.284    485.999    503.036    485.999
 50.570   1506.779   1550.641    -43.863    485.968   1535.617    485.968    501.177    485.968
 50.670   1180.203   1192.674    -12.471    485.938   1179.220    485.938    499.536    485.938
 50.770    922.582    929.760     -7.177    485.910    917.669    485.910    498.103    485.910
 50.870    795.897    765.894     30.003    485.884    754.986    485.884    496.861    485.884
 50.970    691.000    677.742     13.258    485.859    667.860    485.859    495.792    485.859
 51.070    624.000    635.001    -11.001    485.836    626.006    485.836    494.875    485.836
 51.170    623.848    613.002     10.846    485.815    604.764    485.815    494.090    485.815
 51.270    561.979    597.258    -35.279    485.795    589.666    485.795    493.421    485.795
 51.370    599.000    582.500     16.500    485.777    575.456    485.777    492.849    485.777
 51.470    631.000    568.465     62.535    485.760    561.887    485.760    492.360    485.760
 51.570    581.000    556.182     24.818    485.745    550.001    485.745    491.943    485.745
 51.670    577.000    546.417     30.583    485.731    540.575    485.731    491.586    485.731
 51.770    551.000    539.380     11.620    485.719    533.828    485.719    491.281    485.719
 51.870    564.501    534.833     29.669    485.709    529.530    485.709    491.019    485.709
 51.970    564.000    532.318     31.682    485.700    527.229    485.700    490.795    485.700
 52.070    492.077    531.380    -39.303    485.692    526.474    485.692    490.603    485.692
 52.170    566.889    531.702     35.187    485.687    526.953    485.687    490.440    485.687
 52.270    552.849    533.188     19.661    485.682    528.572    485.682    490.302    485.682
 52.370    498.419    536.029    -37.610    485.679    531.526    485.679    490.186    485.679
 52.470    587.000    540.842     46.158    485.678    536.433    485.678    490.090    485.678
 52.570    578.000    548.942     29.058    485.678    544.611    485.678    490.013    485.678
 52.670    563.000    562.703      0.297    485.680    558.434    485.680    489.952    485.680
 52.770    615.850    585.871     29.979    485.683    581.651    485.683    489.906    485.683
 52.870    607.000    623.462    -16.462    485.688    619.277    485.688    489.874    485.688
 52.970    713.461    680.822     32.639    485.694    676.662    485.694    489.856    485.694
 53.070    829.000    761.607     67.393    485.701    757.462    485.701    489.850    485.701
 53.170    824.072    864.908    -40.836    485.710    860.770    485.710    489.857    485.710
 53.270    998.611    982.211     16.400    485.721    978.074    485.721    489.875    485.721
 53.370   1095.642   1095.080      0.562    485.733   1090.937    485.733    489.904    485.733
 53.470   1187.000   1175.921     11.079    485.746   1171.765    485.746    489.945    485.746
 53.570   1162.410   1197.430    -35.019    485.761   1193.250    485.761    489.996    485.761
 53.670   1086.000   1150.896    -64.896    485.777   1146.675    485.777    490.059    485.777
 53.770    980.000   1054.169    -74.169    485.794   1049.891    485.794    490.132    485.794
 53.870    903.422    937.028    -33.606    485.813    932.676    485.813    490.216    485.813
 53.970    778.059    824.196    -46.137    485.834    819.759    485.834    490.311    485.834
 54.070    725.000    730.003     -5.003    485.855    725.470    485.855    490.417    485.855
 54.170    649.000    659.565    -10.565    485.878    654.929    485.878    490.535    485.878
 54.270    595.000    611.570    -16.570    485.903    606.823    485.903    490.665    485.903
 54.370    595.341    581.346     13.995    485.928    576.477    485.928    490.807    485.928
 54.470    604.360    563.460     40.900    485.955    558.461    485.955    490.962    485.955
 54.570    521.000    553.328    -32.328    485.984    548.187    485.984    491.131    485.984
 54.670    511.576    547.763    -36.187    486.013    542.467    486.013    491.314    486.013
 54.770    579.000    544.852     34.148    486.044    539.388    486.044    491.512    486.044
 54.870    576.000    543.575     32.425    486.076    537.929    486.076    491.726    486.076
 54.970    570.226    543.437     26.789    486.110    537.593    486.110    491.958    486.110
 55.070    536.900    544.228     -7.329    486.145    538.169    486.145    492.208    486.145
 55.170    598.000    545.880     52.120    486.181    539.586    486.181    492.479    486.181
 55.270    573.000    548.406     24.594    486.218    541.858    486.218    492.770    486.218
 55.370    560.000    551.895      8.105    486.257    545.070    486.257    493.086    486.257
 55.470    582.000    556.530     25.470    486.296    549.404    486.296    493.426    486.296
 55.570    602.623    562.677     39.946    486.337    555.223    486.337    493.795    486.337
 55.670    611.000    571.077     39.923    486.380    563.266    486.380    494.195    486.380
 55.770    543.000    583.261    -40.261    486.423    575.059    486.423    494.629    486.423
 55.870    576.000    602.259    -26.259    486.468    593.628    486.468    495.100    486.468
 55.970    666.000    633.637     32.363    486.513    624.535    486.513    495.614    486.513
 56.070    710.426    686.581     23.844    486.560    676.960    486.560    496.175    486.560
 56.170    778.425    774.293      4.132    486.608    764.097    486.608    496.790    486.608
 56.270    850.000    912.557    -62.557    486.658    901.725    486.658    497.466    486.658
 56.370   1078.000   1115.450    -37.450    486.708   1103.916    486.708    498.213    486.708
 56.470   1316.000   1388.194    -72.194    486.760   1375.886    486.760    499.040    486.760
 56.570   1688.000   1718.795    -30.795    486.812   1705.636    486.812    499.961    486.812
 56.670   2022.954   2071.169    -48.215    486.866   2057.073    486.866    500.992    486.866
 56.770   2276.000   2383.173   -107.173    486.921   2368.039    486.921    502.152    486.921
 56.870   2483.000   2577.009    -94.009    486.977   2560.703    486.977    503.465    486.977
 56.970   2596.000   2591.660      4.340    487.034   2574.000    487.034    504.957    487.034
 57.070   2488.000   2422.570     65.430    487.092   2403.312    487.092    506.660    487.092
 57.170   2094.000   2125.426    -31.426    487.151   2104.276    487.151    508.613    487.151
 57.270   1815.000   1778.602     36.398    487.211   1755.234    487.211    510.856    487.211
 57.370   1479.542   1447.470     32.072    487.272   1421.528    487.272    513.439    487.272
 57.470   1211.000   1171.634     39.366    487.334   1142.723    487.334    516.412    487.334
 57.570   1055.000    966.026     88.974    487.398    933.708    487.398    519.832    487.398
 57.670    831.000    827.464      3.536    487.462    791.246    487.462    523.757    487.462
 57.770    759.000    743.113     15.887    487.527    702.444    487.527    528.244    487.527
 57.870    735.000    698.117     36.883    487.593    652.392    487.593    533.348    487.593
 57.970    680.000    680.522     -0.522    487.660    629.087    487.660    539.112    487.660
 58.070    702.000    683.151     18.849    487.728    625.323    487.728    545.564    487.728
 58.170    719.062    703.224     15.837    487.797    638.320    487.797    552.699    487.797
 58.270    731.031    740.720     -9.689    487.867    668.109    487.867    560.468    487.867
 58.370    768.648    796.302    -27.654    487.938    715.476    487.938    568.744    487.938
 58.470    848.000    869.316    -21.316    488.010    779.999    488.010    577.302    488.010
 58.570    921.091    956.221    -35.130    488.083    858.493    488.083    585.785    488.083
 58.670   1061.343   1049.808     11.535    488.156    944.246    488.156    593.697    488.156
 58.770   1134.000   1140.136     -6.136    488.231   1027.929    488.231    600.428    488.231
 58.870   1183.000   1217.623    -34.623    488.306   1100.599    488.306    605.335    488.306
 58.970   1316.000   1275.055     40.945    488.382   1155.587    488.382    607.873    488.382
 59.070   1272.728   1306.136    -33.408    488.459   1186.896    488.459    607.740    488.459
 59.170   1324.476   1305.859     18.617    488.537   1189.485    488.537    604.964    488.537
 59.270   1328.000   1275.766     52.234    488.615   1164.541    488.615    599.896    488.615
 59.370   1312.000   1226.831     85.169    488.695   1122.462    488.695    593.106    488.695
 59.470   1185.000   1174.584     10.416    488.775   1078.137    488.775    585.239    488.775
 59.570   1220.000   1133.448     86.552    488.856   1045.395    488.856    576.891    488.856
 59.670   1155.000   1115.788     39.212    488.938   1036.131    488.938    568.534    488.938
 59.770   1150.492   1131.853     18.638    489.020   1060.261    489.020    560.505    489.020
 59.870   1172.000   1186.412    -14.412    489.104   1122.347    489.104    553.011    489.104
 59.970   1314.000   1274.285     39.715    489.188   1217.106    489.188    546.164    489.188
 60.070   1369.000   1378.354     -9.354    489.272   1327.384    489.272    540.006    489.272
 60.170   1487.000   1470.985     16.015    489.358   1425.558    489.358    534.537    489.358
 60.270   1537.258   1520.207     17.051    489.444   1479.693    489.444    529.726    489.444
 60.370   1556.421   1502.526     53.896    489.530   1466.337    489.530    525.528    489.530
 60.470   1424.000   1415.987      8.013    489.618   1383.576    489.618    521.888    489.618
 60.570   1262.294   1280.483    -18.188    489.706   1251.348    489.706    518.749    489.706
 60.670   1181.986   1125.078     56.908    489.795   1098.766    489.795    516.054    489.795
 60.770    971.786    975.606     -3.820    489.884    951.715    489.884    513.748    489.884
 60.870    813.000    849.162    -36.162    489.974    827.345    489.974    511.780    489.974
 60.970    726.000    753.550    -27.550    490.065    733.506    490.065    510.103    490.065
 61.070    639.000    689.336    -50.336    490.156    670.810    490.156    508.675    490.156
 61.170    630.000    653.203    -23.203    490.248    635.981    490.248    507.459    490.248
 61.270    721.000    641.331     79.669    490.340    625.232    490.340    506.422    490.340
 61.370    692.962    651.731     41.231    490.433    636.601    490.433    505.534    490.433
 61.470    656.000    685.001    -29.001    490.526    670.715    490.526    504.769    490.526
 61.570    739.000    743.485     -4.485    490.620    729.939    490.620    504.102    490.620
 61.670    810.000    829.136    -19.136    490.715    816.250    490.715    503.513    490.715
 61.770    948.693    940.703      7.990    490.810    928.419    490.810    502.980    490.810
 61.870   1074.000   1071.060      2.940    490.905   1059.342    490.905    502.489    490.905
 61.970   1262.556   1205.525     57.031    491.001   1194.353    491.001    502.026    491.001
 62.070   1344.000   1322.039     21.961    491.098   1311.408    491.098    501.585    491.098
 62.170   1375.000   1394.929    -19.929    491.195   1384.839    491.195    501.161    491.195
 62.270   1274.000   1404.183   -130.183    491.292   1394.630    491.292    500.756    491.292
 62.370   1411.683   1346.556     65.127    491.390   1337.522    491.390    500.371    491.390
 62.470   1163.000   1237.825    -74.825    491.488   1229.282    491.488    500.010    491.488
 62.570   1035.000   1103.272    -68.272    491.587   1095.185    491.587    499.674    491.587
 62.670    962.000    966.682     -4.682    491.686    959.014    491.686    499.366    491.686
 62.770    799.000    844.933    -45.933    491.785    837.648    491.785    499.085    491.785
 62.870    759.276    746.949     12.327    491.885    740.015    491.885    498.833    491.885
 62.970    646.000    674.764    -28.764    491.985    668.152    491.985    498.607    491.985
 63.070    613.000    625.672    -12.672    492.086    619.357    492.086    498.407    492.086
 63.170    603.000    594.691      8.309    492.187    588.649    492.187    498.231    492.187
 63.270    605.398    576.612     28.786    492.288    570.822    492.288    498.077    492.288
 63.370    618.000    567.252     50.748    492.389    561.694    492.389    497.944    492.389
 63.470    591.000    563.956     27.044    492.491    558.612    492.491    497.830    492.491
 63.570    588.000    565.602     22.398    492.593    560.454    492.593    497.733    492.593
 63.670    563.000    572.383     -9.383    492.696    567.414    492.696    497.653    492.696
 63.770    578.000    585.512     -7.512    492.798    580.705    492.798    497.587    492.798
 63.870    640.682    606.843     33.839    492.901    602.182    492.901    497.535    492.901
 63.970    699.000    638.349     60.651    493.004    633.820    493.004    497.495    493.004
 64.070    697.413    681.416     15.998    493.107    677.005    493.107    497.466    493.107
 64.170    730.000    735.998     -5.998    493.211    731.693    493.211    497.447    493.211
 64.270    823.000    799.766     23.234    493.314    795.559    493.314    497.438    493.314
 64.370    870.000    867.440      2.560    493.418    863.325    493.418    497.437    493.418
 64.470    902.947    930.644    -27.697    493.522    926.619    493.522    497.444    493.522
 64.570    996.388    979.088     17.299    493.626    975.155    493.626    497.459    493.626
 64.670   1053.000   1003.746     49.254    493.731    999.908    493.731    497.480    493.731
 64.770   1020.000   1000.602     19.398    493.835    996.859    493.835    497.508    493.835
 64.870    949.000    971.957    -22.957    493.940    968.308    493.940    497.542    493.940
 64.970    900.196    924.811    -24.615    494.044    921.251    494.044    497.581    494.044
 65.070    838.000    868.187    -30.187    494.149    864.707    494.149    497.626    494.149
 65.170    827.000    810.409     16.591    494.254    807.000    494.254    497.675    494.254
 65.270    732.000    757.195    -25.195    494.359    753.848    494.359    497.729    494.359
 65.370    689.000    711.250    -22.250    494.464    707.956    494.464    497.788    494.464
 65.470    665.066    673.102     -8.036    494.569    669.852    494.569    497.851    494.569
 65.570    612.000    642.260    -30.260    494.674    639.046    494.674    497.918    494.674
 65.670    630.247    617.936     12.311    494.779    614.752    494.779    497.989    494.779
 65.770    601.000    599.240      1.760    494.884    596.081    494.884    498.064    494.884
 65.870    545.667    585.251    -39.583    494.989    582.113    494.989    498.142    494.989
 65.970    551.921    575.115    -23.194    495.094    571.996    495.094    498.224    495.094
 66.070    526.000    568.123    -42.123    495.199    565.020    495.199    498.310    495.199
 66.170    538.000    563.722    -25.722    495.304    560.633    495.304    498.399    495.304
 66.270    518.000    561.495    -43.495    495.409    558.418    495.409    498.491    495.409
 66.370    534.000    561.142    -27.142    495.514    558.073    495.514    498.587    495.514
 66.470    535.840    562.498    -26.658    495.619    559.435    495.619    498.686    495.619
 66.570    580.000    565.595     14.405    495.723    562.535    495.723    498.788    495.723
 66.670    563.212    570.778     -7.566    495.828    567.717    495.828    498.893    495.828
 66.770    559.266    578.892    -19.626    495.932    575.827    495.932    499.002    495.932
 66.870    586.000    591.574     -5.574    496.036    588.500    496.036    499.114    496.036
 66.970    566.634    611.618    -44.985    496.140    608.532    496.140    499.230    496.140
 67.070    634.595    643.362     -8.766    496.244    640.259    496.244    499.349    496.244
 67.170    723.304    692.888     30.416    496.348    689.765    496.348    499.471    496.348
 67.270    808.391    767.794     40.597    496.452    764.647    496.452    499.598    496.452
 67.370    872.000    876.209     -4.209    496.555    873.037    496.555    499.727    496.555
 67.470    958.000   1024.915    -66.915    496.658   1021.719    496.658    499.861    496.658
 67.570   1180.112   1216.686    -36.573    496.761   1213.472    496.761    499.999    496.761
 67.670   1388.000   1447.378    -59.378    496.864   1444.156    496.864    500.141    496.864
 67.770   1706.000   1703.469      2.531    496.966   1700.248    496.966    500.287    496.966
 67.870   1977.000   1960.717     16.283    497.069   1957.510    497.069    500.438    497.069
 67.970   2196.000   2184.750     11.250    497.171   2181.563    497.171    500.593    497.171
 68.070   2384.000   2335.701     48.299    497.272   2332.534    497.272    500.754    497.272
 68.170   2474.000   2380.000     94.000    497.374   2376.834    497.374    500.920    497.374
 68.270   2333.000   2306.454     26.546    497.475   2303.254    497.475    501.092    497.475
 68.370   2169.000   2133.086     35.914    497.575   2129.809    497.575    501.271    497.575
 68.470   2003.000   1896.800    106.200    497.676   1893.408    497.676    501.455    497.676
 68.570   1692.943   1637.077     55.867    497.776   1633.541    497.776    501.647    497.776
 68.670   1376.998   1385.965     -8.967    497.875   1382.268    497.875    501.847    497.875
 68.770   1153.000   1164.882    -11.882    497.975   1161.015    497.975    502.055    497.975
 68.870    944.000    984.715    -40.715    498.074    980.674    498.074    502.273    498.074
 68.970    811.000    847.523    -36.523    498.172    843.308    498.172    502.500    498.172
 69.070    698.543    749.181    -50.638    498.270    744.792    498.270    502.737    498.270
 69.170    677.409    682.293     -4.884    498.368    677.727    498.368    502.987    498.368
 69.270    675.000    638.689     36.311    498.465    633.941    498.465    503.250    498.465
 69.370    607.578    611.078     -3.501    498.562    606.140    498.562    503.526    498.562
 69.470    608.000    593.802     14.198    498.658    588.660    498.658    503.819    498.658
 69.570    603.000    582.919     20.081    498.754    577.558    498.754    504.129    498.754
 69.670    580.000    575.920      4.080    498.849    570.322    498.849    504.459    498.849
 69.770    553.000    571.320    -18.320    498.944    565.464    498.944    504.810    498.944
 69.870    587.368    568.295     19.073    499.039    562.155    499.039    505.187    499.039
 69.970    571.000    566.410      4.590    499.132    559.958    499.132    505.592    499.132
 70.070    588.968    565.451     23.517    499.226    558.654    499.226    506.029    499.226
 70.170    598.559    565.335     33.224    499.319    558.156    499.319    506.503    499.319
 70.270    575.000    566.074      8.926    499.411    558.468    499.411    507.021    499.411
 70.370    610.000    567.779     42.221    499.502    559.693    499.502    507.591    499.502
 70.470    552.000    570.706    -18.706    499.594    562.080    499.594    508.222    499.594
 70.570    609.710    575.346     34.364    499.684    566.105    499.684    508.926    499.684
 70.670    539.000    582.557    -43.557    499.774    572.613    499.774    509.717    499.774
 70.770    646.000    593.753     52.247    499.863    582.997    499.863    510.615    499.863
 70.870    596.553    611.099    -14.546    499.952    599.401    499.952    511.642    499.952
 70.970    652.000    637.671     14.329    500.040    624.873    500.040    512.823    500.040
 71.070    679.000    677.458      1.542    500.127    663.371    500.127    514.191    500.127
 71.170    685.000    735.081    -50.081    500.214    719.477    500.214    515.781    500.214
 71.270    854.000    815.115     38.885    500.300    797.727    500.300    517.636    500.300
 71.370    901.000    921.002    -20.002    500.385    901.516    500.385    519.800    500.385
 71.470   1025.000   1053.648    -28.648    500.470   1031.704    500.470    522.322    500.470
 71.570   1163.000   1209.999    -46.999    500.554   1185.189    500.554    525.251    500.554
 71.670   1402.000   1381.884     20.116    500.637   1353.757    500.637    528.634    500.637
 71.770   1623.927   1555.384     68.543    500.720   1523.449    500.720    532.515    500.720
 71.870   1657.966   1711.060    -53.094    500.801   1674.796    500.801    536.926    500.801
 71.970   1826.000   1826.011     -0.011    500.882   1784.883    500.882    541.886    500.882
 72.070   1891.000   1879.418     11.582    500.963   1832.896    500.963    547.388    500.963
 72.170   1854.254   1860.905     -6.650    501.042   1808.497    501.042    553.391    501.042
 72.270   1742.591   1775.827    -33.236    501.121   1717.120    501.121    559.807    501.121
 72.370   1691.000   1642.242     48.758    501.199   1576.973    501.199    566.479    501.199
 72.470   1488.000   1482.789      5.211    501.276   1410.935    501.276    573.162    501.276
 72.570   1363.000   1318.030     44.970    501.352   1239.912    501.352    579.516    501.352
 72.670   1184.000   1163.398     20.602    501.427   1079.771    501.427    585.104    501.427
 72.770   1026.000   1028.504     -2.504    501.502    940.615    501.502    589.440    501.502
 72.870    909.008    917.609     -8.601    501.576    827.158    501.576    592.072    501.576
 72.970    825.000    830.740     -5.740    501.649    739.735    501.649    592.693    501.649
 73.070    802.092    765.153     36.939    501.721    675.674    501.721    591.232    501.721
 73.170    708.628    716.788     -8.160    501.792    630.728    501.792    587.878    501.792
 73.270    674.604    681.419     -6.815    501.862    600.282    501.862    583.021    501.862
 73.370    613.000    655.363    -42.363    501.931    580.169    501.931    577.143    501.931
 73.470    680.646    635.775     44.871    502.000    567.075    502.000    570.716    502.000
 73.570    604.835    620.673    -15.838    502.067    558.621    502.067    564.135    502.067
 73.670    664.000    608.789     55.211    502.134    553.245    502.134    557.694    502.134
 73.770    583.864    599.368    -15.504    502.199    549.991    502.199    551.593    502.199
 73.870    599.737    591.982      7.755    502.264    548.309    502.264    545.955    502.264
 73.970    604.000    586.373     17.627    502.327    547.878    502.327    540.844    502.327
 74.070    611.320    582.335     28.985    502.390    548.469    502.390    536.281    502.390
 74.170    616.000    579.640     36.360    502.452    549.861    502.452    532.260    502.452
 74.270    597.000    577.987     19.013    502.513    551.779    502.513    528.756    502.513
 74.370    586.000    576.986      9.014    502.572    553.869    502.572    525.729    502.572
 74.470    589.000    576.156     12.844    502.631    555.697    502.631    523.134    502.631
 74.570    549.831    574.975    -25.144    502.689    556.789    502.689    520.922    502.689
 74.670    576.658    573.000      3.658    502.745    556.750    502.745    519.045    502.745
 74.770    613.000    570.029     42.971    502.801    555.425    502.801    517.453    502.801
 74.870    613.000    566.188     46.812    502.855    552.983    502.855    516.106    502.855
 74.970    536.026    561.863    -25.837    502.909    549.849    502.909    514.962    502.909
 75.070    581.000    557.552     23.448    502.961    546.558    502.961    513.989    502.961
 75.170    581.000    553.763     27.237    503.012    543.645    503.012    513.157    503.012
 75.270    591.000    550.986     40.014    503.062    541.627    503.062    512.442    503.062
 75.370    580.000    549.695     30.305    503.111    540.997    503.111    511.822    503.111
 75.470    571.000    550.363     20.637    503.159    542.247    503.159    511.283    503.159
 75.570    582.000    553.464     28.536    503.206    545.862    503.206    510.810    503.206
 75.670    565.567    559.448      6.119    503.252    552.303    503.252    510.392    503.252
 75.770    600.000    568.685     31.315    503.296    561.949    503.296    510.021    503.296
 75.870    611.000    581.372     29.628    503.340    575.003    503.340    509.690    503.340
 75.970    568.000    597.417    -29.417    503.382    591.380    503.382    509.393    503.382
 76.070    611.000    616.318     -5.318    503.423    610.583    503.423    509.125    503.423
 76.170    624.000    637.068    -13.068    503.463    631.608    503.463    508.882    503.463
 76.270    614.789    658.100    -43.311    503.502    652.892    503.502    508.662    503.502
 76.370    699.000    677.311     21.689    503.539    672.336    503.539    508.462    503.539
 76.470    668.519    692.230    -23.712    503.575    687.473    503.575    508.280    503.575
 76.570    736.000    700.480     35.520    503.610    695.925    503.610    508.113    503.610
 76.670    700.000    700.501     -0.501    503.644    696.137    503.644    507.959    503.644
 76.770    674.000    692.204    -18.204    503.677    688.019    503.677    507.819    503.677
 76.870    692.000    677.005     14.995    503.708    672.988    503.708    507.689    503.708
 76.970    648.000    657.225     -9.225    503.738    653.365    503.738    507.570    503.738
 77.070    668.877    635.331     33.545    503.767    631.617    503.767    507.460    503.767
 77.170    647.538    613.446     34.091    503.795    609.867    503.795    507.357    503.795
 77.270    619.000    593.149     25.851    503.821    589.696    503.821    507.263    503.821
 77.370    569.000    575.443     -6.443    503.846    572.107    503.846    507.175    503.846
 77.470    529.000    560.799    -31.799    503.870    557.571    503.870    507.093    503.870
 77.570    527.000    549.251    -22.251    503.892    546.124    503.892    507.016    503.892
 77.670    490.000    540.527    -50.527    503.913    537.494    503.913    506.944    503.913
 77.770    507.000    534.177    -27.177    503.933    531.231    503.933    506.877    503.933
 77.870    536.000    529.693      6.307    503.952    526.830    503.952    506.815    503.952
 77.970    502.000    526.596    -24.596    503.969    523.809    503.969    506.755    503.969
 78.070    516.952    524.480     -7.528    503.984    521.764    503.984    506.700    503.984
 78.170    493.000    523.033    -30.033    503.999    520.384    503.999    506.647    503.999
 78.270    501.000    522.033    -21.033    504.012    519.448    504.012    506.597    504.012
 78.370    538.211    521.333     16.878    504.024    518.806    504.024    506.550    504.024
 78.470    535.493    520.841     14.652    504.034    518.370    504.034    506.505    504.034
 78.570    488.799    520.506    -31.707    504.043    518.087    504.043    506.463    504.043
 78.670    496.528    520.304    -23.776    504.051    517.932    504.051    506.423    504.051
 78.770    477.000    520.219    -43.219    504.057    517.892    504.057    506.384    504.057
 78.870    507.000    520.244    -13.244    504.062    517.958    504.062    506.348    504.062
 78.970    555.453    520.452     35.001    504.065    518.204    504.065    506.313    504.065
 79.070    507.000    520.837    -13.837    504.067    518.624    504.067    506.280    504.067
 79.170    480.876    521.423    -40.547    504.068    519.242    504.068    506.249    504.068
 79.270    497.000    522.237    -25.237    504.067    520.085    504.067    506.219    504.067
 79.370    490.000    523.312    -33.312    504.065    521.185    504.065    506.190    504.065
 79.470    558.147    524.683     33.464    504.061    522.580    504.061    506.163    504.061
 79.570    497.000    526.398    -29.398    504.056    524.314    504.056    506.137    504.056
 79.670    525.069    528.521     -3.452    504.049    526.455    504.049    506.112    504.049
 79.770    542.000    531.150     10.850    504.041    529.099    504.041    506.089    504.041
 79.870    512.000    534.426    -22.426    504.032    532.388    504.032    506.066    504.032
 79.970    521.051    538.548    -17.497    504.021    536.522    504.021    506.043    504.021
 80.070    527.000    543.791    -16.791    504.008    541.775    504.008    506.021    504.008
 80.170    575.000    550.515     24.485    503.995    548.509    503.995    505.998    503.995
 80.270    588.045    559.140     28.905    503.979    557.144    503.979    505.975    503.979
 80.370    552.000    570.078    -18.078    503.962    568.093    503.962    505.950    503.962
 80.470    600.000    583.632     16.368    503.944    581.659    503.944    505.923    503.944
 80.570    637.707    599.886     37.821    503.924    597.927    503.924    505.892    503.924
 80.670    637.000    618.621     18.379    503.903    616.680    503.903    505.858    503.903
 80.770    633.949    639.263     -5.314    503.880    637.342    503.880    505.820    503.880
 80.870    648.000    660.879    -12.879    503.855    658.983    503.855    505.777    503.855
 80.970    721.000    682.257     38.743    503.829    680.389    503.829    505.730    503.829
 81.070    694.000    702.059     -8.059    503.802    700.221    503.802    505.678    503.802
 81.170    665.000    719.012    -54.012    503.773    717.207    503.773    505.624    503.773
 81.270    718.000    732.048    -14.048    503.742    730.277    503.742    505.566    503.742
 81.370    752.567    740.387     12.179    503.710    738.650    503.710    505.506    503.710
 81.470    749.049    743.606      5.443    503.676    741.902    503.676    505.445    503.676
 81.570    771.000    741.661     29.339    503.641    739.989    503.641    505.383    503.641
 81.670    707.000    734.843    -27.843    503.604    733.201    503.604    505.320    503.604
 81.770    768.180    723.722     44.458    503.566    722.107    503.566    505.257    503.566
 81.870    696.586    709.174    -12.588    503.526    707.582    503.526    505.193    503.526
 81.970    743.000    692.337     50.663    503.485    690.766    503.485    505.130    503.485
 82.070    681.000    674.418      6.582    503.442    672.864    503.442    505.066    503.442
 82.170    627.000    656.434    -29.434    503.397    654.895    503.397    505.003    503.397
 82.270    647.000    639.063      7.937    503.351    637.537    503.351    504.939    503.351
 82.370    592.471    622.675    -30.205    503.303    621.160    503.303    504.875    503.303
 82.470    581.456    607.464    -26.008    503.254    605.957    503.254    504.812    503.254
 82.570    613.000    593.582     19.418    503.203    592.082    503.203    504.748    503.203
 82.670    555.000    581.206    -26.206    503.150    579.711    503.150    504.683    503.150
 82.770    555.000    570.527    -15.527    503.096    569.036    503.096    504.619    503.096
 82.870    598.502    561.713     36.789    503.040    560.223    503.040    504.553    503.040
 82.970    540.000    554.887    -14.887    502.983    553.398    502.983    504.488    502.983
 83.070    580.397    550.117     30.280    502.924    548.629    502.924    504.422    502.924
 83.170    556.000    547.406      8.594    502.863    545.916    502.863    504.355    502.863
 83.270    507.528    546.672    -39.144    502.801    545.179    502.801    504.287    502.801
 83.370    531.882    547.741    -15.859    502.737    546.245    502.737    504.219    502.737
 83.470    576.123    550.333     25.791    502.672    548.834    502.672    504.149    502.672
 83.570    563.000    554.059      8.941    502.605    552.556    502.605    504.079    502.605
 83.670    531.627    558.430    -26.803    502.536    556.923    502.536    504.008    502.536
 83.770    510.000    562.873    -52.873    502.466    561.363    502.466    503.936    502.466
 83.870    560.000    566.767     -6.767    502.394    565.253    502.394    503.863    502.394
 83.970    551.000    569.501    -18.501    502.320    567.985    502.320    503.789    502.320
 84.070    569.196    570.579     -1.382    502.245    569.063    502.245    503.714    502.245
 84.170    594.783    569.735     25.048    502.168    568.220    502.168    503.638    502.168
 84.270    543.000    567.003    -24.003    502.090    565.490    502.090    503.561    502.090
 84.370    559.000    562.691     -3.691    502.009    561.181    502.009    503.482    502.009
 84.470    517.639    557.269    -39.631    501.928    555.762    501.928    503.403    501.928
 84.570    557.000    551.253      5.747    501.844    549.748    501.844    503.322    501.844
 84.670    547.000    545.119      1.881    501.759    543.616    501.759    503.240    501.759
 84.770    511.000    539.258    -28.258    501.673    537.755    501.673    503.158    501.673
 84.870    538.000    533.954      4.046    501.584    532.451    501.584    503.074    501.584
 84.970    555.957    529.385     26.572    501.494    527.880    501.494    502.989    501.494
 85.070    531.000    525.628      5.372    501.403    524.120    501.403    502.902    501.403
 85.170    489.000    522.678    -33.678    501.309    521.166    501.309    502.815    501.309
 85.270    520.699    520.477      0.222    501.214    518.959    501.214    502.726    501.214
 85.370    489.581    518.933    -29.352    501.118    517.409    501.118    502.637    501.118
 85.470    476.854    517.950    -41.096    501.020    516.419    501.020    502.546    501.020
 85.570    543.324    517.445     25.879    500.920    515.906    500.920    502.454    500.920
 85.670    486.000    517.359    -31.359    500.818    515.810    500.818    502.362    500.818
 85.770    510.000    517.666     -7.666    500.715    516.108    500.715    502.268    500.715
 85.870    539.000    518.383     20.617    500.610    516.814    500.610    502.173    500.610
 85.970    511.000    519.564     -8.564    500.504    517.982    500.504    502.076    500.504
 86.070    528.000    521.301      6.699    500.396    519.706    500.396    501.979    500.396
 86.170    537.000    523.721     13.279    500.286    522.112    500.286    501.881    500.286
 86.270    540.000    526.973     13.027    500.175    525.348    500.175    501.782    500.175
 86.370    536.000    531.214      4.786    500.062    529.571    500.062    501.682    500.062
 86.470    563.000    536.587     26.413    499.947    534.923    499.947    501.581    499.947
 86.570    556.000    543.194     12.806    499.831    541.508    499.831    501.479    499.831
 86.670    566.000    551.067     14.933    499.713    549.358    499.713    501.376    499.713
 86.770    522.000    560.135    -38.135    499.593    558.401    499.593    501.272    499.593
 86.870    543.000    570.195    -27.195    499.472    568.434    499.472    501.167    499.472
 86.970    561.465    580.893    -19.427    499.349    579.103    499.349    501.062    499.349
 87.070    593.264    591.711      1.553    499.224    589.893    499.224    500.955    499.224
 87.170    572.000    601.979    -29.979    499.098    600.133    499.098    500.848    499.098
 87.270    669.000    610.907     58.093    498.970    609.035    498.970    500.740    498.970
 87.370    618.000    617.673      0.327    498.841    615.776    498.841    500.632    498.841
 87.470    628.000    621.570      6.430    498.710    619.651    498.710    500.523    498.710
 87.570    615.000    622.199     -7.199    498.577    620.262    498.577    500.413    498.577
 87.670    647.000    619.584     27.416    498.443    617.630    498.443    500.303    498.443
 87.770    622.510    614.161      8.350    498.307    612.191    498.307    500.192    498.307
 87.870    658.000    606.655     51.345    498.170    604.671    498.170    500.081    498.170
 87.970    582.621    597.924    -15.303    498.031    595.924    498.031    499.970    498.031
 88.070    616.000    588.835     27.165    497.890    586.819    497.890    499.858    497.890
 88.170    563.961    580.188    -16.227    497.748    578.153    497.748    499.746    497.748
 88.270    621.000    572.660     48.340    497.604    570.604    497.604    499.635    497.604
 88.370    602.952    566.769     36.183    497.458    564.690    497.458    499.523    497.458
 88.470    520.782    562.859    -42.077    497.311    560.753    497.311    499.411    497.311
 88.570    557.000    561.087     -4.087    497.162    558.952    497.162    499.300    497.162
 88.670    602.000    561.431     40.569    497.012    559.266    497.012    499.188    497.012
 88.770    561.000    563.701     -2.701    496.860    561.502    496.860    499.078    496.860
 88.870    643.000    567.552     75.448    496.706    565.318    496.706    498.968    496.706
 88.970    573.000    572.511      0.489    496.551    570.238    496.551    498.859    496.551
 89.070    568.017    577.999     -9.982    496.395    575.684    496.395    498.751    496.395
 89.170    585.000    583.360      1.640    496.237    581.000    496.237    498.644    496.237
 89.270    605.947    587.907     18.040    496.077    585.499    496.077    498.539    496.077
 89.370    627.000    590.995     36.005    495.915    588.534    495.915    498.436    495.915
 89.470    603.044    592.118     10.926    495.753    589.598    495.753    498.335    495.753
 89.570    592.000    591.018      0.982    495.588    588.434    495.588    498.237    495.588
 89.670    548.000    587.742    -39.742    495.422    585.086    495.422    498.142    495.422
 89.770    617.044    582.605     34.439    495.255    579.871    495.255    498.051    495.255
 89.870    560.000    576.094    -16.094    495.086    573.273    495.086    497.963    495.086
 89.970    578.000    568.753      9.247    494.915    565.838    494.915    497.881    494.915
 90.070    559.000    561.101     -2.101    494.743    558.084    494.743    497.805    494.743
 90.170    549.578    553.586     -4.008    494.570    550.459    494.570    497.735    494.570
 90.270    576.842    546.562     30.280    494.394    543.315    494.394    497.674    494.394
 90.370    502.016    540.272    -38.256    494.218    536.896    494.218    497.621    494.218
 90.470    533.000    534.861     -1.861    494.040    531.344    494.040    497.578    494.040
 90.570    535.000    530.421      4.579    493.860    526.750    493.860    497.548    493.860
 90.670    508.000    526.924    -18.924    493.679    523.085    493.679    497.530    493.679
 90.770    485.000    524.307    -39.307    493.497    520.285    493.497    497.528    493.497
 90.870    552.000    522.481     29.519    493.313    518.257    493.313    497.543    493.313
 90.970    559.993    521.347     38.646    493.127    516.901    493.127    497.578    493.127
 91.070    529.982    520.818      9.164    492.940    516.128    492.940    497.633    492.940
 91.170    500.000    520.828    -20.828    492.752    515.869    492.752    497.713    492.752
 91.270    481.678    521.343    -39.665    492.562    516.088    492.562    497.818    492.562
 91.370    527.309    522.367      4.941    492.371    516.786    492.371    497.951    492.371
 91.470    551.000    523.945     27.055    492.178    518.006    492.178    498.115    492.178
 91.570    505.266    526.163    -20.896    491.984    519.832    491.984    498.312    491.984
 91.670    520.000    529.144     -9.144    491.789    522.385    491.789    498.543    491.789
 91.770    509.000    533.049    -24.049    491.592    525.824    491.592    498.811    491.592
 91.870    509.613    538.061    -28.448    491.394    530.329    491.394    499.116    491.394
 91.970    561.255    544.377     16.878    491.194    536.098    491.194    499.461    491.194
 92.070    561.000    552.191      8.809    490.993    543.324    490.993    499.844    490.993
 92.170    524.000    561.672    -37.672    490.791    552.176    490.791    500.266    490.791
 92.270    633.000    572.942     60.058    490.588    562.779    490.588    500.725    490.588
 92.370    617.600    586.052     31.548    490.383    575.186    490.383    501.217    490.383
 92.470    622.416    600.973     21.444    490.176    589.372    490.176    501.739    490.176
 92.570    607.000    617.553    -10.553    489.969    605.195    489.969    502.283    489.969
 92.670    694.000    635.521     58.479    489.760    622.392    489.760    502.839    489.760
 92.770    684.677    654.476     30.202    489.549    640.574    489.549    503.396    489.549
 92.870    674.000    673.889      0.111    489.338    659.229    489.338    503.936    489.338
 92.970    658.347    693.136    -34.789    489.125    677.754    489.125    504.442    489.125
 93.070    723.000    711.568     11.432    488.911    695.521    488.911    504.891    488.911
 93.170    710.000    728.619    -18.619    488.696    711.985    488.696    505.260    488.696
 93.270    754.000    743.917     10.083    488.479    726.802    488.479    505.525    488.479
 93.370    731.531    757.336    -25.804    488.261    739.864    488.261    505.665    488.261
 93.470    724.918    769.031    -44.114    488.042    751.344    488.042    505.663    488.042
 93.570    741.417    779.320    -37.902    487.822    761.567    487.822    505.510    487.822
 93.670    762.000    788.481    -26.481    487.600    770.814    487.600    505.205    487.600
 93.770    806.962    796.807     10.155    487.378    779.372    487.378    504.754    487.378
 93.870    768.000    804.601    -36.601    487.154    787.527    487.154    504.172    487.154
 93.970    806.000    812.216     -6.216    486.929    795.613    486.929    503.479    486.929
 94.070    878.000    820.062     57.938    486.703    804.016    486.703    502.698    486.703
 94.170    872.000    828.521     43.479    486.476    813.095    486.476    501.853    486.476
 94.270    853.496    837.824     15.672    486.247    823.059    486.247    500.968    486.247
 94.370    882.517    847.866     34.651    486.018    833.781    486.018    500.061    486.018
 94.470    869.781    858.151     11.629    485.787    844.750    485.787    499.151    485.787
 94.570    915.000    867.794     47.206    485.555    855.067    485.555    498.251    485.555
 94.670    906.000    875.591     30.409    485.323    863.515    485.323    497.373    485.323
 94.770    925.468    880.172     45.296    485.089    868.720    485.089    496.523    485.089
 94.870    934.000    880.233     53.767    484.854    869.369    484.854    495.708    484.854
 94.970    906.291    874.811     31.480    484.618    864.496    484.618    494.931    484.618
 95.070    895.000    863.545     31.455    484.381    853.736    484.381    494.195    484.381
 95.170    871.506    846.802     24.704    484.143    837.456    484.143    493.500    484.143
 95.270    860.000    825.613     34.387    483.904    816.685    483.904    492.848    483.904
 95.370    788.000    801.471    -13.471    483.664    792.917    483.664    492.237    483.664
 95.470    781.000    776.112      4.888    483.424    767.889    483.424    491.667    483.424
 95.570    760.605    751.336      9.269    483.182    743.401    483.182    491.136    483.182
 95.670    792.000    728.893     63.107    482.939    721.207    482.939    490.642    482.939
 95.770    755.000    710.413     44.587    482.695    702.937    482.695    490.185    482.695
 95.870    723.279    697.361     25.918    482.451    690.060    482.451    489.761    482.451
 95.970    719.000    691.011     27.989    482.205    683.850    482.205    489.370    482.205
 96.070    666.000    692.434    -26.434    481.959    685.381    481.959    489.008    481.959
 96.170    720.171    702.484     17.686    481.712    695.511    481.712    488.675    481.712
 96.270    754.000    721.793     32.207    481.464    714.871    481.464    488.369    481.464
 96.370    788.338    750.738     37.599    481.215    743.840    481.215    488.088    481.215
 96.470    818.000    789.402     28.598    480.966    782.504    480.966    487.831    480.966
 96.570    788.229    837.513    -49.285    480.715    830.592    480.715    487.597    480.715
 96.670    948.198    894.372     53.826    480.464    887.404    480.464    487.385    480.464
 96.770    964.000    958.781      5.219    480.212    951.747    480.212    487.195    480.212
 96.870   1045.000   1028.992     16.008    479.960   1021.871    479.960    487.025    479.960
 96.970   1063.000   1102.667    -39.667    479.706   1095.439    479.706    486.877    479.706
 97.070   1151.304   1176.876    -25.572    479.452   1169.522    479.452    486.751    479.452
 97.170   1309.280   1248.169     61.111    479.198   1240.669    479.198    486.647    479.198
 97.270   1273.811   1312.684    -38.874    478.942   1305.018    478.942    486.567    478.942
 97.370   1337.267   1366.381    -29.114    478.686   1358.526    478.686    486.512    478.686
 97.470   1413.903   1405.505      8.399    478.430   1397.437    478.430    486.484    478.430
 97.570   1496.000   1427.157     68.843    478.172   1418.850    478.172    486.485    478.172
 97.670   1383.700   1429.861    -46.160    477.915   1421.282    477.915    486.519    477.915
 97.770   1408.000   1413.852     -5.852    477.656   1404.965    477.656    486.588    477.656
 97.870   1328.929   1380.974    -52.046    477.397   1371.737    477.397    486.697    477.397
 97.970   1285.802   1334.237    -48.436    477.138   1324.601    477.138    486.850    477.138
 98.070   1332.758   1277.285     55.473    476.878   1267.196    476.878    487.051    476.878
 98.170   1257.386   1213.947     43.439    476.617   1203.347    476.617    487.308    476.617
 98.270   1156.000   1147.945      8.055    476.357   1136.768    476.357    487.625    476.357
 98.370   1116.000   1082.711     33.289    476.095   1070.886    476.095    488.010    476.095
 98.470   1000.000   1021.294    -21.294    475.833   1008.743    475.833    488.470    475.833
 98.570    932.537    966.319    -33.782    475.571    952.956    475.571    489.012    475.571
 98.670    920.000    919.971      0.029    475.309    905.703    475.309    489.645    475.309
 98.770    851.000    884.012    -33.012    475.046    868.740    475.046    490.376    475.046
 98.870    867.769    859.805      7.964    474.782    843.423    474.782    491.214    474.782
 98.970    817.000    848.355    -31.355    474.519    830.746    474.519    492.167    474.519
 99.070    828.000    850.345    -22.345    474.255    831.387    474.255    493.244    474.255
 99.170    807.000    866.174    -59.174    473.991    845.738    473.991    494.451    473.991
 99.270    924.934    895.973     28.961    473.726    873.923    473.726    495.795    473.726
 99.370    966.335    939.598     26.737    473.462    915.793    473.462    497.282    473.462
 99.470    964.000    996.602    -32.602    473.197    970.897    473.197    498.917    473.197
 99.570   1050.106   1066.185    -16.080    472.932   1038.434    472.932    500.701    472.932
 99.670   1115.000   1147.134    -32.134    472.666   1117.190    472.666    502.634    472.666
 99.770   1239.000   1237.761      1.239    472.401   1205.481    472.401    504.715    472.401
 99.870   1333.000   1335.849     -2.849    472.136   1301.097    472.136    506.935    472.136
 99.970   1519.000   1438.628     80.372    471.870   1401.277    471.870    509.286    471.870
100.070   1610.000   1542.795     67.205    471.604   1502.737    471.604    511.750    471.604
100.170   1629.000   1644.624    -15.624    471.339   1601.770    471.339    514.306    471.339
100.270   1748.000   1740.199      7.801    471.073   1694.492    471.073    516.921    471.073
100.370   1853.000   1825.706     27.294    470.807   1777.127    470.807    519.558    470.807
100.470   1814.000   1897.778    -83.778    470.542   1846.355    470.542    522.166    470.542
100.570   1908.000   1953.715    -45.715    470.276   1899.536    470.276    524.687    470.276
100.670   2007.876   1991.543     16.333    470.010   1934.762    470.010    527.049    470.010
100.770   1940.921   2009.952    -69.030    469.745   1950.801    469.745    529.176    469.745
100.870   2035.000   2008.276     26.724    469.480   1947.068    469.480    530.987    469.480
100.970   1955.331   1986.623    -31.292    469.215   1923.748    469.215    532.401    469.215
101.070   1953.654   1946.109      7.545    468.950   1882.030    468.950    533.347    468.950
101.170   1813.591   1889.066    -75.475    468.685   1824.299    468.685    533.769    468.685
101.270   1836.437   1818.981     17.456    468.420   1754.076    468.420    533.636    468.420
101.370   1722.000   1740.088    -18.088    468.156   1675.602    468.156    532.942    468.156
101.470   1634.000   1656.891    -22.891    467.892   1593.359    467.892    531.709    467.892
101.570   1572.000   1573.638     -1.638    467.628   1511.549    467.628    529.982    467.628
101.670   1471.619   1493.951    -22.332    467.365   1433.733    467.365    527.828    467.365
101.770   1406.000   1420.620    -14.620    467.102   1362.623    467.102    525.325    467.102
101.870   1329.203   1355.520    -26.316    466.839   1300.011    466.839    522.553    466.839
101.970   1265.148   1299.611    -34.463    466.577   1246.782    466.577    519.593    466.577
102.070   1220.000   1252.991    -32.991    466.316   1202.960    466.316    516.517    466.316
102.170   1184.000   1214.978    -30.978    466.054   1167.799    466.054    513.391    466.054
102.270   1164.000   1184.224    -20.224    465.794   1139.898    465.794    510.267    465.794
102.370   1187.203   1158.864     28.339    465.533   1117.347    465.533    507.190    465.533
102.470   1088.000   1136.710    -48.710    465.274   1097.925    465.274    504.192    465.274
102.570   1095.610   1115.499    -19.889    465.015   1079.344    465.015    501.301    465.015
102.670   1111.000   1093.178     17.822    464.756   1059.529    464.756    498.534    464.756
102.770   1012.415   1068.170    -55.755    464.499   1036.891    464.499    495.905    464.499
102.870   1060.071   1039.556     20.515    464.242   1010.502    464.242    493.421    464.242
102.970   1026.000   1007.115     18.885    463.985    980.136    463.985    491.087    463.985
103.070   1014.397    971.226     43.171    463.730    946.171    463.730    488.903    463.730
103.170    896.000    932.678    -36.678    463.475    909.397    463.475    486.869    463.475
103.270    910.188    892.483     17.705    463.221    870.829    463.221    484.980    463.221
103.370    846.000    851.716     -5.716    462.968    831.550    462.968    483.232    462.968
103.470    778.299    811.414    -33.115    462.715    792.601    462.715    481.619    462.715
103.570    781.584    772.504      9.080    462.464    754.916    462.464    480.133    462.464
103.670    723.000    735.763    -12.763    462.214    719.283    462.214    478.766    462.214
103.770    652.000    701.797    -49.797    461.964    686.314    461.964    477.511    461.964
103.870    697.756    671.025     26.731    461.716    656.437    461.716    476.358    461.716
103.970    663.000    643.686     19.314    461.468    629.901    461.468    475.301    461.468
104.070    623.965    619.852      4.113    461.222    606.784    461.222    474.330    461.222
104.170    587.231    599.450    -12.219    460.976    587.022    460.976    473.437    460.976
104.270    544.133    582.293    -38.160    460.732    570.436    460.732    472.616    460.732
104.370    598.000    568.114     29.886    460.489    556.766    460.489    471.860    460.489
104.470    577.000    556.600     20.400    460.247    545.705    460.247    471.161    460.247
104.570    508.829    547.417    -38.588    460.007    536.924    460.007    470.514    460.007
104.670    568.469    540.240     28.229    459.767    530.105    459.767    469.914    459.767
104.770    563.000    534.767     28.233    459.529    524.950    459.529    469.356    459.529
104.870    585.000    530.736     54.264    459.293    521.201    459.293    468.834    459.293
104.970    574.000    527.930     46.070    459.057    518.645    459.057    468.346    459.057
105.070    502.599    526.181    -23.583    458.823    517.119    458.823    467.888    458.823
105.170    524.067    525.370     -1.303    458.591    516.504    458.591    467.458    458.591
105.270    490.000    525.423    -35.423    458.360    516.730    458.360    467.051    458.360
105.370    588.000    526.307     61.693    458.130    517.767    458.130    466.667    458.130
105.470    576.000    528.026     47.974    457.902    519.620    457.902    466.303    457.902
105.570    562.000    530.614     31.386    457.676    522.324    457.676    465.958    457.676
105.670    548.000    534.125     13.875    457.451    525.936    457.451    465.631    457.451
105.770    528.000    538.627    -10.627    457.228    530.524    457.228    465.319    457.228
105.870    537.604    544.187     -6.582    457.006    536.157    457.006    465.023    457.006
105.970    574.000    550.861     23.139    456.786    542.891    456.786    464.740    456.786
106.070    554.911    558.678     -3.767    456.569    550.756    456.569    464.472    456.569
106.170    602.136    567.630     34.506    456.352    559.745    456.352    464.216    456.352
106.270    584.000    577.660      6.340    456.138    569.801    456.138    463.972    456.138
106.370    606.000    588.666     17.334    455.926    580.823    455.926    463.741    455.926
106.470    632.000    600.479     31.521    455.715    592.642    455.715    463.522    455.715
106.570    639.684    612.875     26.809    455.506    605.035    455.506    463.314    455.506
106.670    605.000    625.574    -20.574    455.300    617.723    455.300    463.117    455.300
106.770    612.000    638.249    -26.249    455.095    630.377    455.095    462.931    455.095
106.870    666.087    650.530     15.557    454.893    642.629    454.893    462.756    454.893
106.970    644.000    662.027    -18.027    454.692    654.090    454.692    462.592    454.692
107.070    700.881    672.349     28.532    454.494    664.368    454.494    462.439    454.494
107.170    649.000    681.152    -32.152    454.298    673.118    454.298    462.297    454.298
107.270    662.000    688.180    -26.180    454.104    680.086    454.104    462.166    454.104
107.370    665.000    693.295    -28.295    453.913    685.133    453.913    462.045    453.913
107.470    748.000    696.522     51.478    453.724    688.284    453.724    461.936    453.724
107.570    635.000    698.049    -63.049    453.537    689.726    453.537    461.838    453.537
107.670    708.605    698.192     10.412    453.352    689.775    453.352    461.752    453.352
107.770    740.283    697.345     42.938    453.170    688.825    453.170    461.678    453.170
107.870    669.710    695.925    -26.215    452.991    687.293    452.991    461.615    452.991
107.970    674.000    694.319    -20.319    452.814    685.564    452.814    461.565    452.814
108.070    664.720    692.845    -28.125    452.639    683.958    452.639    461.527    452.639
108.170    645.000    691.730    -46.730    452.467    682.700    452.467    461.503    452.467
108.270    661.000    691.095    -30.095    452.298    681.911    452.298    461.492    452.298
108.370    653.000    690.948    -37.948    452.131    681.598    452.131    461.495    452.131
108.470    663.000    691.182    -28.182    451.968    681.655    451.968    461.513    451.968
108.570    658.000    691.588    -33.588    451.807    681.871    451.807    461.546    451.807
108.670    670.000    691.863    -21.863    451.648    681.942    451.648    461.596    451.648
108.770    665.908    691.645    -25.738    451.493    681.506    451.493    461.662    451.493
108.870    715.000    690.550     24.450    451.341    680.177    451.341    461.746    451.341
108.970    680.000    688.222     -8.222    451.191    677.599    451.191    461.849    451.191
109.070    734.000    684.393     49.607    451.045    673.503    451.045    461.972    451.045
109.170    689.000    678.921     10.079    450.901    667.744    450.901    462.116    450.901
109.270    696.248    671.812     24.436    450.761    660.328    450.761    462.284    450.761
109.370    612.000    663.210    -51.210    450.624    651.396    450.624    462.476    450.624
109.470    652.000    653.365     -1.365    450.490    641.198    450.490    462.695    450.490
109.570    606.412    642.591    -36.179    450.359    630.044    450.359    462.942    450.359
109.670    601.000    631.230    -30.230    450.232    618.275    450.232    463.221    450.232
109.770    653.000    619.619     33.381    450.108    606.225    450.108    463.533    450.108
109.870    643.000    608.073     34.927    449.987    594.207    449.987    463.883    449.987
109.970    621.366    596.875     24.491    449.869    582.500    449.869    464.272    449.869
110.070    622.000    586.266     35.734    449.755    571.340    449.755    464.706    449.755
110.170    602.340    576.442     25.898    449.645    560.921    449.645    465.187    449.645
110.270    597.000    567.553     29.447    449.538    551.389    449.538    465.721    449.538
110.370    587.614    559.704     27.910    449.435    542.842    449.435    466.313    449.435
110.470    536.582    552.955    -16.373    449.335    535.336    449.335    466.968    449.335
110.570    573.352    547.328     26.024    449.240    528.887    449.240    467.692    449.240
110.670    583.000    542.812     40.188    449.148    523.477    449.148    468.492    449.148
110.770    538.000    539.366     -1.366    449.059    519.058    449.059    469.374    449.059
110.870    593.000    536.929     56.071    448.975    515.562    448.975    470.347    448.975
110.970    496.639    535.425    -38.787    448.894    512.906    448.894    471.417    448.894
111.070    567.041    534.774     32.267    448.818    510.999    448.818    472.595    448.818
111.170    534.000    534.890     -0.890    448.745    509.747    448.745    473.888    448.745
111.270    505.425    535.690    -30.264    448.677    509.059    448.677    475.307    448.677
111.370    501.797    537.097    -35.299    448.612    508.848    448.612    476.860    448.612
111.470    513.000    539.042    -26.042    448.552    509.035    448.552    478.557    448.552
111.570    520.415    541.464    -21.049    448.496    509.548    448.496    480.409    448.496
111.670    551.000    544.313      6.687    448.444    510.328    448.444    482.426    448.444
111.770    530.000    547.549    -17.549    448.397    511.325    448.397    484.617    448.397
111.870    572.650    551.142     21.509    448.354    512.500    448.354    486.992    448.354
111.970    544.459    555.074    -10.615    448.315    513.825    448.315    489.561    448.315
112.070    546.000    559.338    -13.338    448.281    515.284    448.281    492.331    448.281
112.170    595.000    563.936     31.064    448.251    516.873    448.251    495.310    448.251
112.270    545.000    568.880    -23.880    448.226    518.597    448.226    498.505    448.226
112.370    571.000    574.182     -3.182    448.206    520.463    448.206    501.921    448.206
112.470    575.000    579.849     -4.849    448.190    522.475    448.190    505.561    448.190
112.570    579.999    585.994     -5.995    448.179    524.743    448.179    509.426    448.179
112.670    626.995    592.629     34.366    448.173    527.282    448.173    513.517    448.173
112.770    628.682    599.809     28.873    448.172    530.149    448.172    517.828    448.172
112.870    576.593    607.609    -31.016    448.175    533.427    448.175    522.353    448.175
112.970    583.000    616.122    -33.122    448.184    537.221    448.184    527.081    448.184
113.070    575.000    625.471    -50.471    448.197    541.669    448.197    531.995    448.197
113.170    636.090    635.815      0.275    448.216    546.950    448.216    537.075    448.216
113.270    681.953    647.359     34.594    448.240    553.298    448.240    542.294    448.240
113.370    626.000    660.369    -34.369    448.269    561.012    448.269    547.618    448.269
113.470    658.000    675.192    -17.192    448.303    570.481    448.303    553.004    448.303
113.570    713.000    692.269     20.731    448.343    582.196    448.343    558.402    448.343
113.670    671.000    712.160    -41.160    448.388    596.778    448.388    563.751    448.388
113.770    742.035    735.565      6.470    448.438    614.995    448.438    568.984    448.438
113.870    767.813    763.349      4.464    448.494    637.791    448.494    574.021    448.494
113.970    714.000    796.561    -82.561    448.555    666.302    448.555    578.775    448.555
114.070    852.170    836.458     15.711    448.622    701.876    448.622    583.154    448.622
114.170    852.000    884.513    -32.513    448.695    746.081    448.695    587.063    448.695
114.270    925.000    942.422    -17.422    448.773    800.706    448.773    590.409    448.773
114.370   1022.000   1012.098      9.902    448.857    867.752    448.857    593.106    448.857
114.470   1113.000   1095.644     17.356    448.947    949.393    448.947    595.078    448.947
114.570   1143.000   1195.310    -52.310    449.043   1047.938    449.043    596.271    449.043
114.670   1353.819   1313.428     40.392    449.144   1165.750    449.144    596.650    449.144
114.770   1456.000   1452.315      3.685    449.252   1305.159    449.252    596.206    449.252
114.870   1704.000   1614.165     89.835    449.366   1468.340    449.366    594.957    449.366
114.970   1850.112   1800.904     49.208    449.486   1657.178    449.486    592.943    449.486
115.070   2103.000   2014.036     88.964    449.612   1873.116    449.612    590.228    449.612
115.170   2352.000   2254.479     97.521    449.745   2116.994    449.745    586.890    449.745
115.270   2638.000   2522.395    115.605    449.884   2388.887    449.884    583.018    449.884
115.370   2860.000   2817.036     42.964    450.029   2687.953    450.029    578.708    450.029
115.470   3218.839   3136.609     82.230    450.180   3012.306    450.180    574.054    450.180
115.570   3491.000   3478.173     12.827    450.339   3358.917    450.339    569.146    450.339
115.670   3806.000   3837.578    -31.578    450.503   3723.552    450.503    564.070    450.503
115.770   4149.011   4209.449    -60.438    450.675   4100.763    450.675    558.900    450.675
115.870   4499.715   4587.225    -87.509    450.853   4483.923    450.853    553.704    450.853
115.970   4881.000   4963.247    -82.247    451.038   4865.318    451.038    548.538    451.038
116.070   5262.393   5328.910    -66.517    451.229   5236.295    451.229    543.451    451.229
116.170   5568.000   5674.865   -106.865    451.428   5587.467    451.428    538.482    451.428
116.270   5924.000   5991.314    -67.314    451.634   5909.004    451.634    533.663    451.634
116.370   6336.000   6268.388     67.612    451.846   6191.011    451.846    529.019    451.846
116.470   6577.000   6496.645     80.355    452.066   6424.025    452.066    524.570    452.066
116.570   6686.795   6667.680     19.115    452.293   6599.624    452.293    520.330    452.293
116.670   6651.658   6774.798   -123.140    452.527   6711.098    452.527    516.308    452.527
116.770   6920.000   6813.655    106.345    452.768   6754.096    452.768    512.511    452.768
116.870   6825.063   6782.729     42.334    453.017   6727.085    453.017    508.941    453.017
116.970   6731.000   6683.484     47.516    453.273   6631.528    453.273    505.600    453.273
117.070   6603.559   6520.198     83.362    453.537   6471.697    453.537    502.486    453.537
117.170   6236.000   6299.482    -63.482    453.808   6254.209    453.808    499.593    453.808
117.270   6097.558   6029.642     67.916    454.087   5987.373    454.087    496.917    454.087
117.370   5751.903   5720.001     31.902    454.374   5680.517    454.374    494.452    454.374
117.470   5252.000   5380.292   -128.292    454.668   5343.382    454.668    492.189    454.668
117.570   5054.081   5020.166     33.915    454.970   4985.631    454.970    490.120    454.970
117.670   4689.000   4648.816     40.184    455.280   4616.465    455.280    488.235    455.280
117.770   4288.000   4274.691     13.309    455.598   4244.346    455.598    486.526    455.598
117.870   3896.299   3905.297     -8.999    455.924   3876.792    455.924    484.982    455.924
117.970   3472.706   3547.060    -74.354    456.259   3520.240    456.259    483.593    456.259
118.070   3156.000   3205.245    -49.245    456.601   3179.968    456.601    482.349    456.601
118.170   2921.000   2883.941     37.059    456.952   2860.075    456.952    481.242    456.952
118.270   2724.000   2586.086    137.914    457.311   2563.511    457.311    480.261    457.311
118.370   2261.002   2313.542    -52.539    457.679   2292.150    457.679    479.398    457.679
118.470   1975.000   2067.199    -92.199    458.055   2046.891    458.055    478.644    458.055
118.570   1813.000   1847.103    -34.103    458.439   1827.790    458.439    477.990    458.439
118.670   1640.000   1652.593    -12.593    458.832   1634.194    458.832    477.429    458.832
118.770   1546.298   1482.449     63.849    459.234   1464.891    459.234    476.955    459.234
118.870   1339.823   1335.030      4.793    459.645   1318.247    459.645    476.559    459.645
118.970   1182.000   1208.415    -26.415    460.064   1192.347    460.064    476.236    460.064
119.070   1114.000   1100.524     13.476    460.493   1085.118    460.493    475.980    460.493
119.170   1021.000   1009.231     11.769    460.930    994.436    460.930    475.787    460.930
119.270    899.000    932.444    -33.444    461.377    918.216    461.377    475.651    461.377
119.370    835.907    868.183    -32.276    461.832    854.481    461.832    475.569    461.832
119.470    833.284    814.618     18.666    462.297    801.405    462.297    475.536    462.297
119.570    821.000    770.103     50.897    462.771    757.345    462.771    475.549    462.771
119.670    744.000    733.184     10.816    463.255    720.848    463.255    475.605    463.255
119.770    699.000    702.580     -3.580    463.748    690.638    463.748    475.701    463.748
119.870    735.000    677.274     57.726    464.250    665.697    464.250    475.835    464.250
119.970    652.000    656.354     -4.354    464.762    645.119    464.762    476.005    464.762
120.070    655.590    639.073     16.518    465.284    628.154    465.284    476.209    465.284
120.170    601.485    624.820    -23.335    465.816    614.197    465.816    476.445    465.816
120.270    580.000    613.104    -33.104    466.357    602.755    466.357    476.712    466.357
120.370    595.000    603.526     -8.526    466.908    593.433    466.908    477.008    466.908
120.470    566.000    595.770    -29.770    467.470    585.913    467.470    477.333    467.470
120.570    550.000    589.580    -39.580    468.041    579.944    468.041    477.685    468.041
120.670    604.000    584.756     19.244    468.622    575.324    468.622    478.063    468.622
120.770    585.000    581.136      3.864    469.214    571.892    469.214    478.467    469.214
120.870    554.000    578.591    -24.591    469.816    569.521    469.816    478.896    469.816
120.970    548.000    577.015    -29.015    470.429    568.106    470.429    479.348    470.429
121.070    577.000    576.322      0.678    471.052    567.560    471.052    479.825    471.052
121.170    583.000    576.437      6.563    471.685    567.811    471.685    480.324    471.685
121.270    583.561    577.295      6.267    472.329    568.793    472.329    480.845    472.329
121.370    580.881    578.833      2.047    472.984    570.445    472.984    481.388    472.984
121.470    602.799    580.993     21.806    473.650    572.708    473.650    481.952    473.650
121.570    560.000    583.713    -23.713    474.326    575.522    474.326    482.537    474.326
121.670    616.685    586.929     29.756    475.014    578.823    475.014    483.142    475.014
121.770    585.344    590.571     -5.228    475.712    582.542    475.712    483.766    475.712
121.870    612.986    594.566     18.420    476.422    586.606    476.422    484.408    476.422
121.970    619.000    598.830     20.170    477.143    590.933    477.143    485.069    477.143
122.070    600.000    603.275     -3.275    477.875    595.436    477.875    485.746    477.875
122.170    602.321    607.807     -5.486    478.618    600.020    478.618    486.440    478.618
122.270    619.000    612.324      6.676    479.374    604.586    479.374    487.149    479.374
122.370    650.596    616.720     33.876    480.140    609.028    480.140    487.873    480.140
122.470    631.000    620.888     10.112    480.918    613.240    480.918    488.610    480.918
122.570    598.000    624.718    -26.718    481.708    617.113    481.708    489.358    481.708
122.670    606.000    628.107    -22.107    482.510    620.547    482.510    490.118    482.510
122.770    635.701    630.960      4.741    483.324    623.447    483.324    490.887    483.324
122.870    667.000    633.197     33.803    484.149    625.733    484.149    491.665    484.149
122.970    648.000    634.755     13.245    484.987    627.346    484.987    492.450    484.987
123.070    663.000    635.597     27.403    485.837    628.247    485.837    493.241    485.837
123.170    635.000    635.709     -0.709    486.699    628.425    486.699    494.037    486.699
123.270    595.873    635.102    -39.229    487.573    627.891    487.573    494.838    487.573
123.370    664.050    633.809     30.241    488.460    626.679    488.460    495.643    488.460
123.470    622.203    631.880     -9.677    489.360    624.840    489.360    496.452    489.360
123.570    679.000    629.381     49.619    490.272    622.439    490.272    497.264    490.272
123.670    662.000    626.385     35.615    491.196    619.549    491.196    498.081    491.196
123.770    640.000    622.969     17.031    492.134    616.248    492.134    498.902    492.134
123.870    609.000    619.216    -10.216    493.084    612.616    493.084    499.728    493.084
123.970    631.000    615.205     15.795    494.047    608.733    494.047    500.561    494.047
124.070    615.677    611.014      4.664    495.024    604.674    495.024    501.401    495.024
124.170    590.551    606.714    -16.163    496.013    600.513    496.013    502.249    496.013
124.270    621.000    602.373     18.627    497.016    596.314    497.016    503.106    497.016
124.370    574.022    598.049    -24.027    498.032    592.135    498.032    503.974    498.032
124.470    638.000    593.794     44.206    499.061    588.028    499.061    504.854    499.061
124.570    607.000    589.652     17.348    500.104    584.033    500.104    505.746    500.104
124.670    639.000    585.657     53.343    501.161    580.186    501.161    506.652    501.161
124.770    615.359    581.837     33.522    502.231    576.513    502.231    507.572    502.231
124.870    617.057    578.213     38.844    503.315    573.036    503.315    508.507    503.315
124.970    585.857    574.801     11.056    504.413    569.768    504.413    509.459    504.413
