neutron_powder_diffraction_0086
R_wp: 4.485
Temperature (K): 822.188
Counts: 83833.00
Wavelength (Ã…): 2.52098
COMMENTS
Test file for demonstrating the .xyy file format in Reel1.0
END OF HEADER
   tth       Y_obs     Y_calc      Y_res    Background    Phase_1_Nuc    Phase_1_Mag    Phase_2_Nuc    Phase_2_Mag
  9.970    624.000    573.277     50.723    572.190    573.277    572.190    572.190    572.190
 10.070    590.898    573.762     17.137    572.586    573.761    572.586    572.586    572.586
 10.170    598.000    574.249     23.751    572.973    574.248    572.973    572.973    572.973
 10.270    584.000    574.741      9.259    573.350    574.740    573.350    573.350    573.350
 10.370    578.000    575.241      2.759    573.717    575.240    573.717    573.717    573.717
 10.470    541.917    575.755    -33.838    574.074    575.754    574.074    574.074    574.074
 10.570    551.908    576.288    -24.380    574.422    576.287    574.422    574.422    574.422
 10.670    591.696    576.843     14.853    574.761    576.842    574.761    574.761    574.761
 10.770    629.000    577.431     51.569    575.090    577.430    575.090    575.090    575.090
 10.870    645.000    578.065     66.935    575.410    578.063    575.410    575.410    575.410
 10.970    631.000    578.760     52.240    575.721    578.759    575.721    575.721    575.721
 11.070    630.889    579.541     51.348    576.022    579.539    576.022    576.022    576.022
 11.170    574.663    580.440     -5.777    576.315    580.438    576.315    576.315    576.315
 11.270    571.177    581.507    -10.331    576.599    581.505    576.599    576.599    576.599
 11.370    528.610    582.842    -54.232    576.873    582.839    576.873    576.873    576.873
 11.470    590.000    584.724      5.276    577.139    584.720    577.139    577.139    577.139
 11.570    602.000    587.298     14.702    577.396    587.293    577.396    577.396    577.396
 11.670    635.000    591.624     43.376    577.644    591.616    577.644    577.644    577.644
 11.770    618.038    599.663     18.375    577.884    599.651    577.884    577.884    577.884
 11.870    634.000    614.437     19.563    578.115    614.417    578.115    578.115    578.115
 11.970    687.099    638.793     48.306    578.338    638.760    578.338    578.338    578.338
 12.070    685.786    672.231     13.555    578.552    672.180    578.552    578.552    578.552
 12.170    722.463    706.231     16.232    578.758    706.161    578.758    578.758    578.758
 12.270    765.922    722.187     43.735    578.956    722.109    578.956    578.956    578.956
 12.370    673.309    707.320    -34.011    579.145    707.250    579.145    579.145    579.145
 12.470    708.000    673.968     34.032    579.327    673.916    579.327    579.327    579.327
 12.570    666.953    640.790     26.164    579.500    640.756    579.500    579.500    579.500
 12.670    611.076    616.562     -5.486    579.665    616.542    579.665    579.665    579.665
 12.770    589.000    601.949    -12.949    579.823    601.937    579.823    579.823    579.823
 12.870    596.000    594.155      1.845    579.972    594.147    579.972    579.972    579.972
 12.970    566.000    590.145    -24.145    580.114    590.140    580.114    580.114    580.114
 13.070    595.611    587.946      7.665    580.248    587.942    580.248    580.248    580.248
 13.170    563.000    586.600    -23.600    580.375    586.597    580.375    580.375    580.375
 13.270    571.000    585.683    -14.683    580.494    585.680    580.494    580.494    580.494
 13.370    591.671    585.010      6.661    580.606    585.008    580.606    580.606    580.606
 13.470    550.000    584.508    -34.508    580.710    584.506    580.710    580.710    580.710
 13.570    608.560    584.127     24.433    580.806    584.125    580.806    580.806    580.806
 13.670    539.000    583.834    -44.834    580.896    583.832    580.896    580.896    580.896
 13.770    570.843    583.605    -12.762    580.978    583.604    580.978    580.978    580.978
 13.870    574.000    583.425     -9.425    581.053    583.424    581.053    581.053    581.053
 13.970    580.000    583.280     -3.280    581.121    583.279    581.121    581.121    581.121
 14.070    570.000    583.162    -13.162    581.182    583.162    581.182    581.182    581.182
 14.170    545.877    583.065    -37.188    581.236    583.065    581.236    581.236    581.236
 14.270    587.637    582.984      4.653    581.284    582.983    581.284    581.284    581.284
 14.370    542.000    582.914    -40.914    581.324    582.914    581.324    581.324    581.324
 14.470    631.551    582.857     48.694    581.357    582.857    581.357    581.357    581.357
 14.570    546.000    582.803    -36.803    581.384    582.802    581.384    581.384    581.384
 14.670    585.470    582.751      2.719    581.405    582.750    581.405    581.405    581.405
 14.770    612.940    582.701     30.240    581.418    582.700    581.418    581.418    581.418
 14.870    579.025    582.652     -3.627    581.426    582.651    581.426    581.426    581.426
 14.970    558.000    582.603    -24.603    581.426    582.603    581.426    581.426    581.426
 15.070    535.000    582.554    -47.554    581.421    582.553    581.421    581.421    581.421
 15.170    532.000    582.503    -50.503    581.409    582.502    581.409    581.409    581.409
 15.270    578.000    582.450     -4.450    581.391    582.449    581.391    581.391    581.391
 15.370    568.457    582.394    -13.938    581.367    582.394    581.367    581.367    581.367
 15.470    627.217    582.344     44.873    581.336    582.344    581.336    581.336    581.336
 15.570    593.000    582.362     10.638    581.300    582.362    581.300    581.300    581.300
 15.670    595.022    582.308     12.714    581.257    582.308    581.257    581.257    581.257
 15.770    549.000    582.241    -33.241    581.209    582.241    581.209    581.209    581.209
 15.870    567.000    582.169    -15.169    581.155    582.169    581.155    581.155    581.155
 15.970    624.285    582.094     42.191    581.095    582.094    581.095    581.095    581.095
 16.070    624.295    582.014     42.281    581.029    582.014    581.029    581.029    581.029
 16.170    604.317    581.930     22.387    580.957    581.930    580.957    580.957    580.957
 16.270    571.000    581.844    -10.844    580.880    581.844    580.880    580.880    580.880
 16.370    550.000    581.765    -31.765    580.797    581.764    580.797    580.797    580.797
 16.470    602.000    581.670     20.330    580.709    581.669    580.709    580.709    580.709
 16.570    603.000    581.569     21.431    580.615    581.569    580.615    580.615    580.615
 16.670    554.000    581.471    -27.471    580.516    581.471    580.516    580.516    580.516
 16.770    599.860    581.422     18.438    580.412    581.422    580.412    580.412    580.412
 16.870    555.000    581.330    -26.330    580.302    581.330    580.302    580.302    580.302
 16.970    567.000    581.226    -14.226    580.187    581.226    580.187    580.187    580.187
 17.070    589.000    581.105      7.895    580.067    581.105    580.067    580.067    580.067
 17.170    558.000    580.978    -22.978    579.942    580.978    579.942    579.942    579.942
 17.270    554.000    580.847    -26.847    579.812    580.847    579.812    579.812    579.812
 17.370    630.379    580.712     49.667    579.677    580.712    579.677    579.677    579.677
 17.470    542.000    580.581    -38.581    579.536    580.581    579.536    579.536    579.536
 17.570    540.000    580.442    -40.442    579.391    580.442    579.391    579.391    579.391
 17.670    627.265    580.294     46.970    579.242    580.294    579.242    579.242    579.242
 17.770    572.000    580.142     -8.142    579.087    580.142    579.087    579.087    579.087
 17.870    625.268    579.986     45.282    578.928    579.986    578.928    578.928    578.928
 17.970    558.000    579.825    -21.825    578.764    579.825    578.764    578.764    578.764
 18.070    568.000    579.660    -11.660    578.595    579.660    578.595    578.595    578.595
 18.170    553.000    579.491    -26.491    578.422    579.491    578.422    578.422    578.422
 18.270    574.000    579.321     -5.321    578.244    579.321    578.244    578.244    578.244
 18.370    555.000    579.168    -24.168    578.062    579.168    578.062    578.062    578.062
 18.470    589.291    579.002     10.288    577.876    579.002    577.876    577.876    577.876
 18.570    549.000    578.853    -29.853    577.685    578.853    577.685    577.685    577.685
 18.670    549.977    578.686    -28.709    577.490    578.686    577.490    577.490    577.490
 18.770    565.000    578.505    -13.505    577.291    578.505    577.291    577.291    577.291
 18.870    595.000    578.333     16.667    577.087    578.333    577.087    577.087    577.087
 18.970    535.000    578.181    -43.181    576.879    578.181    576.879    576.879    576.879
 19.070    568.000    577.985     -9.985    576.668    577.985    576.668    576.668    576.668
 19.170    525.000    577.804    -52.804    576.452    577.804    576.452    576.452    576.452
 19.270    580.792    577.611      3.181    576.232    577.611    576.232    576.232    576.232
 19.370    547.000    577.404    -30.404    576.009    577.404    576.009    576.009    576.009
 19.470    576.000    577.224     -1.224    575.781    577.224    575.781    575.781    575.781
 19.570    542.000    577.019    -35.019    575.550    577.019    575.550    575.550    575.550
 19.670    535.000    576.799    -41.799    575.315    576.799    575.315    575.315    575.315
 19.770    546.436    576.575    -30.139    575.076    576.575    575.076    575.076    575.076
 19.870    563.000    576.348    -13.348    574.834    576.348    574.834    574.834    574.834
 19.970    561.000    576.119    -15.119    574.588    576.119    574.588    574.588    574.588
 20.070    570.000    575.892     -5.892    574.338    575.892    574.338    574.338    574.338
 20.170    607.379    575.662     31.716    574.085    575.663    574.085    574.085    574.085
 20.270    548.000    575.432    -27.432    573.829    575.432    573.829    573.829    573.829
 20.370    539.105    575.196    -36.091    573.569    575.196    573.569    573.569    573.569
 20.470    523.000    574.953    -51.953    573.305    574.953    573.305    573.305    573.305
 20.570    554.000    574.707    -20.707    573.039    574.707    573.039    573.039    573.039
 20.670    549.000    574.459    -25.459    572.769    574.459    572.769    572.769    572.769
 20.770    565.000    574.210     -9.210    572.496    574.210    572.496    572.496    572.496
 20.870    559.000    573.959    -14.959    572.219    573.959    572.219    572.219    572.219
 20.970    601.584    573.704     27.879    571.940    573.704    571.940    571.940    571.940
 21.070    581.000    573.449      7.551    571.657    573.449    571.657    571.657    571.657
 21.170    564.107    573.194     -9.087    571.372    573.194    571.372    571.372    571.372
 21.270    567.888    572.935     -5.047    571.083    572.935    571.083    571.083    571.083
 21.370    571.000    572.675     -1.675    570.791    572.675    570.791    570.791    570.791
 21.470    528.000    572.414    -44.414    570.497    572.414    570.497    570.497    570.497
 21.570    542.000    572.152    -30.152    570.200    572.152    570.200    570.200    570.200
 21.670    530.000    571.890    -41.890    569.900    571.890    569.900    569.900    569.900
 21.770    519.048    571.628    -52.580    569.597    571.628    569.597    569.597    569.597
 21.870    560.000    571.365    -11.365    569.291    571.366    569.291    569.291    569.291
 21.970    587.000    571.104     15.896    568.983    571.104    568.983    568.983    568.983
 22.070    562.000    570.843     -8.843    568.672    570.843    568.672    568.672    568.672
 22.170    534.915    570.584    -35.669    568.358    570.584    568.358    568.358    568.358
 22.270    545.184    570.327    -25.143    568.042    570.327    568.042    568.042    568.042
 22.370    512.000    570.073    -58.073    567.724    570.073    567.724    567.724    567.724
 22.470    568.206    569.822     -1.617    567.403    569.822    567.403    567.403    567.403
 22.570    531.000    569.577    -38.577    567.079    569.577    567.079    567.079    567.079
 22.670    552.000    569.338    -17.338    566.753    569.338    566.753    566.753    566.753
 22.770    557.000    569.104    -12.104    566.425    569.105    566.425    566.425    566.425
 22.870    551.274    568.880    -17.606    566.095    568.881    566.095    566.095    566.095
 22.970    584.000    568.667     15.333    565.762    568.668    565.762    565.762    565.762
 23.070    552.000    568.468    -16.468    565.427    568.468    565.427    565.427    565.427
 23.170    568.000    568.285     -0.285    565.090    568.286    565.090    565.090    565.090
 23.270    581.000    568.125     12.875    564.751    568.126    564.751    564.751    564.751
 23.370    585.509    567.994     17.515    564.409    567.995    564.409    564.409    564.409
 23.470    586.000    567.898     18.102    564.066    567.899    564.066    564.066    564.066
 23.570    532.000    567.848    -35.848    563.721    567.849    563.721    563.721    563.721
 23.670    566.000    567.859     -1.859    563.373    567.860    563.373    563.373    563.373
 23.770    557.393    567.953    -10.560    563.024    567.955    563.024    563.024    563.024
 23.870    549.716    568.161    -18.445    562.673    568.164    562.673    562.673    562.673
 23.970    616.000    568.539     47.461    562.320    568.541    562.320    562.320    562.320
 24.070    528.218    569.193    -40.975    561.965    569.196    561.965    561.965    561.965
 24.170    580.000    570.370      9.630    561.609    570.374    561.609    561.609    561.609
 24.270    624.000    572.633     51.367    561.251    572.640    561.251    561.251    561.251
 24.370    643.000    577.086     65.914    560.891    577.096    560.891    560.891    560.891
 24.470    652.000    585.421     66.579    560.529    585.437    560.529    560.529    560.529
 24.570    639.626    599.304     40.321    560.166    599.331    560.166    560.166    560.166
 24.670    631.000    618.799     12.201    559.801    618.840    559.801    559.801    559.801
 24.770    656.000    639.952     16.048    559.435    640.009    559.435    559.435    559.435
 24.870    681.000    653.265     27.735    559.067    653.332    559.067    559.067    559.067
 24.970    700.457    649.866     50.591    558.697    649.930    558.697    558.697    558.697
 25.070    633.072    632.200      0.872    558.327    632.252    558.327    558.327    558.327
 25.170    614.000    610.416      3.584    557.955    610.452    557.955    557.955    557.955
 25.270    621.000    592.119     28.881    557.581    592.141    557.581    557.581    557.581
 25.370    577.000    579.667     -2.667    557.206    579.680    557.206    557.206    557.206
 25.470    599.000    572.265     26.735    556.830    572.273    556.830    556.830    556.830
 25.570    591.995    568.142     23.852    556.453    568.148    556.453    556.453    556.453
 25.670    515.810    565.794    -49.984    556.074    565.798    556.074    556.074    556.074
 25.770    538.063    564.320    -26.257    555.694    564.323    555.694    555.694    555.694
 25.870    590.000    563.287     26.713    555.314    563.289    555.314    555.314    555.314
 25.970    574.000    562.508     11.492    554.932    562.510    554.932    554.932    554.932
 26.070    588.756    561.902     26.854    554.549    561.903    554.549    554.549    554.549
 26.170    619.000    561.427     57.573    554.164    561.428    554.164    554.164    554.164
 26.270    597.000    561.062     35.938    553.779    561.063    553.779    553.779    553.779
 26.370    569.559    560.794      8.766    553.393    560.794    553.393    553.393    553.393
 26.470    546.000    560.618    -14.618    553.006    560.618    553.006    553.006    553.006
 26.570    591.000    560.535     30.465    552.618    560.535    552.618    552.618    552.618
 26.670    604.000    560.552     43.448    552.229    560.552    552.229    552.229    552.229
 26.770    515.619    560.682    -45.063    551.840    560.681    551.840    551.840    551.840
 26.870    600.000    560.942     39.058    551.449    560.942    551.449    551.449    551.449
 26.970    629.000    561.361     67.639    551.058    561.360    551.058    551.058    551.058
 27.070    552.262    561.979     -9.717    550.666    561.978    550.666    550.666    550.666
 27.170    518.443    562.851    -44.407    550.273    562.849    550.273    550.273    550.273
 27.270    601.000    564.061     36.939    549.880    564.059    549.880    549.880    549.880
 27.370    612.000    565.738     46.262    549.486    565.736    549.486    549.486    549.486
 27.470    552.223    568.120    -15.897    549.091    568.117    549.091    549.091    549.091
 27.570    631.000    571.737     59.263    548.696    571.733    548.696    548.696    548.696
 27.670    629.000    577.941     51.059    548.300    577.934    548.300    548.300    548.300
 27.770    641.226    589.953     51.273    547.904    589.942    547.904    547.904    547.904
 27.870    645.000    614.058     30.942    547.507    614.038    547.507    547.507    547.507
 27.970    631.816    659.002    -27.186    547.110    658.967    547.110    547.110    547.110
 28.070    768.000    730.795     37.205    546.712    730.741    546.712    546.712    546.712
 28.170    791.000    822.425    -31.425    546.314    822.354    546.314    546.314    546.314
 28.270    902.000    904.068     -2.068    545.915    903.992    545.915    545.915    545.915
 28.370    927.794    931.454     -3.660    545.516    931.391    545.516    545.516    545.516
 28.470    915.000    889.681     25.319    545.117    889.637    545.117    545.117    545.117
 28.570    837.000    819.096     17.904    544.718    819.067    544.718    544.718    544.718
 28.670    782.223    768.420     13.803    544.318    768.397    544.318    544.318    544.318
 28.770    788.000    759.514     28.486    543.918    759.492    543.918    543.918    543.918
 28.870    857.000    786.196     70.804    543.518    786.176    543.518    543.518    543.518
 28.970    910.000    820.521     89.479    543.117    820.509    543.117    543.117    543.117
 29.070    855.211    826.210     29.001    542.717    826.209    542.717    542.717    542.717
 29.170    825.000    787.782     37.218    542.316    787.789    542.316    542.316    542.316
 29.270    733.000    725.173      7.827    541.915    725.182    541.915    541.915    541.915
 29.370    722.293    665.056     57.237    541.514    665.063    541.514    541.514    541.514
 29.470    621.000    620.333      0.667    541.114    620.337    541.114    541.114    541.114
 29.570    586.000    592.149     -6.149    540.713    592.151    540.713    540.713    540.713
 29.670    608.000    576.192     31.808    540.312    576.192    540.312    540.312    540.312
 29.770    519.320    567.447    -48.128    539.911    567.446    539.911    539.911    539.911
 29.870    592.522    562.400     30.122    539.510    562.399    539.510    539.510    539.510
 29.970    563.188    559.197      3.991    539.109    559.195    539.109    539.109    539.109
 30.070    605.034    557.029     48.004    538.709    557.027    538.709    538.709    538.709
 30.170    595.011    555.603     39.408    538.308    555.600    538.308    538.308    538.308
 30.270    607.000    554.895     52.105    537.908    554.891    537.908    537.908    537.908
 30.370    641.000    555.133     85.867    537.508    555.128    537.508    537.508    537.508
 30.470    559.538    556.883      2.655    537.108    556.876    537.108    537.108    537.108
 30.570    630.000    561.088     68.912    536.709    561.077    536.709    536.709    536.709
 30.670    576.496    568.821      7.675    536.309    568.804    536.309    536.309    536.309
 30.770    613.000    580.581     32.419    535.910    580.555    535.910    535.910    535.910
 30.870    650.000    595.140     54.860    535.511    595.105    535.511    535.511    535.511
 30.970    671.000    608.236     62.764    535.113    608.194    535.113    535.113    535.113
 31.070    678.000    612.951     65.049    534.715    612.908    534.715    534.715    534.715
 31.170    628.000    605.574     22.426    534.317    605.537    534.317    534.317    534.317
 31.270    568.106    590.670    -22.564    533.920    590.643    533.920    533.920    533.920
 31.370    625.000    575.118     49.882    533.523    575.100    533.523    533.523    533.523
 31.470    611.354    562.702     48.652    533.126    562.690    533.126    533.126    533.126
 31.570    609.000    554.280     54.720    532.730    554.272    532.730    532.730    532.730
 31.670    549.224    549.170      0.054    532.335    549.164    532.335    532.335    532.335
 31.770    524.000    546.241    -22.241    531.940    546.238    531.940    531.940    531.940
 31.870    555.000    544.552     10.448    531.545    544.549    531.545    531.545    531.545
 31.970    532.205    543.525    -11.320    531.151    543.523    531.151    531.151    531.151
 32.070    565.378    542.874     22.504    530.758    542.872    530.758    530.758    530.758
 32.170    550.866    542.477      8.389    530.365    542.475    530.365    530.365    530.365
 32.270    584.387    542.284     42.102    529.973    542.283    529.973    529.973    529.973
 32.370    589.000    542.282     46.718    529.582    542.281    529.582    529.582    529.582
 32.470    522.000    542.474    -20.474    529.191    542.472    529.191    529.191    529.191
 32.570    497.998    542.876    -44.878    528.801    542.875    528.801    528.801    528.801
 32.670    546.858    543.521      3.337    528.411    543.519    528.411    528.411    528.411
 32.770    550.407    544.455      5.952    528.023    544.453    528.023    528.023    528.023
 32.870    598.447    545.749     52.698    527.635    545.748    527.635    527.635    527.635
 32.970    559.000    547.506     11.494    527.247    547.504    527.247    527.247    527.247
 33.070    526.706    549.886    -23.181    526.861    549.884    526.861    526.861    526.861
 33.170    587.000    553.168     33.832    526.475    553.165    526.475    526.475    526.475
 33.270    579.000    557.901     21.099    526.091    557.898    526.091    526.091    526.091
 33.370    578.000    565.251     12.749    525.707    565.247    525.707    525.707    525.707
 33.470    548.000    577.580    -29.580    525.324    577.574    525.324    525.324    525.324
 33.570    605.000    599.123      5.877    524.941    599.114    524.941    524.941    524.941
 33.670    639.000    636.057      2.943    524.560    636.043    524.560    524.560    524.560
 33.770    637.000    694.930    -57.930    524.180    694.907    524.180    524.180    524.180
 33.870    725.000    778.715    -53.715    523.800    778.682    523.800    523.800    523.800
 33.970    866.000    880.600    -14.600    523.422    880.558    523.422    523.422    523.422
 34.070   1002.000    976.323     25.677    523.044    976.277    523.044    523.044    523.044
 34.170    980.667   1024.072    -43.406    522.667   1024.034    522.667    522.667    522.667
 34.270    975.000    995.145    -20.145    522.292    995.124    522.292    522.292    522.292
 34.370    920.000    908.003     11.997    521.917    907.998    521.917    521.917    521.917
 34.470    773.000    804.323    -31.323    521.544    804.327    521.544    521.544    521.544
 34.570    752.363    713.599     38.763    521.171    713.605    521.171    521.171    521.171
 34.670    598.000    646.911    -48.911    520.800    646.915    520.800    520.800    520.800
 34.770    570.478    603.456    -32.978    520.429    603.459    520.429    520.429    520.429
 34.870    528.191    577.284    -49.093    520.060    577.285    520.060    520.060    520.060
 34.970    599.323    561.917     37.407    519.692    561.917    519.692    519.692    519.692
 35.070    530.927    552.553    -21.626    519.325    552.553    519.325    519.325    519.325
 35.170    559.000    546.353     12.647    518.959    546.353    518.959    518.959    518.959
 35.270    554.873    541.866     13.007    518.594    541.865    518.594    518.594    518.594
 35.370    534.000    538.398     -4.398    518.231    538.398    518.231    518.231    518.231
 35.470    553.000    535.609     17.391    517.869    535.608    517.869    517.869    517.869
 35.570    510.969    533.306    -22.337    517.508    533.306    517.508    517.508    517.508
 35.670    519.000    531.369    -12.369    517.148    531.369    517.148    517.148    517.148
 35.770    476.000    529.715    -53.715    516.789    529.715    516.789    516.789    516.789
 35.870    525.000    528.284     -3.284    516.432    528.284    516.432    516.432    516.432
 35.970    529.684    527.031      2.654    516.075    527.030    516.075    516.075    516.075
 36.070    476.000    525.922    -49.922    515.721    525.922    515.721    515.721    515.721
 36.170    536.000    524.932     11.068    515.367    524.932    515.367    515.367    515.367
 36.270    497.000    524.043    -27.043    515.015    524.043    515.015    515.015    515.015
 36.370    508.616    523.239    -14.623    514.664    523.239    514.664    514.664    514.664
 36.470    492.815    522.510    -29.695    514.314    522.510    514.314    514.314    514.314
 36.570    480.658    521.849    -41.191    513.966    521.849    513.966    513.966    513.966
 36.670    495.000    521.251    -26.251    513.619    521.251    513.619    513.619    513.619
 36.770    523.000    520.715      2.285    513.273    520.716    513.273    513.273    513.273
 36.870    522.333    520.249      2.084    512.929    520.249    512.929    512.929    512.929
 36.970    496.109    519.870    -23.762    512.587    519.871    512.587    512.587    512.587
 37.070    560.086    519.627     40.459    512.245    519.628    512.245    512.245    512.245
 37.170    509.000    519.617    -10.617    511.905    519.617    511.905    511.905    511.905
 37.270    516.000    520.005     -4.005    511.567    520.006    511.567    511.567    511.567
 37.370    517.000    521.015     -4.015    511.230    521.017    511.230    511.230    511.230
 37.470    532.000    522.851      9.149    510.894    522.853    510.894    510.894    510.894
 37.570    528.611    525.537      3.075    510.560    525.539    510.560    510.560    510.560
 37.670    512.000    528.703    -16.703    510.227    528.707    510.227    510.227    510.227
 37.770    496.000    531.407    -35.407    509.896    531.413    509.896    509.896    509.896
 37.870    491.000    532.343    -41.343    509.566    532.350    509.566    509.566    509.566
 37.970    537.614    530.893      6.721    509.238    530.902    509.238    509.238    509.238
 38.070    537.000    527.822      9.178    508.912    527.832    508.912    508.912    508.912
 38.170    522.000    524.266     -2.266    508.587    524.277    508.587    508.587    508.587
 38.270    486.101    520.940    -34.839    508.263    520.951    508.263    508.263    508.263
 38.370    477.628    518.184    -40.557    507.941    518.193    507.941    507.941    507.941
 38.470    510.000    516.097     -6.097    507.621    516.103    507.621    507.621    507.621
 38.570    482.000    514.593    -32.593    507.302    514.597    507.302    507.302    507.302
 38.670    485.923    513.515    -27.592    506.984    513.518    506.984    506.984    506.984
 38.770    532.000    512.719     19.281    506.669    512.721    506.669    506.669    506.669
 38.870    472.000    512.101    -40.101    506.355    512.102    506.355    506.355    506.355
 38.970    524.889    511.592     13.297    506.042    511.593    506.042    506.042    506.042
 39.070    515.677    511.151      4.526    505.731    511.152    505.731    505.731    505.731
 39.170    504.000    510.753     -6.753    505.422    510.754    505.422    505.422    505.422
 39.270    529.114    510.387     18.727    505.114    510.387    505.114    505.114    505.114
 39.370    472.000    510.043    -38.043    504.808    510.043    504.808    504.808    504.808
 39.470    516.575    509.718      6.857    504.504    509.718    504.504    504.504    504.504
 39.570    547.096    509.409     37.687    504.201    509.410    504.201    504.201    504.201
 39.670    515.000    509.116      5.884    503.900    509.116    503.900    503.900    503.900
 39.770    492.000    508.836    -16.836    503.601    508.837    503.601    503.601    503.601
 39.870    519.001    508.570     10.432    503.304    508.570    503.304    503.304    503.304
 39.970    524.000    508.316     15.684    503.008    508.317    503.008    503.008    503.008
 40.070    521.392    508.076     13.316    502.713    508.077    502.713    502.713    502.713
 40.170    497.000    507.849    -10.849    502.421    507.850    502.421    502.421    502.421
 40.270    514.759    507.637      7.122    502.130    507.638    502.130    502.130    502.130
 40.370    502.000    507.440     -5.440    501.841    507.441    501.841    501.841    501.841
 40.470    475.000    507.259    -32.259    501.554    507.260    501.554    501.554    501.554
 40.570    484.518    507.097    -22.579    501.268    507.098    501.268    501.268    501.268
 40.670    550.199    506.955     43.244    500.984    506.956    500.984    500.984    500.984
 40.770    498.000    506.836     -8.836    500.702    506.837    500.702    500.702    500.702
 40.870    464.000    506.745    -42.745    500.422    506.746    500.422    500.422    500.422
 40.970    461.052    506.684    -45.633    500.143    506.685    500.143    500.143    500.143
 41.070    536.000    506.661     29.339    499.866    506.662    499.866    499.866    499.866
 41.170    517.981    506.682     11.299    499.591    506.683    499.591    499.591    499.591
 41.270    501.000    506.757     -5.757    499.318    506.759    499.318    499.318    499.318
 41.370    478.000    506.900    -28.900    499.046    506.902    499.046    499.046    499.046
 41.470    500.000    507.128     -7.128    498.777    507.130    498.777    498.777    498.777
 41.570    498.000    507.468     -9.468    498.509    507.470    498.509    498.509    498.509
 41.670    522.000    507.963     14.037    498.243    507.965    498.243    498.243    498.243
 41.770    556.652    508.690     47.962    497.978    508.694    497.978    497.978    497.978
 41.870    550.592    509.804     40.789    497.716    509.808    497.716    497.716    497.716
 41.970    506.050    511.596     -5.546    497.455    511.601    497.455    497.455    497.455
 42.070    480.000    514.591    -34.591    497.196    514.597    497.196    497.196    497.196
 42.170    487.000    519.613    -32.613    496.939    519.622    496.939    496.939    496.939
 42.270    498.000    527.745    -29.745    496.684    527.757    496.684    496.684    496.684
 42.370    508.000    540.055    -32.055    496.430    540.073    496.430    496.430    496.430
 42.470    513.026    557.055    -44.029    496.179    557.082    496.179    496.179    496.179
 42.570    566.553    577.909    -11.356    495.929    577.947    495.929    495.929    495.929
 42.670    568.601    599.508    -30.907    495.681    599.558    495.681    495.681    495.681
 42.770    615.000    615.942     -0.942    495.435    616.004    495.435    495.435    495.435
 42.870    598.000    620.378    -22.378    495.191    620.444    495.191    495.191    495.191
 42.970    576.000    610.393    -34.393    494.949    610.457    494.949    494.949    494.949
 43.070    555.000    590.677    -35.677    494.708    590.731    494.708    494.708    494.708
 43.170    523.000    568.364    -45.364    494.470    568.405    494.470    494.470    494.470
 43.270    512.000    548.378    -36.378    494.233    548.407    494.233    494.233    494.233
 43.370    500.933    532.825    -31.892    493.998    532.845    493.998    493.998    493.998
 43.470    555.877    521.901     33.976    493.765    521.915    493.765    493.765    493.765
 43.570    486.000    514.785    -28.785    493.534    514.795    493.534    493.534    493.534
 43.670    504.000    510.345     -6.345    493.305    510.351    493.305    493.305    493.305
 43.770    547.513    507.574     39.939    493.077    507.578    493.077    493.077    493.077
 43.870    516.000    505.765     10.235    492.852    505.769    492.852    492.852    492.852
 43.970    480.000    504.497    -24.497    492.628    504.500    492.628    492.628    492.628
 44.070    529.000    503.543     25.457    492.406    503.546    492.406    492.406    492.406
 44.170    494.534    502.788     -8.254    492.186    502.790    492.186    492.186    492.186
 44.270    490.602    502.170    -11.568    491.968    502.172    491.968    491.968    491.968
 44.370    525.433    501.656     23.777    491.752    501.658    491.752    491.752    491.752
 44.470    508.000    501.224      6.776    491.538    501.226    491.538    491.538    491.538
 44.570    505.000    500.859      4.141    491.326    500.860    491.326    491.326    491.326
 44.670    531.805    500.549     31.256    491.115    500.550    491.115    491.115    491.115
 44.770    463.441    500.287    -36.845    490.907    500.288    490.907    490.907    490.907
 44.870    457.520    500.066    -42.545    490.700    500.066    490.700    490.700    490.700
 44.970    488.000    499.881    -11.881    490.495    499.882    490.495    490.495    490.495
 45.070    514.000    499.730     14.270    490.292    499.731    490.292    490.292    490.292
 45.170    479.000    499.610    -20.610    490.091    499.610    490.091    490.091    490.091
 45.270    530.000    499.519     30.481    489.892    499.519    489.892    489.892    489.892
 45.370    513.036    499.456     13.579    489.695    499.457    489.695    489.695    489.695
 45.470    539.000    499.422     39.578    489.500    499.422    489.500    489.500    489.500
 45.570    544.000    499.415     44.585    489.306    499.415    489.306    489.306    489.306
 45.670    518.377    499.437     18.940    489.115    499.437    489.115    489.115    489.115
 45.770    516.000    499.489     16.511    488.925    499.489    488.925    488.925    488.925
 45.870    499.000    499.573     -0.573    488.737    499.573    488.737    488.737    488.737
 45.970    474.828    499.691    -24.863    488.551    499.691    488.551    488.551    488.551
 46.070    493.000    499.846     -6.846    488.367    499.846    488.367    488.367    488.367
 46.170    485.000    500.042    -15.042    488.185    500.041    488.185    488.185    488.185
 46.270    524.876    500.284     24.593    488.005    500.283    488.005    488.005    488.005
 46.370    508.000    500.578      7.422    487.827    500.578    487.827    487.827    487.827
 46.470    484.000    500.933    -16.933    487.651    500.932    487.651    487.651    487.651
 46.570    541.799    501.360     40.439    487.476    501.359    487.476    487.476    487.476
 46.670    502.000    501.874      0.126    487.303    501.872    487.303    487.303    487.303
 46.770    483.103    502.497    -19.395    487.133    502.496    487.133    487.133    487.133
 46.870    516.000    503.271     12.729    486.964    503.269    486.964    486.964    486.964
 46.970    536.000    504.266     31.734    486.797    504.263    486.797    486.797    486.797
 47.070    520.000    505.614     14.386    486.632    505.611    486.632    486.632    486.632
 47.170    493.722    507.550    -13.828    486.469    507.545    486.469    486.469    486.469
 47.270    539.000    510.446     28.554    486.307    510.440    486.307    486.307    486.307
 47.370    534.000    514.828     19.172    486.148    514.819    486.148    486.148    486.148
 47.470    557.000    521.300     35.700    485.990    521.286    485.990    485.990    485.990
 47.570    483.089    530.363    -47.274    485.835    530.343    485.835    485.835    485.835
 47.670    558.000    542.121     15.879    485.681    542.093    485.681    485.681    485.681
 47.770    553.000    555.911     -2.911    485.529    555.875    485.529    485.529    485.529
 47.870    557.723    569.902    -12.179    485.379    569.856    485.379    485.379    485.379
 47.970    545.000    580.909    -35.909    485.230    580.858    485.230    485.230    485.230
 48.070    615.000    585.334     29.666    485.084    585.282    485.084    485.084    485.084
 48.170    543.583    581.732    -38.149    484.939    581.685    484.939    484.939    484.939
 48.270    534.371    572.286    -37.915    484.797    572.246    484.797    484.797    484.797
 48.370    569.000    560.794      8.206    484.656    560.763    484.656    484.656    484.656
 48.470    556.299    550.248      6.051    484.517    550.225    484.517    484.517    484.517
 48.570    518.000    542.252    -24.252    484.380    542.236    484.380    484.380    484.380
 48.670    573.365    537.341     36.024    484.244    537.330    484.244    484.244    484.244
 48.770    560.919    535.396     25.524    484.111    535.388    484.111    484.111    484.111
 48.870    571.000    536.007     34.993    483.979    536.001    483.979    483.979    483.979
 48.970    503.756    538.774    -35.017    483.850    538.769    483.850    483.850    483.850
 49.070    537.000    543.505     -6.505    483.722    543.501    483.722    483.722    483.722
 49.170    547.000    550.403     -3.403    483.595    550.398    483.595    483.595    483.595
 49.270    604.754    560.348     44.406    483.471    560.342    483.471    483.471    483.471
 49.370    592.894    575.524     17.370    483.348    575.515    483.348    483.348    483.348
 49.470    576.905    600.552    -23.647    483.228    600.536    483.228    483.228    483.228
 49.570    620.000    644.047    -24.047    483.109    644.019    483.109    483.109    483.109
 49.670    670.000    719.811    -49.811    482.992    719.764    482.992    482.992    482.992
 49.770    802.000    845.971    -43.971    482.876    845.899    482.876    482.876    482.876
 49.870    980.000   1040.051    -60.051    482.763   1039.952    482.763    482.763    482.763
 49.970   1315.857   1309.377      6.480    482.651   1309.259    482.651    482.651    482.651
 50.070   1638.000   1639.033     -1.033    482.541   1638.918    482.541    482.541    482.541
 50.170   1984.000   1981.453      2.547    482.433   1981.376    482.433    482.433    482.433
 50.270   2243.998   2253.354     -9.356    482.326   2253.355    482.326    482.326    482.326
 50.370   2291.000   2357.633    -66.633    482.222   2357.730    482.222    482.222    482.222
 50.470   2230.178   2248.097    -17.919    482.119   2248.262    482.119    482.119    482.119
 50.570   1964.059   1974.450    -10.392    482.018   1974.639    482.018    482.018    482.018
 50.670   1573.000   1635.044    -62.044    481.918   1635.220    481.918    481.918    481.918
 50.770   1312.183   1312.617     -0.433    481.821   1312.761    481.821    481.821    481.821
 50.870    972.000   1053.661    -81.661    481.725   1053.771    481.725    481.725    481.725
 50.970    853.000    871.896    -18.896    481.630    871.976    481.630    481.630    481.630
 51.070    680.000    758.590    -78.590    481.538    758.651    481.538    481.538    481.538
 51.170    676.000    694.380    -18.380    481.447    694.431    481.447    481.447    481.447
 51.270    610.298    658.813    -48.515    481.358    658.858    481.358    481.358    481.358
 51.370    629.486    636.052     -6.566    481.271    636.093    481.271    481.271    481.271
 51.470    634.000    617.208     16.792    481.185    617.245    481.185    481.185    481.185
 51.570    615.000    599.508     15.492    481.101    599.538    481.101    481.101    481.101
 51.670    552.890    583.301    -30.411    481.019    583.325    481.019    481.019    481.019
 51.770    522.340    569.531    -47.191    480.939    569.549    480.939    480.939    480.939
 51.870    583.000    558.768     24.232    480.860    558.781    480.860    480.860    480.860
 51.970    564.000    551.067     12.933    480.783    551.077    480.783    480.783    480.783
 52.070    571.000    546.112     24.888    480.707    546.120    480.707    480.707    480.707
 52.170    606.000    543.437     62.563    480.633    543.443    480.633    480.633    480.633
 52.270    584.000    542.620     41.380    480.561    542.626    480.561    480.561    480.561
 52.370    597.000    543.430     53.570    480.491    543.434    480.491    480.491    480.491
 52.470    593.000    545.921     47.079    480.422    545.926    480.422    480.422    480.422
 52.570    533.000    550.553    -17.553    480.355    550.558    480.355    480.355    480.355
 52.670    530.000    558.359    -28.359    480.289    558.363    480.289    480.289    480.289
 52.770    613.393    571.161     42.231    480.225    571.165    480.225    480.225    480.225
 52.870    641.000    591.749     49.251    480.162    591.752    480.162    480.162    480.162
 52.970    653.000    623.809     29.191    480.102    623.813    480.102    480.102    480.102
 53.070    724.016    671.416     52.600    480.042    671.420    480.042    480.042    480.042
 53.170    725.000    737.814    -12.814    479.985    737.820    479.985    479.985    479.985
 53.270    745.000    823.727    -78.727    479.929    823.736    479.929    479.929    479.929
 53.370    935.000    925.276      9.724    479.874    925.289    479.874    479.874    479.874
 53.470   1005.667   1031.782    -26.115    479.822   1031.803    479.822    479.822    479.822
 53.570   1047.000   1124.295    -77.295    479.770   1124.327    479.770    479.770    479.770
 53.670   1183.000   1178.453      4.547    479.720   1178.496    479.720    479.720    479.720
 53.770   1129.537   1176.029    -46.492    479.672   1176.082    479.672    479.672    479.672
 53.870   1081.000   1118.132    -37.132    479.626   1118.189    479.626    479.626    479.626
 53.970   1058.000   1024.223     33.777    479.580   1024.277    479.580    479.580    479.580
 54.070    975.000    918.425     56.575    479.537    918.472    479.537    479.537    479.537
 54.170    846.000    818.904     27.096    479.495    818.942    479.495    479.495    479.495
 54.270    726.527    735.633     -9.106    479.454    735.663    479.454    479.454    479.454
 54.370    714.628    671.988     42.640    479.415    672.010    479.415    479.415    479.415
 54.470    611.000    626.939    -15.939    479.377    626.955    479.377    479.377    479.377
 54.570    627.036    597.106     29.930    479.341    597.117    479.341    479.341    479.341
 54.670    590.000    578.440     11.560    479.306    578.448    479.306    479.306    479.306
 54.770    546.000    567.327    -21.327    479.273    567.334    479.273    479.273    479.273
 54.870    606.329    561.069     45.261    479.241    561.074    479.241    479.241    479.241
 54.970    604.000    557.904     46.096    479.211    557.909    479.211    479.211    479.211
 55.070    506.866    556.810    -49.944    479.182    556.814    479.182    479.182    479.182
 55.170    546.000    557.254    -11.254    479.155    557.258    479.155    479.155    479.155
 55.270    595.000    559.005     35.995    479.129    559.009    479.129    479.129    479.129
 55.370    592.576    562.013     30.564    479.104    562.017    479.104    479.104    479.104
 55.470    515.060    566.359    -51.300    479.081    566.364    479.081    479.081    479.081
 55.570    607.611    572.268     35.343    479.059    572.273    479.059    479.059    479.059
 55.670    539.000    580.183    -41.183    479.039    580.188    479.039    479.039    479.039
 55.770    607.000    590.953     16.047    479.020    590.958    479.020    479.020    479.020
 55.870    631.668    606.162     25.505    479.002    606.167    479.002    479.002    479.002
 55.970    620.340    628.654     -8.314    478.986    628.658    478.986    478.986    478.986
 56.070    686.000    663.195     22.805    478.971    663.198    478.971    478.971    478.971
 56.170    729.940    717.086     12.855    478.957    717.087    478.957    478.957    478.957
 56.270    735.000    800.191    -65.191    478.945    800.188    478.945    478.945    478.945
 56.370    907.927    923.915    -15.988    478.934    923.910    478.934    478.934    478.934
 56.470    987.000   1098.558   -111.558    478.924   1098.550    478.924    478.924    478.924
 56.570   1244.000   1329.106    -85.106    478.916   1329.100    478.916    478.916    478.916
 56.670   1557.000   1610.146    -53.146    478.908   1610.149    478.908    478.908    478.908
 56.770   1968.941   1920.728     48.213    478.903   1920.752    478.903    478.903    478.903
 56.870   2177.000   2219.891    -42.891    478.898   2219.951    478.898    478.898    478.898
 56.970   2358.000   2446.538    -88.538    478.895   2446.650    478.895    478.895    478.895
 57.070   2671.000   2535.727    135.273    478.893   2535.905    478.893    478.893    478.893
 57.170   2426.784   2456.801    -30.017    478.892   2457.037    478.892    478.892    478.892
 57.270   2286.416   2238.009     48.407    478.892   2238.278    478.892    478.892    478.892
 57.370   1982.000   1943.526     38.474    478.894   1943.794    478.894    478.894    478.894
 57.470   1579.426   1635.133    -55.707    478.897   1635.374    478.897    478.897    478.897
 57.570   1379.000   1354.947     24.053    478.901   1355.146    478.901    478.901    478.901
 57.670   1098.000   1125.027    -27.027    478.906   1125.181    478.906    478.906    478.906
 57.770    925.000    951.786    -26.786    478.913    951.899    478.913    478.913    478.913
 57.870    820.000    831.215    -11.215    478.920    831.293    478.920    478.920    478.920
 57.970    805.075    754.124     50.951    478.929    754.175    478.929    478.929    478.929
 58.070    758.000    710.541     47.459    478.939    710.571    478.939    478.939    478.939
 58.170    689.000    692.495     -3.495    478.950    692.511    478.950    478.950    478.950
 58.270    638.622    695.032    -56.410    478.962    695.036    478.962    478.962    478.962
 58.370    729.000    715.837     13.163    478.976    715.830    478.976    478.976    478.976
 58.470    724.155    754.056    -29.901    478.990    754.039    478.990    478.990    478.990
 58.570    811.672    808.797      2.875    479.006    808.773    479.006    479.006    479.006
 58.670    862.000    877.619    -15.619    479.022    877.590    479.022    479.022    479.022
 58.770    941.000    955.342    -14.342    479.040    955.312    479.040    479.040    479.040
 58.870   1028.000   1034.172     -6.172    479.059   1034.147    479.059    479.059    479.059
 58.970   1147.000   1106.008     40.992    479.079   1105.994    479.079    479.079    479.079
 59.070   1241.000   1164.668     76.332    479.099   1164.666    479.099    479.099    479.099
 59.170   1310.000   1204.904    105.096    479.121   1204.915    479.121    479.121    479.121
 59.270   1238.665   1221.414     17.252    479.144   1221.436    479.144    479.144    479.144
 59.370   1380.000   1212.765    167.235    479.168   1212.793    479.168    479.168    479.168
 59.470   1297.000   1186.019    110.981    479.193   1186.042    479.193    479.193    479.193
 59.570   1231.000   1154.405     76.595    479.219   1154.409    479.219    479.219    479.219
 59.670   1129.279   1130.800     -1.521    479.246   1130.774    479.246    479.246    479.246
 59.770   1162.000   1124.343     37.657    479.274   1124.279    479.274    479.274    479.274
 59.870   1117.000   1141.274    -24.274    479.303   1141.168    479.303    479.303    479.303
 59.970   1221.000   1185.670     35.330    479.332   1185.521    479.332    479.332    479.332
 60.070   1330.000   1257.012     72.988    479.363   1256.824    479.363    479.363    479.363
 60.170   1304.006   1346.739    -42.733    479.395   1346.520    479.395    479.395    479.395
 60.270   1545.000   1436.647    108.353    479.427   1436.414    479.427    479.427    479.427
 60.370   1509.950   1500.486      9.464    479.461   1500.261    479.461    479.461    479.461
 60.470   1536.000   1511.885     24.115    479.495   1511.688    479.495    479.495    479.495
 60.570   1408.702   1458.814    -50.111    479.530   1458.657    479.530    479.530    479.530
 60.670   1334.223   1351.802    -17.579    479.566   1351.685    479.566    479.566    479.566
 60.770   1222.000   1215.344      6.656    479.603   1215.261    479.603    479.603    479.603
 60.870   1131.000   1073.977     57.023    479.641   1073.920    479.641    479.641    479.641
 60.970    940.000    945.493     -5.493    479.680    945.454    479.680    479.680    479.680
 61.070    830.000    840.205    -10.205    479.719    840.177    479.719    479.719    479.719
 61.170    737.000    762.295    -25.295    479.759    762.272    479.759    479.759    479.759
 61.270    706.000    711.794     -5.794    479.800    711.771    479.800    479.800    479.800
 61.370    676.000    686.798    -10.798    479.842    686.773    479.842    479.842    479.842
 61.470    742.000    685.393     56.607    479.885    685.360    479.885    479.885    479.885
 61.570    659.000    706.753    -47.753    479.928    706.709    479.928    479.928    479.928
 61.670    805.776    751.178     54.598    479.972    751.119    479.972    479.972    479.972
 61.770    863.448    819.137     44.311    480.017    819.060    480.017    480.017    480.017
 61.870    867.000    909.664    -42.664    480.063    909.566    480.063    480.063    480.063
 61.970    982.000   1018.563    -36.563    480.109   1018.443    480.109    480.109    480.109
 62.070   1095.889   1136.798    -40.908    480.156   1136.660    480.156    480.156    480.156
 62.170   1227.000   1249.376    -22.376    480.204   1249.229    480.204    480.204    480.204
 62.270   1287.000   1335.824    -48.824    480.252   1335.682    480.252    480.252    480.252
 62.370   1359.000   1375.065    -16.065    480.301   1374.944    480.301    480.301    480.301
 62.470   1330.000   1355.542    -25.542    480.351   1355.454    480.351    480.351    480.351
 62.570   1253.000   1282.658    -29.658    480.401   1282.605    480.401    480.401    480.401
 62.670   1118.364   1174.890    -56.526    480.452   1174.865    480.452    480.452    480.452
 62.770   1017.000   1053.527    -36.527    480.504   1053.522    480.504    480.504    480.504
 62.870    882.000    935.662    -53.662    480.556    935.669    480.556    480.556    480.556
 62.970    840.000    832.243      7.757    480.609    832.254    480.609    480.609    480.609
 63.070    729.000    748.560    -19.560    480.663    748.571    480.663    480.663    480.663
 63.170    656.000    685.486    -29.486    480.717    685.493    480.717    480.717    480.717
 63.270    601.573    640.970    -39.397    480.771    640.974    480.771    480.771    480.771
 63.370    612.000    611.551      0.449    480.826    611.551    480.826    480.826    480.826
 63.470    601.000    593.614      7.386    480.882    593.611    480.882    480.882    480.882
 63.570    566.000    584.219    -18.219    480.938    584.213    480.938    480.938    480.938
 63.670    595.000    581.499     13.501    480.995    581.490    480.995    480.995    480.995
 63.770    559.000    584.728    -25.728    481.052    584.715    481.052    481.052    481.052
 63.870    598.000    594.177      3.823    481.110    594.159    481.110    481.110    481.110
 63.970    662.669    610.842     51.826    481.168    610.817    481.168    481.168    481.168
 64.070    668.000    636.058     31.942    481.227    636.023    481.227    481.227    481.227
 64.170    646.000    671.007    -25.007    481.286    670.961    481.286    481.286    481.286
 64.270    690.000    716.142    -26.142    481.345    716.082    481.345    481.345    481.345
 64.370    823.423    770.565     52.858    481.405    770.489    481.405    481.405    481.405
 64.470    863.000    831.411     31.589    481.466    831.321    481.466    481.466    481.466
 64.570    923.000    893.337     29.663    481.527    893.235    481.527    481.527    481.527
 64.670    991.000    948.485     42.515    481.588    948.378    481.588    481.588    481.588
 64.770    957.123    987.797    -30.675    481.649    987.693    481.649    481.649    481.649
 64.870   1039.000   1004.103     34.897    481.711   1004.010    481.711    481.711    481.711
 64.970   1059.000    995.217     63.783    481.774    995.144    481.774    481.774    481.774
 65.070    985.000    964.525     20.475    481.836    964.474    481.836    481.836    481.836
 65.170    892.000    919.055    -27.055    481.899    919.025    481.899    481.899    481.899
 65.270    863.000    866.884     -3.884    481.963    866.875    481.963    481.963    481.963
 65.370    797.000    814.820    -17.820    482.026    814.827    482.026    482.026    482.026
 65.470    779.000    767.191     11.809    482.090    767.211    482.090    482.090    482.090
 65.570    664.000    725.782    -61.782    482.154    725.810    482.154    482.154    482.154
 65.670    681.945    690.636     -8.691    482.219    690.667    482.219    482.219    482.219
 65.770    627.000    661.161    -34.161    482.284    661.192    482.284    482.284    482.284
 65.870    613.000    636.840    -23.840    482.349    636.867    482.349    482.349    482.349
 65.970    619.546    617.291      2.255    482.414    617.314    482.414    482.414    482.414
 66.070    562.000    602.112    -40.112    482.479    602.129    482.479    482.479    482.479
 66.170    567.780    590.834    -23.054    482.545    590.847    482.545    482.545    482.545
 66.270    542.000    582.988    -40.988    482.611    582.997    482.611    482.611    482.611
 66.370    535.000    578.160    -43.160    482.677    578.167    482.677    482.677    482.677
 66.470    551.000    576.020    -25.020    482.743    576.025    482.743    482.743    482.743
 66.570    575.767    576.350     -0.583    482.810    576.355    482.810    482.810    482.810
 66.670    590.000    579.100     10.900    482.876    579.105    482.876    482.876    482.876
 66.770    587.000    584.486      2.514    482.943    584.491    482.943    482.943    482.943
 66.870    628.133    593.141     34.992    483.010    593.147    483.010    483.010    483.010
 66.970    615.000    606.317      8.683    483.077    606.323    483.077    483.077    483.077
 67.070    669.148    626.113     43.035    483.144    626.120    483.144    483.144    483.144
 67.170    650.000    655.711     -5.711    483.211    655.717    483.211    483.211    483.211
 67.270    701.000    699.490      1.510    483.278    699.496    483.278    483.278    483.278
 67.370    714.000    762.905    -48.905    483.345    762.911    483.345    483.345    483.345
 67.470    784.000    851.957    -67.957    483.413    851.965    483.413    483.413    483.413
 67.570    908.000    972.154    -64.154    483.480    972.169    483.480    483.480    483.480
 67.670   1088.000   1126.999    -38.999    483.547   1127.025    483.547    483.547    483.547
 67.770   1287.000   1316.166    -29.166    483.615   1316.211    483.615    483.615    483.615
 67.870   1560.000   1533.658     26.342    483.682   1533.733    483.682    483.682    483.682
 67.970   1692.000   1766.168    -74.168    483.750   1766.284    483.750    483.750    483.750
 68.070   2001.734   1991.915      9.820    483.817   1992.085    483.817    483.817    483.817
 68.170   2102.000   2180.990    -78.990    483.884   2181.224    483.884    483.884    483.884
 68.270   2199.873   2299.921   -100.048    483.952   2300.222    483.952    483.952    483.952
 68.370   2216.030   2322.712   -106.682    484.019   2323.068    484.019    484.019    484.019
 68.470   2319.000   2243.764     75.236    484.086   2244.150    484.086    484.086    484.086
 68.570   2025.000   2081.291    -56.291    484.153   2081.678    484.153    484.153    484.153
 68.670   1960.000   1867.383     92.617    484.220   1867.744    484.220    484.220    484.220
 68.770   1687.000   1634.642     52.358    484.287   1634.961    484.287    484.287    484.287
 68.870   1405.000   1408.656     -3.656    484.354   1408.923    484.354    484.354    484.354
 68.970   1183.000   1206.302    -23.302    484.421   1206.516    484.421    484.421    484.421
 69.070    987.000   1036.540    -49.540    484.487   1036.706    484.487    484.487    484.487
 69.170    917.706    901.916     15.790    484.554    902.040    484.554    484.554    484.554
 69.270    790.000    800.335    -10.335    484.620    800.426    484.620    484.620    484.620
 69.370    716.000    726.922    -10.922    484.686    726.988    484.686    484.686    484.686
 69.470    683.307    675.701      7.606    484.752    675.748    484.752    484.752    484.752
 69.570    616.088    640.851    -24.763    484.818    640.886    484.818    484.818    484.818
 69.670    620.000    617.447      2.553    484.883    617.473    484.883    484.883    484.883
 69.770    645.005    601.732     43.272    484.948    601.752    484.948    484.948    484.948
 69.870    626.000    591.073     34.927    485.013    591.089    485.013    485.013    485.013
 69.970    593.000    583.752      9.248    485.078    583.764    485.078    485.078    485.078
 70.070    582.000    578.712      3.288    485.143    578.723    485.143    485.143    485.143
 70.170    583.000    575.345      7.655    485.207    575.353    485.207    485.207    485.207
 70.270    592.000    573.325     18.675    485.271    573.332    485.271    485.271    485.271
 70.370    532.797    572.517    -39.720    485.335    572.522    485.335    485.335    485.335
 70.470    566.552    572.930     -6.378    485.398    572.934    485.398    485.398    485.398
 70.570    580.000    574.723      5.277    485.461    574.725    485.461    485.461    485.461
 70.670    538.000    578.247    -40.247    485.524    578.247    485.524    485.524    485.524
 70.770    584.000    584.128     -0.128    485.586    584.126    485.586    485.586    485.586
 70.870    610.000    593.379     16.621    485.648    593.374    485.648    485.648    485.648
 70.970    589.174    607.528    -18.354    485.710    607.519    485.710    485.710    485.710
 71.070    608.275    628.729    -20.454    485.771    628.715    485.771    485.771    485.771
 71.170    699.666    659.789     39.878    485.832    659.766    485.832    485.832    485.832
 71.270    734.007    704.050     29.957    485.893    704.018    485.893    485.893    485.893
 71.370    743.000    765.061    -22.061    485.953    765.016    485.953    485.953    485.953
 71.470    847.162    845.983      1.179    486.013    845.921    486.013    486.013    486.013
 71.570    956.229    948.779      7.449    486.072    948.699    486.072    486.072    486.072
 71.670   1087.000   1073.274     13.726    486.131   1073.174    486.131    486.131    486.131
 71.770   1150.205   1216.209    -66.004    486.189   1216.089    486.189    486.189    486.189
 71.870   1365.216   1370.407     -5.190    486.247   1370.271    486.247    486.247    486.247
 71.970   1566.442   1524.123     42.320    486.305   1523.976    486.305    486.305    486.305
 72.070   1696.801   1660.906     35.895    486.361   1660.759    486.361    486.361    486.361
 72.170   1742.000   1761.082    -19.082    486.418   1760.947    486.418    486.418    486.418
 72.270   1801.000   1806.455     -5.455    486.474   1806.344    486.474    486.474    486.474
 72.370   1795.000   1787.557      7.443    486.529   1787.479    486.529    486.529    486.529
 72.470   1726.000   1708.430     17.570    486.584   1708.386    486.584    486.584    486.584
 72.570   1635.656   1584.399     51.257    486.639   1584.384    486.639    486.639    486.639
 72.670   1587.000   1435.154    151.846    486.693   1435.160    486.693    486.693    486.693
 72.770   1437.000   1278.775    158.225    486.746   1278.794    486.746    486.746    486.746
 72.870   1211.000   1129.041     81.959    486.799   1129.067    486.799    486.799    486.799
 72.970   1101.000    995.028    105.972    486.851    995.055    486.851    486.851    486.851
 73.070    974.000    881.586     92.414    486.902    881.611    486.902    486.902    486.902
 73.170    776.728    790.113    -13.385    486.953    790.135    486.953    486.953    486.953
 73.270    777.000    719.466     57.534    487.003    719.484    487.003    487.003    487.003
 73.370    765.000    666.922     98.078    487.053    666.936    487.053    487.053    487.053
 73.470    582.836    629.053    -46.217    487.102    629.063    487.102    487.102    487.102
 73.570    666.000    602.414     63.586    487.151    602.422    487.151    487.151    487.151
 73.670    634.000    583.986     50.014    487.198    583.992    487.198    487.198    487.198
 73.770    623.386    571.374     52.011    487.245    571.381    487.245    487.245    487.245
 73.870    630.000    562.834     67.166    487.292    562.842    487.292    487.292    487.292
 73.970    584.000    557.173     26.827    487.337    557.183    487.337    487.337    487.337
 74.070    617.000    553.619     63.381    487.382    553.631    487.382    487.382    487.382
 74.170    571.410    551.673     19.737    487.427    551.689    487.427    487.427    487.427
 74.270    560.675    550.991      9.684    487.470    551.011    487.470    487.470    487.470
 74.370    556.475    551.288      5.187    487.513    551.313    487.513    487.513    487.513
 74.470    605.000    552.276     52.724    487.555    552.307    487.555    487.555    487.555
 74.570    574.467    553.621     20.847    487.597    553.657    487.597    487.597    487.597
 74.670    580.000    554.921     25.079    487.637    554.963    487.637    487.637    487.637
 74.770    589.899    555.735     34.164    487.677    555.780    487.677    487.677    487.677
 74.870    625.000    555.663     69.337    487.716    555.710    487.716    487.716    487.716
 74.970    547.833    554.485     -6.652    487.754    554.532    487.754    487.754    487.754
 75.070    620.000    552.270     67.730    487.792    552.315    487.792    487.792    487.792
 75.170    639.000    549.355     89.645    487.828    549.395    487.828    487.828    487.828
 75.270    652.000    546.231    105.769    487.864    546.266    487.864    487.864    487.864
 75.370    541.654    543.431     -1.777    487.899    543.459    487.899    487.899    487.899
 75.470    601.000    541.474     59.526    487.933    541.496    487.933    487.933    487.933
 75.570    550.367    540.858      9.509    487.967    540.873    487.967    487.967    487.967
 75.670    618.000    542.058     75.942    487.999    542.066    487.999    487.999    487.999
 75.770    498.808    545.526    -46.717    488.031    545.527    488.031    488.031    488.031
 75.870    547.000    551.663     -4.663    488.061    551.658    488.061    488.061    488.061
 75.970    535.097    560.778    -25.681    488.091    560.766    488.091    488.091    488.091
 76.070    631.000    573.016     57.984    488.120    572.996    488.120    488.120    488.120
 76.170    622.568    588.281     34.286    488.148    588.255    488.148    488.148    488.148
 76.270    652.005    606.157     45.848    488.175    606.123    488.175    488.175    488.175
 76.370    619.000    625.828     -6.828    488.201    625.787    488.201    488.201    488.201
 76.470    644.105    646.018     -1.913    488.227    645.971    488.227    488.227    488.227
 76.570    679.000    664.965     14.035    488.251    664.913    488.251    488.251    488.251
 76.670    705.000    680.489     24.511    488.274    680.435    488.274    488.274    488.274
 76.770    679.708    690.313    -10.605    488.297    690.259    488.297    488.297    488.297
 76.870    659.000    692.683    -33.683    488.318    692.632    488.318    488.318    488.318
 76.970    635.484    687.075    -51.591    488.339    687.029    488.339    488.339    488.339
 77.070    686.220    674.440     11.781    488.358    674.400    488.358    488.358    488.358
 77.170    603.148    656.768    -53.620    488.376    656.735    488.376    488.376    488.376
 77.270    677.141    636.349     40.792    488.394    636.322    488.394    488.394    488.394
 77.370    638.957    615.221     23.736    488.410    615.199    488.410    488.410    488.410
 77.470    540.000    594.948    -54.948    488.426    594.932    488.426    488.426    488.426
 77.570    602.000    576.596     25.404    488.440    576.583    488.440    488.440    488.440
 77.670    552.000    560.773     -8.773    488.454    560.764    488.454    488.454    488.454
 77.770    538.000    547.706     -9.706    488.466    547.700    488.466    488.466    488.466
 77.870    481.000    537.323    -56.323    488.477    537.318    488.477    488.477    488.477
 77.970    535.000    529.358      5.642    488.488    529.355    488.488    488.488    488.488
 78.070    488.000    523.427    -35.427    488.497    523.424    488.497    488.497    488.497
 78.170    518.823    519.116     -0.293    488.505    519.114    488.505    488.505    488.505
 78.270    514.000    516.037     -2.037    488.512    516.036    488.512    488.512    488.512
 78.370    519.000    513.862      5.138    488.518    513.861    488.518    488.518    488.518
 78.470    495.000    512.331    -17.331    488.522    512.330    488.522    488.522    488.522
 78.570    560.591    511.255     49.336    488.526    511.254    488.526    488.526    488.526
 78.670    485.000    510.502    -25.502    488.529    510.502    488.529    488.529    488.529
 78.770    505.000    509.990     -4.990    488.530    509.990    488.530    488.530    488.530
 78.870    497.526    509.670    -12.144    488.531    509.670    488.531    488.531    488.531
 78.970    540.785    509.517     31.268    488.530    509.517    488.530    488.530    488.530
 79.070    529.293    509.527     19.766    488.528    509.527    488.528    488.528    488.528
 79.170    522.000    509.707     12.293    488.525    509.707    488.525    488.525    488.525
 79.270    499.000    510.076    -11.076    488.520    510.075    488.520    488.520    488.520
 79.370    538.124    510.660     27.464    488.515    510.659    488.515    488.515    488.515
 79.470    489.000    511.496    -22.496    488.508    511.495    488.508    488.508    488.508
 79.570    515.000    512.631      2.369    488.501    512.630    488.501    488.501    488.501
 79.670    517.000    514.126      2.874    488.492    514.124    488.492    488.492    488.492
 79.770    561.000    516.060     44.940    488.482    516.058    488.482    488.482    488.482
 79.870    524.278    518.541      5.737    488.470    518.538    488.470    488.470    488.470
 79.970    531.000    521.706      9.294    488.458    521.703    488.458    488.458    488.458
 80.070    507.000    525.733    -18.733    488.444    525.730    488.444    488.444    488.444
 80.170    522.000    530.837     -8.837    488.429    530.834    488.429    488.429    488.429
 80.270    550.000    537.274     12.726    488.413    537.271    488.413    488.413    488.413
 80.370    539.000    545.331     -6.331    488.395    545.329    488.395    488.395    488.395
 80.470    598.476    555.321     43.155    488.377    555.321    488.377    488.377    488.377
 80.570    522.654    567.543    -44.889    488.357    567.546    488.357    488.357    488.357
 80.670    549.000    582.210    -33.210    488.335    582.216    488.335    488.335    488.335
 80.770    615.054    599.359     15.695    488.313    599.369    488.313    488.313    488.313
 80.870    596.000    618.764    -22.764    488.289    618.779    488.289    488.289    488.289
 80.970    610.000    639.875    -29.875    488.264    639.897    488.264    488.264    488.264
 81.070    646.000    661.807    -15.807    488.238    661.835    488.238    488.238    488.238
 81.170    669.000    683.394    -14.394    488.211    683.429    488.211    488.211    488.211
 81.270    643.000    703.354    -60.354    488.182    703.396    488.182    488.182    488.182
 81.370    633.000    720.478    -87.478    488.152    720.527    488.152    488.152    488.152
 81.470    782.037    733.781     48.256    488.120    733.837    488.120    488.120    488.120
 81.570    704.000    742.578    -38.578    488.088    742.640    488.088    488.088    488.088
 81.670    692.000    746.530    -54.530    488.054    746.597    488.054    488.054    488.054
 81.770    780.500    745.662     34.838    488.018    745.733    488.018    488.018    488.018
 81.870    770.322    740.278     30.043    487.982    740.354    487.982    487.982    487.982
 81.970    779.000    730.863     48.137    487.944    730.940    487.944    487.944    487.944
 82.070    748.000    718.054     29.946    487.905    718.132    487.905    487.905    487.905
 82.170    668.000    702.681    -34.681    487.864    702.758    487.864    487.864    487.864
 82.270    684.000    685.711     -1.711    487.822    685.786    487.822    487.822    487.822
 82.370    627.000    668.070    -41.070    487.779    668.142    487.779    487.779    487.779
 82.470    657.000    650.472      6.528    487.734    650.539    487.734    487.734    487.734
 82.570    619.000    633.372    -14.372    487.688    633.435    487.688    487.688    487.688
 82.670    658.612    617.063     41.549    487.641    617.120    487.641    487.641    487.641
 82.770    573.000    601.801    -28.801    487.592    601.852    487.592    487.592    487.592
 82.870    568.395    587.874    -19.480    487.542    587.918    487.542    487.542    487.542
 82.970    571.000    575.587     -4.587    487.491    575.623    487.491    487.491    487.491
 83.070    587.709    565.204     22.505    487.438    565.232    487.438    487.438    487.438
 83.170    596.044    556.913     39.131    487.384    556.933    487.384    487.384    487.384
 83.270    572.000    550.812     21.188    487.329    550.824    487.329    487.329    487.329
 83.370    529.000    546.909    -17.909    487.272    546.913    487.272    487.272    487.272
 83.470    526.000    545.121    -19.121    487.214    545.116    487.214    487.214    487.214
 83.570    543.000    545.271     -2.271    487.154    545.259    487.154    487.154    487.154
 83.670    550.787    547.089      3.698    487.093    547.069    487.093    487.093    487.093
 83.770    583.000    550.206     32.794    487.030    550.178    487.030    487.030    487.030
 83.870    536.000    554.157    -18.157    486.967    554.122    486.967    486.967    486.967
 83.970    569.000    558.385     10.615    486.901    558.345    486.901    486.901    486.901
 84.070    574.269    562.226     12.043    486.835    562.181    486.835    486.835    486.835
 84.170    524.000    565.149    -41.149    486.767    565.101    486.767    486.767    486.767
 84.270    541.000    566.542    -25.542    486.697    566.493    486.697    486.697    486.697
 84.370    544.000    566.037    -22.037    486.627    565.989    486.627    486.627    486.627
 84.470    573.000    563.570      9.430    486.554    563.525    486.554    486.554    486.554
 84.570    499.000    559.380    -60.380    486.481    559.339    486.481    486.481    486.481
 84.670    534.008    553.912    -19.904    486.406    553.876    486.406    486.406    486.406
 84.770    475.000    547.682    -72.682    486.329    547.651    486.329    486.329    486.329
 84.870    556.000    541.181     14.819    486.251    541.155    486.251    486.251    486.251
 84.970    510.000    534.816    -24.816    486.172    534.794    486.172    486.172    486.172
 85.070    506.816    528.896    -22.079    486.091    528.878    486.091    486.091    486.091
 85.170    521.000    523.631     -2.631    486.009    523.616    486.009    486.009    486.009
 85.270    525.492    519.139      6.353    485.926    519.127    485.926    485.926    485.926
 85.370    538.000    515.460     22.540    485.841    515.450    485.841    485.841    485.841
 85.470    480.000    512.574    -32.574    485.754    512.566    485.754    485.754    485.754
 85.570    523.000    510.422     12.578    485.667    510.415    485.667    485.667    485.667
 85.670    496.000    508.923    -12.923    485.577    508.916    485.577    485.577    485.577
 85.770    486.000    508.000    -22.000    485.487    507.994    485.487    485.487    485.487
 85.870    516.863    507.586      9.277    485.394    507.579    485.394    485.394    485.394
 85.970    493.000    507.636    -14.636    485.301    507.628    485.301    485.301    485.301
 86.070    490.000    508.136    -18.136    485.206    508.127    485.206    485.206    485.206
 86.170    524.000    509.104     14.896    485.110    509.094    485.110    485.110    485.110
 86.270    524.813    510.592     14.221    485.012    510.580    485.012    485.012    485.012
 86.370    456.000    512.680    -56.680    484.912    512.664    484.912    484.912    484.912
 86.470    509.000    515.467     -6.467    484.812    515.448    484.812    484.812    484.812
 86.570    535.000    519.066     15.934    484.710    519.043    484.710    484.710    484.710
 86.670    521.000    523.589     -2.589    484.606    523.561    484.606    484.606    484.606
 86.770    483.973    529.129    -45.157    484.501    529.094    484.501    484.501    484.501
 86.870    531.252    535.742     -4.490    484.394    535.699    484.394    484.394    484.394
 86.970    584.802    543.422     41.381    484.287    543.370    484.287    484.287    484.287
 87.070    549.716    552.080     -2.364    484.177    552.019    484.177    484.177    484.177
 87.170    580.000    561.520     18.480    484.067    561.449    484.067    484.067    484.067
 87.270    571.000    571.423     -0.423    483.954    571.343    483.954    483.954    483.954
 87.370    545.356    581.338    -35.982    483.841    581.248    483.841    483.841    483.841
 87.470    556.000    590.680    -34.680    483.726    590.582    483.726    483.726    483.726
 87.570    617.216    598.763     18.453    483.609    598.660    483.609    483.609    483.609
 87.670    608.000    604.880      3.120    483.491    604.774    483.491    483.491    483.491
 87.770    645.119    608.442     36.677    483.372    608.337    483.372    483.372    483.372
 87.870    661.000    609.139     51.861    483.251    609.038    483.251    483.251    483.251
 87.970    625.000    607.037     17.963    483.129    606.943    483.129    483.129    483.129
 88.070    606.000    602.556      3.444    483.006    602.473    483.006    483.006    483.006
 88.170    641.000    596.351     44.649    482.881    596.279    482.881    482.881    482.881
 88.270    585.000    589.169     -4.169    482.754    589.109    482.754    482.754    482.754
 88.370    604.169    581.754     22.415    482.627    581.706    482.627    482.627    482.627
 88.470    604.667    574.785     29.882    482.497    574.749    482.497    482.497    482.497
 88.570    576.000    568.833      7.167    482.367    568.809    482.367    482.367    482.367
 88.670    554.000    564.338    -10.338    482.235    564.324    482.235    482.235    482.235
 88.770    608.039    561.586     46.453    482.101    561.582    482.101    482.101    482.101
 88.870    579.132    560.704     18.429    481.966    560.709    481.966    481.966    481.966
 88.970    537.336    561.655    -24.319    481.830    561.669    481.830    481.830    481.830
 89.070    591.069    564.251     26.818    481.693    564.274    481.693    481.693    481.693
 89.170    568.000    568.164     -0.164    481.554    568.195    481.554    481.554    481.554
 89.270    585.000    572.937     12.063    481.413    572.976    481.413    481.413    481.413
 89.370    563.000    578.008    -15.008    481.272    578.054    481.272    481.272    481.272
 89.470    566.000    582.736    -16.736    481.128    582.789    481.128    481.128    481.128
 89.570    573.167    586.452    -13.285    480.984    586.512    480.984    480.984    480.984
 89.670    614.000    588.550     25.450    480.838    588.614    480.838    480.838    480.838
 89.770    603.000    588.598     14.402    480.691    588.665    480.691    480.691    480.691
 89.870    596.000    586.440      9.560    480.542    586.507    480.542    480.542    480.542
 89.970    567.000    582.223    -15.223    480.392    582.289    480.392    480.392    480.392
 90.070    625.800    576.335     49.466    480.241    576.397    480.241    480.241    480.241
 90.170    562.000    569.286     -7.286    480.088    569.344    480.088    480.088    480.088
 90.270    578.923    561.604     17.319    479.934    561.656    479.934    479.934    479.934
 90.370    521.000    553.764    -32.764    479.779    553.809    479.779    479.779    479.779
 90.470    495.000    546.156    -51.156    479.622    546.195    479.622    479.622    479.622
 90.570    560.648    539.080     21.568    479.464    539.113    479.464    479.464    479.464
 90.670    546.780    532.745     14.035    479.305    532.772    479.305    479.305    479.305
 90.770    490.375    527.274    -36.899    479.144    527.296    479.144    479.144    479.144
 90.870    561.541    522.720     38.821    478.982    522.737    478.982    478.982    478.982
 90.970    488.000    519.076    -31.076    478.819    519.089    478.819    478.819    478.819
 91.070    523.243    516.295      6.948    478.654    516.305    478.654    478.654    478.654
 91.170    522.000    514.308      7.692    478.489    514.315    478.489    478.489    478.489
 91.270    542.081    513.038     29.043    478.321    513.043    478.321    478.321    478.321
 91.370    560.090    512.418     47.671    478.153    512.421    478.153    478.153    478.153
 91.470    477.062    512.399    -35.337    477.983    512.400    477.983    477.983    477.983
 91.570    473.575    512.962    -39.387    477.812    512.962    477.812    477.812    477.812
 91.670    512.774    514.122     -1.348    477.640    514.119    477.640    477.640    477.640
 91.770    508.000    515.927     -7.927    477.467    515.923    477.467    477.467    477.467
 91.870    517.000    518.463     -1.463    477.292    518.457    477.292    477.292    477.292
 91.970    569.118    521.847     47.272    477.116    521.839    477.116    477.116    477.116
 92.070    477.927    526.222    -48.295    476.939    526.212    476.939    476.939    476.939
 92.170    519.000    531.746    -12.746    476.760    531.733    476.760    476.760    476.760
 92.270    549.000    538.583     10.417    476.581    538.567    476.581    476.581    476.581
 92.370    543.000    546.885     -3.885    476.400    546.864    476.400    476.400    476.400
 92.470    511.000    556.777    -45.777    476.218    556.751    476.218    476.218    476.218
 92.570    539.828    568.339    -28.511    476.035    568.308    476.035    476.035    476.035
 92.670    549.275    581.590    -32.315    475.850    581.554    475.850    475.850    475.850
 92.770    543.901    596.472    -52.571    475.665    596.429    475.665    475.665    475.665
 92.870    594.000    612.833    -18.833    475.478    612.784    475.478    475.478    475.478
 92.970    611.000    630.415    -19.415    475.290    630.360    475.290    475.290    475.290
 93.070    663.000    648.848     14.152    475.101    648.787    475.101    475.101    475.101
 93.170    652.000    667.651    -15.651    474.911    667.585    474.911    474.911    474.911
 93.270    608.000    686.268    -78.268    474.719    686.199    474.719    474.719    474.719
 93.370    707.329    704.143      3.186    474.527    704.070    474.527    474.527    474.527
 93.470    721.000    720.828      0.172    474.333    720.754    474.333    474.333    474.333
 93.570    722.076    736.095    -14.018    474.139    736.021    474.139    474.139    474.139
 93.670    754.000    749.975      4.025    473.943    749.902    473.943    473.943    473.943
 93.770    772.000    762.703      9.297    473.746    762.632    473.746    473.746    473.746
 93.870    764.193    774.590    -10.397    473.548    774.521    473.548    473.548    473.548
 93.970    825.000    785.902     39.098    473.349    785.836    473.349    473.349    473.349
 94.070    736.252    796.801    -60.549    473.149    796.737    473.149    473.149    473.149
 94.170    859.000    807.363     51.637    472.948    807.302    472.948    472.948    472.948
 94.270    821.000    817.638      3.362    472.746    817.580    472.746    472.746    472.746
 94.370    829.000    827.746      1.254    472.543    827.692    472.543    472.543    472.543
 94.470    781.719    837.824    -56.105    472.339    837.773    472.339    472.339    472.339
 94.570    875.000    847.912     27.088    472.134    847.865    472.134    472.134    472.134
 94.670    887.000    857.864     29.136    471.927    857.821    471.927    471.927    471.927
 94.770    869.000    867.237      1.763    471.720    867.198    471.720    471.720    471.720
 94.870    875.927    875.263      0.664    471.512    875.230    471.512    471.512    471.512
 94.970    895.000    880.910     14.090    471.303    880.883    471.303    471.303    471.303
 95.070    845.509    883.023    -37.514    471.093    883.004    471.093    471.093    471.093
 95.170    907.000    880.565     26.435    470.883    880.553    470.883    470.883    470.883
 95.270    884.000    872.891     11.109    470.671    872.887    470.671    470.671    470.671
 95.370    942.000    859.968     82.032    470.458    859.972    470.458    470.458    470.458
 95.470    881.000    842.434     38.566    470.245    842.443    470.245    470.245    470.245
 95.570    820.000    821.476     -1.476    470.030    821.490    470.030    470.030    470.030
 95.670    823.000    798.610     24.390    469.815    798.627    469.815    469.815    469.815
 95.770    744.000    775.471    -31.471    469.599    775.488    469.599    469.599    469.599
 95.870    760.000    753.665      6.335    469.382    753.682    469.382    469.382    469.382
 95.970    770.000    734.694     35.306    469.164    734.709    469.164    469.164    469.164
 96.070    661.010    719.920    -58.909    468.946    719.930    468.946    468.946    468.946
 96.170    701.753    710.544     -8.792    468.726    710.550    468.726    468.726    468.726
 96.270    686.378    707.603    -21.225    468.506    707.604    468.506    468.506    468.506
 96.370    720.000    711.953      8.047    468.285    711.947    468.285    468.285    468.285
 96.470    692.000    724.258    -32.258    468.064    724.246    468.064    468.064    468.064
 96.570    691.345    744.980    -53.635    467.841    744.961    467.841    467.841    467.841
 96.670    796.000    774.350     21.650    467.618    774.324    467.618    467.618    467.618
 96.770    805.000    812.342     -7.342    467.395    812.308    467.395    467.395    467.395
 96.870    793.000    858.629    -65.629    467.170    858.588    467.170    467.170    467.170
 96.970    906.179    912.536     -6.358    466.945    912.490    466.945    466.945    466.945
 97.070   1019.460    972.993     46.467    466.719    972.943    466.719    466.719    466.719
 97.170    992.799   1038.484    -45.686    466.493   1038.430    466.493    466.493    466.493
 97.270   1085.000   1107.011    -22.011    466.266   1106.956    466.266    466.266    466.266
 97.370   1102.000   1176.074    -74.074    466.038   1176.020    466.038    466.038    466.038
 97.470   1282.791   1242.681     40.110    465.810   1242.632    465.810    465.810    465.810
 97.570   1352.000   1303.425     48.575    465.581   1303.384    465.581    465.581    465.581
 97.670   1341.153   1354.703    -13.550    465.352   1354.673    465.352    465.352    465.352
 97.770   1432.303   1393.071     39.233    465.122   1393.056    465.122    465.122    465.122
 97.870   1419.000   1415.772      3.228    464.892   1415.774    464.892    464.892    464.892
 97.970   1471.000   1421.269     49.731    464.661   1421.290    464.661    464.661    464.661
 98.070   1342.593   1409.563    -66.971    464.429   1409.602    464.429    464.429    464.429
 98.170   1460.321   1382.152     78.170    464.197   1382.207    464.197    464.197    464.197
 98.270   1345.987   1341.670      4.317    463.965   1341.737    463.965    463.965    463.965
 98.370   1326.000   1291.399     34.601    463.732   1291.476    463.732    463.732    463.732
 98.470   1233.659   1234.830     -1.171    463.499   1234.913    463.499    463.499    463.499
 98.570   1136.568   1175.347    -38.779    463.265   1175.431    463.265    463.265    463.265
 98.670   1140.000   1116.009     23.991    463.032   1116.091    463.032    463.032    463.032
 98.770   1030.000   1059.705    -29.705    462.797   1059.783    462.797    462.797    462.797
 98.870    972.000   1008.759    -36.759    462.563   1008.831    462.563    462.563    462.563
 98.970    935.552    965.169    -29.617    462.328    965.233    462.328    462.328    462.328
 99.070    994.576    930.590     63.986    462.092    930.646    462.092    462.092    462.092
 99.170    876.000    906.349    -30.349    461.857    906.397    461.857    461.857    461.857
 99.270    884.000    893.462     -9.462    461.621    893.502    461.621    461.621    461.621
 99.370    857.000    892.643    -35.643    461.385    892.675    461.385    461.385    461.385
 99.470    897.000    904.309     -7.309    461.149    904.335    461.149    461.149    461.149
 99.570    922.000    928.623     -6.623    460.912    928.645    460.912    460.912    460.912
 99.670    887.000    965.451    -78.451    460.675    965.471    460.675    460.675    460.675
 99.770   1047.331   1014.363     32.968    460.439   1014.383    460.439    460.439    460.439
 99.870   1080.000   1074.619      5.381    460.202   1074.642    460.202    460.202    460.202
 99.970   1139.000   1145.129     -6.129    459.965   1145.158    459.965    459.965    459.965
100.070   1235.000   1224.408     10.592    459.727   1224.445    459.727    459.727    459.727
100.170   1321.381   1310.532     10.849    459.490   1310.582    459.490    459.490    459.490
100.270   1390.000   1401.116    -11.116    459.253   1401.181    459.253    459.253    459.253
100.370   1497.000   1493.325      3.675    459.016   1493.410    459.016    459.016    459.016
100.470   1679.000   1583.975     95.025    458.778   1584.082    458.778    458.778    458.778
100.570   1689.000   1669.730     19.270    458.541   1669.862    458.541    458.541    458.541
100.670   1843.000   1747.401     95.599    458.304   1747.561    458.304    458.304    458.304
100.770   1766.000   1814.248    -48.248    458.066   1814.434    458.066    458.066    458.066
100.870   1851.806   1868.165    -16.359    457.829   1868.377    457.829    457.829    457.829
100.970   1854.000   1907.685    -53.685    457.592   1907.921    457.592    457.592    457.592
101.070   1975.000   1931.826     43.174    457.355   1932.083    457.355    457.355    457.355
101.170   2004.000   1939.942     64.058    457.119   1940.216    457.119    457.119    457.119
101.270   1966.000   1931.717     34.283    456.882   1932.004    456.882    456.882    456.882
101.370   1815.806   1907.355    -91.549    456.646   1907.650    456.646    456.646    456.646
101.470   1866.000   1867.868     -1.868    456.410   1868.166    456.410    456.410    456.410
101.570   1787.033   1815.261    -28.228    456.174   1815.558    456.174    456.174    456.174
101.670   1745.000   1752.474     -7.474    455.938   1752.765    455.938    455.938    455.938
101.770   1731.000   1683.058     47.942    455.703   1683.338    455.703    455.703    455.703
101.870   1641.326   1610.717     30.609    455.468   1610.984    455.468    455.468    455.468
101.970   1530.774   1538.886     -8.113    455.233   1539.137    455.233    455.233    455.233
102.070   1497.000   1470.424     26.576    454.999   1470.657    454.999    454.999    454.999
102.170   1449.000   1407.464     41.536    454.765   1407.679    454.765    454.765    454.765
102.270   1432.039   1351.365     80.675    454.531   1351.563    454.531    454.531    454.531
102.370   1340.278   1302.727     37.551    454.298   1302.910    454.298    454.298    454.298
102.470   1264.000   1261.431      2.569    454.066   1261.600    454.066    454.066    454.066
102.570   1285.757   1226.795     58.962    453.834   1226.952    453.834    453.834    453.834
102.670   1171.942   1197.521    -25.580    453.602   1197.669    453.602    453.602    453.602
102.770   1193.818   1171.922     21.896    453.372   1172.063    453.372    453.372    453.372
102.870   1186.052   1148.089     37.964    453.141   1148.223    453.141    453.141    453.141
102.970   1184.000   1124.125     59.875    452.911   1124.256    452.911    452.911    452.911
103.070   1131.000   1098.419     32.581    452.682   1098.547    452.682    452.682    452.682
103.170    992.000   1069.873    -77.873    452.454   1069.999    452.454    452.454    452.454
103.270    990.036   1038.015    -47.979    452.226   1038.138    452.226    452.226    452.226
103.370    964.000   1002.972    -38.972    451.999   1003.092    451.999    451.999    451.999
103.470    909.000    965.325    -56.325    451.773    965.440    451.773    451.773    451.773
103.570    919.000    925.918     -6.918    451.548    926.027    451.548    451.548    451.548
103.670    916.000    885.694     30.306    451.323    885.798    451.323    451.323    451.323
103.770    862.000    845.582     16.418    451.099    845.678    451.099    451.099    451.099
103.870    779.000    806.423    -27.423    450.876    806.512    450.876    450.876    450.876
103.970    788.000    768.944     19.056    450.654    769.024    450.654    450.654    450.654
104.070    721.610    733.730    -12.121    450.433    733.802    450.433    450.433    450.433
104.170    706.000    701.241      4.759    450.213    701.305    450.213    450.213    450.213
104.270    715.000    671.777     43.223    449.994    671.833    449.994    449.994    449.994
104.370    630.000    645.503    -15.503    449.775    645.552    449.775    449.775    449.775
104.470    614.000    622.458     -8.458    449.558    622.500    449.558    449.558    449.558
104.570    610.000    602.573      7.427    449.342    602.608    449.342    449.342    449.342
104.670    565.425    585.690    -20.264    449.127    585.720    449.127    449.127    449.127
104.770    604.884    571.590     33.294    448.914    571.615    448.914    448.914    448.914
104.870    563.000    560.015      2.985    448.701    560.036    448.701    448.701    448.701
104.970    555.000    550.693      4.307    448.490    550.710    448.490    448.490    448.490
105.070    592.773    543.354     49.420    448.280    543.367    448.280    448.280    448.280
105.170    589.000    537.747     51.253    448.071    537.757    448.071    448.071    448.071
105.270    511.000    533.651    -22.651    447.863    533.659    447.863    447.863    447.863
105.370    540.000    530.884      9.116    447.657    530.889    447.657    447.657    447.657
105.470    475.141    529.299    -54.158    447.452    529.303    447.452    447.452    447.452
105.570    507.625    528.794    -21.170    447.249    528.795    447.249    447.249    447.249
105.670    531.000    529.301      1.699    447.046    529.300    447.046    447.046    447.046
105.770    516.000    530.785    -14.785    446.846    530.782    446.846    446.846    446.846
105.870    494.544    533.238    -38.694    446.647    533.233    446.647    446.647    446.647
105.970    538.000    536.675      1.325    446.449    536.668    446.449    446.449    446.449
106.070    537.000    541.123     -4.123    446.253    541.113    446.253    446.253    446.253
106.170    539.000    546.616     -7.616    446.059    546.603    446.059    446.059    446.059
106.270    527.000    553.182    -26.182    445.866    553.166    445.866    445.866    445.866
106.370    581.000    560.835     20.165    445.675    560.816    445.675    445.675    445.675
106.470    586.000    569.546     16.454    445.486    569.524    445.486    445.486    445.486
106.570    595.000    579.308     15.692    445.298    579.284    445.298    445.298    445.298
106.670    613.124    590.031     23.094    445.113    590.003    445.113    445.113    445.113
106.770    572.370    601.573    -29.203    444.929    601.543    444.929    444.929    444.929
106.870    599.381    613.754    -14.373    444.746    613.721    444.746    444.746    444.746
106.970    609.000    626.340    -17.340    444.566    626.304    444.566    444.566    444.566
107.070    614.000    639.047    -25.047    444.388    639.009    444.388    444.388    444.388
107.170    639.021    651.545    -12.524    444.212    651.506    444.212    444.212    444.212
107.270    649.000    663.468    -14.468    444.037    663.428    444.037    444.037    444.037
107.370    716.355    674.429     41.926    443.865    674.389    443.865    443.865    443.865
107.470    652.000    684.052    -32.052    443.695    684.013    443.695    443.695    443.695
107.570    646.154    692.013    -45.859    443.527    691.976    443.527    443.527    443.527
107.670    668.000    698.090    -30.090    443.361    698.055    443.361    443.361    443.361
107.770    700.896    702.202     -1.306    443.197    702.170    443.197    443.197    443.197
107.870    692.000    704.433    -12.433    443.035    704.406    443.035    443.035    443.035
107.970    760.613    705.021     55.592    442.876    704.998    442.876    442.876    442.876
108.070    760.694    704.320     56.374    442.719    704.301    442.719    442.719    442.719
108.170    639.000    702.742    -63.742    442.564    702.727    442.564    442.564    442.564
108.270    714.176    700.704     13.472    442.412    700.694    442.412    442.412    442.412
108.370    657.000    698.583    -41.583    442.262    698.578    442.262    442.262    442.262
108.470    678.000    696.685    -18.685    442.115    696.684    442.115    442.115    442.115
108.570    694.000    695.225     -1.225    441.970    695.228    441.970    441.970    441.970
108.670    698.000    694.317      3.683    441.828    694.324    441.828    441.828    441.828
108.770    677.000    693.971    -16.971    441.688    693.982    441.688    441.688    441.688
108.870    687.995    694.098     -6.103    441.551    694.113    441.551    441.551    441.551
108.970    656.804    694.508    -37.703    441.417    694.526    441.417    441.417    441.417
109.070    652.000    694.927    -42.927    441.285    694.949    441.285    441.285    441.285
109.170    645.708    695.019    -49.311    441.156    695.044    441.156    441.156    441.156
109.270    756.000    694.414     61.586    441.030    694.442    441.030    441.030    441.030
109.370    709.000    692.756     16.244    440.906    692.786    440.906    440.906    440.906
109.470    630.000    689.746    -59.746    440.786    689.779    440.786    440.786    440.786
109.570    730.526    685.195     45.331    440.668    685.229    440.668    440.668    440.668
109.670    675.339    679.040     -3.701    440.554    679.076    440.554    440.554    440.554
109.770    650.210    671.359    -21.149    440.442    671.395    440.442    440.442    440.442
109.870    712.000    662.341     49.659    440.334    662.377    440.334    440.334    440.334
109.970    663.328    652.255     11.073    440.228    652.290    440.228    440.228    440.228
110.070    650.000    641.412      8.588    440.126    641.446    440.126    440.126    440.126
110.170    671.000    630.129     40.871    440.027    630.161    440.027    440.027    440.027
110.270    673.943    618.711     55.233    439.931    618.740    439.931    439.931    439.931
110.370    673.000    607.431     65.569    439.839    607.459    439.839    439.839    439.839
110.470    580.793    596.531    -15.739    439.749    596.556    439.749    439.749    439.749
110.570    599.000    586.212     12.788    439.663    586.234    439.663    439.663    439.663
110.670    580.000    576.634      3.366    439.581    576.654    439.581    439.581    439.581
110.770    607.000    567.919     39.081    439.502    567.937    439.502    439.502    439.502
110.870    576.000    560.151     15.849    439.426    560.165    439.426    439.426    439.426
110.970    528.764    553.375    -24.610    439.354    553.387    439.354    439.354    439.354
111.070    566.951    547.606     19.345    439.286    547.616    439.286    439.286    439.286
111.170    550.044    542.830      7.214    439.221    542.838    439.221    439.221    439.221
111.270    588.000    539.010     48.990    439.160    539.016    439.160    439.160    439.160
111.370    567.000    536.090     30.910    439.103    536.094    439.103    439.103    439.103
111.470    485.922    534.001    -48.079    439.049    534.004    439.049    439.049    439.049
111.570    540.000    532.666      7.334    438.999    532.668    438.999    438.999    438.999
111.670    579.000    532.010     46.990    438.954    532.010    438.954    438.954    438.954
111.770    505.818    531.955    -26.137    438.912    531.954    438.912    438.912    438.912
111.870    557.000    532.425     24.575    438.874    532.423    438.874    438.874    438.874
111.970    483.407    533.350    -49.943    438.840    533.347    438.840    438.840    438.840
112.070    520.000    534.669    -14.669    438.810    534.665    438.810    438.810    438.810
112.170    552.000    536.323     15.677    438.784    536.318    438.784    438.784    438.784
112.270    563.000    538.280     24.720    438.763    538.276    438.763    438.763    438.763
112.370    507.670    540.515    -32.845    438.745    540.510    438.745    438.745    438.745
112.470    518.000    543.006    -25.006    438.732    543.001    438.732    438.732    438.732
112.570    536.000    545.749     -9.749    438.724    545.744    438.724    438.724    438.724
112.670    577.000    548.754     28.246    438.719    548.748    438.719    438.719    438.719
112.770    528.208    552.044    -23.835    438.719    552.038    438.719    438.719    438.719
112.870    556.442    555.654      0.788    438.724    555.648    438.724    438.724    438.724
112.970    553.081    559.638     -6.557    438.733    559.631    438.733    438.733    438.733
113.070    557.839    564.061     -6.222    438.747    564.054    438.747    438.747    438.747
113.170    583.000    569.012     13.988    438.765    569.005    438.765    438.765    438.765
113.270    591.000    574.603     16.397    438.788    574.595    438.788    438.788    438.788
113.370    607.000    580.979     26.021    438.816    580.970    438.816    438.816    438.816
113.470    625.000    588.323     36.677    438.848    588.314    438.848    438.848    438.848
113.570    610.000    596.871     13.129    438.886    596.860    438.886    438.886    438.886
113.670    609.000    606.920      2.080    438.928    606.907    438.928    438.928    438.928
113.770    597.000    618.845    -21.845    438.975    618.829    438.975    438.975    438.975
113.870    623.988    633.114     -9.126    439.027    633.095    439.027    439.027    439.027
113.970    625.470    650.307    -24.837    439.085    650.283    439.085    439.085    439.085
114.070    694.009    671.131     22.878    439.147    671.101    439.147    439.147    439.147
114.170    757.000    696.442     60.558    439.215    696.405    439.215    439.215    439.215
114.270    720.065    727.258     -7.193    439.288    727.214    439.288    439.288    439.288
114.370    729.883    764.775    -34.892    439.366    764.720    439.366    439.366    439.366
114.470    847.778    810.370     37.408    439.449    810.303    439.449    439.449    439.449
114.570    857.000    865.606     -8.606    439.538    865.524    439.538    439.538    439.538
114.670    929.000    932.218     -3.218    439.632    932.120    439.632    439.632    439.632
114.770   1028.000   1012.093     15.907    439.732   1011.975    439.732    439.732    439.732
114.870   1051.153   1107.230    -56.077    439.837   1107.090    439.837    439.837    439.837
114.970   1201.951   1219.690    -17.739    439.948   1219.525    439.948    439.948    439.948
115.070   1372.000   1351.521     20.479    440.065   1351.330    440.065    440.065    440.065
115.170   1615.000   1504.674    110.326    440.187   1504.453    440.187    440.187    440.187
115.270   1729.629   1680.895     48.734    440.316   1680.644    440.316    440.316    440.316
115.370   1917.377   1881.614     35.763    440.450   1881.332    440.450    440.450    440.450
115.470   2092.132   2107.815    -15.683    440.590   2107.501    440.590    440.590    440.590
115.570   2491.000   2359.910    131.090    440.736   2359.565    440.736    440.736    440.736
115.670   2695.000   2637.614     57.386    440.888   2637.241    440.888    440.888    440.888
115.770   2995.507   2939.835     55.672    441.046   2939.437    441.046    441.046    441.046
115.870   3380.000   3264.569    115.431    441.210   3264.151    441.210    441.210    441.210
115.970   3513.549   3608.834    -95.285    441.380   3608.402    441.380    441.380    441.380
116.070   3953.773   3968.618    -14.845    441.557   3968.179    441.557    441.557    441.557
116.170   4308.000   4338.862    -30.862    441.740   4338.426    441.740    441.740    441.740
116.270   4688.000   4713.472    -25.472    441.929   4713.050    441.929    441.929    441.929
116.370   5075.000   5085.364    -10.364    442.125   5084.966    442.125    442.125    442.125
116.470   5586.000   5446.547    139.453    442.328   5446.187    442.328    442.328    442.328
116.570   5802.000   5788.271     13.729    442.537   5787.961    442.537    442.537    442.537
116.670   6095.000   6101.241     -6.241    442.752   6100.995    442.752    442.752    442.752
116.770   6219.000   6375.962   -156.962    442.975   6375.792    442.975    442.975    442.975
116.870   6596.000   6603.215     -7.215    443.204   6603.133    443.204    443.204    443.204
116.970   6862.000   6774.690     87.310    443.440   6774.703    443.440    443.440    443.440
117.070   6922.595   6883.701     38.893    443.682   6883.815    443.682    443.682    443.682
117.170   7040.178   6925.883    114.295    443.932   6926.098    443.932    443.932    443.932
117.270   6879.000   6899.705    -20.705    444.189   6900.016    444.189    444.189    444.189
117.370   6708.299   6806.652    -98.354    444.453   6807.052    444.453    444.453    444.453
117.470   6798.000   6651.037    146.963    444.724   6651.513    444.724    444.724    444.724
117.570   6390.000   6439.475    -49.475    445.002   6440.012    445.002    445.002    445.002
117.670   6031.000   6180.188   -149.188    445.287   6180.772    445.287    445.287    445.287
117.770   5689.000   5882.267   -193.267    445.580   5882.882    445.580    445.580    445.580
117.870   5495.000   5555.075    -60.075    445.880   5555.706    445.880    445.880    445.880
117.970   5092.000   5207.823   -115.823    446.188   5208.456    446.188    446.188    446.188
118.070   4686.000   4849.064   -163.064    446.503   4849.686    446.503    446.503    446.503
118.170   4512.000   4486.602     25.398    446.826   4487.203    446.826    446.826    446.826
118.270   4065.589   4127.332    -61.743    447.157   4127.904    447.157    447.157    447.157
118.370   3733.000   3777.156    -44.156    447.495   3777.691    447.495    447.495    447.495
118.470   3428.803   3440.942    -12.139    447.841   3441.434    447.841    447.841    447.841
118.570   3001.339   3122.529   -121.190    448.195   3122.977    448.195    448.195    448.195
118.670   2828.050   2824.765      3.285    448.557   2825.165    448.557    448.557    448.557
118.770   2466.000   2549.566    -83.566    448.927   2549.919    448.927    448.927    448.927
118.870   2181.000   2298.008   -117.008    449.305   2298.315    449.305    449.305    449.305
118.970   2033.000   2070.427    -37.427    449.691   2070.691    449.691    449.691    449.691
119.070   1869.905   1866.533      3.371    450.086   1866.756    450.086    450.086    450.086
119.170   1676.000   1685.522     -9.522    450.488   1685.708    450.488    450.488    450.488
119.270   1518.000   1526.188     -8.188    450.899   1526.341    450.899    450.899    450.899
119.370   1376.270   1387.032    -10.762    451.319   1387.156    451.319    451.319    451.319
119.470   1290.810   1266.360     24.450    451.747   1266.459    451.747    451.747    451.747
119.570   1113.000   1162.376    -49.376    452.183   1162.453    452.183    452.183    452.183
119.670   1142.506   1073.257     69.249    452.629   1073.318    452.629    452.629    452.629
119.770    934.983    997.225    -62.242    453.082    997.271    453.082    453.082    453.082
119.870    944.000    932.590     11.410    453.545    932.625    453.545    453.545    453.545
119.970    857.957    877.788    -19.831    454.017    877.815    454.017    454.017    454.017
120.070    879.000    831.407     47.593    454.497    831.427    454.497    454.497    454.497
120.170    761.944    792.193    -30.249    454.987    792.209    454.987    454.987    454.987
120.270    716.432    759.051    -42.619    455.485    759.064    455.485    455.485    455.485
120.370    729.000    731.043     -2.043    455.993    731.053    455.993    455.993    455.993
120.470    689.470    707.371    -17.901    456.510    707.380    456.510    456.510    456.510
120.570    661.000    687.368    -26.368    457.036    687.377    457.036    457.036    457.036
120.670    673.000    670.481      2.519    457.572    670.489    457.572    457.572    457.572
120.770    617.000    656.251    -39.251    458.117    656.260    458.117    458.117    458.117
120.870    594.000    644.307    -50.307    458.672    644.316    458.672    458.672    458.672
120.970    679.703    634.341     45.362    459.236    634.351    459.236    459.236    459.236
121.070    576.000    626.105    -50.105    459.810    626.116    459.810    459.810    459.810
121.170    566.000    619.395    -53.395    460.393    619.407    460.393    460.393    460.393
121.270    567.907    614.044    -46.137    460.987    614.056    460.987    460.987    460.987
121.370    591.000    609.910    -18.910    461.590    609.923    461.590    461.590    461.590
121.470    651.001    606.878     44.124    462.204    606.892    462.204    462.204    462.204
121.570    604.000    604.844     -0.844    462.827    604.859    462.827    462.827    462.827
121.670    583.425    603.718    -20.293    463.461    603.735    463.461    463.461    463.461
121.770    559.000    603.420    -44.420    464.104    603.438    464.104    464.104    464.104
121.870    556.000    603.870    -47.870    464.758    603.890    464.758    464.758    464.758
121.970    581.000    604.994    -23.994    465.423    605.016    465.423    465.423    465.423
122.070    593.520    606.714    -13.194    466.098    606.739    466.098    466.098    466.098
122.170    584.000    608.954    -24.954    466.783    608.981    466.783    466.783    466.783
122.270    579.113    611.630    -32.517    467.479    611.660    467.479    467.479    467.479
122.370    577.000    614.658    -37.658    468.186    614.690    468.186    468.186    468.186
122.470    651.000    617.945     33.055    468.903    617.980    468.903    468.903    468.903
122.570    628.000    621.394      6.606    469.632    621.432    469.632    469.632    469.632
122.670    629.031    624.901      4.129    470.371    624.942    470.371    470.371    470.371
122.770    627.000    628.359     -1.359    471.121    628.403    471.121    471.121    471.121
122.870    651.817    631.655     20.162    471.882    631.702    471.882    471.882    471.882
122.970    625.897    634.675     -8.778    472.655    634.725    472.655    472.655    472.655
123.070    651.000    637.307     13.693    473.439    637.360    473.439    473.439    473.439
123.170    680.000    639.446     40.554    474.234    639.501    474.234    474.234    474.234
123.270    614.000    640.996    -26.996    475.040    641.054    475.040    475.040    475.040
123.370    686.184    641.881     44.302    475.858    641.941    475.858    475.858    475.858
123.470    685.513    642.047     43.465    476.688    642.109    476.688    476.688    476.688
123.570    661.000    641.466     19.534    477.529    641.528    477.529    477.529    477.529
123.670    656.000    640.137     15.863    478.383    640.199    478.383    478.383    478.383
123.770    605.508    638.084    -32.576    479.247    638.147    479.247    479.247    479.247
123.870    657.000    635.355     21.645    480.124    635.417    480.124    480.124    480.124
123.970    631.000    632.015     -1.015    481.013    632.076    481.013    481.013    481.013
124.070    680.217    628.140     52.077    481.914    628.199    481.914    481.914    481.914
124.170    642.000    623.813     18.187    482.827    623.871    482.827    482.827    482.827
124.270    604.000    619.123    -15.123    483.753    619.178    483.753    483.753    483.753
124.370    689.000    614.156     74.844    484.690    614.209    484.690    484.690    484.690
124.470    640.000    608.998     31.002    485.641    609.048    485.641    485.641    485.641
124.570    572.000    603.730    -31.730    486.603    603.777    486.603    486.603    486.603
124.670    571.809    598.431    -26.621    487.579    598.475    487.579    487.579    487.579
124.770    611.000    593.171     17.829    488.567    593.212    488.567    488.567    488.567
124.870    627.000    588.016     38.984    489.568    588.054    489.568    489.568    489.568
124.970    621.431    583.022     38.409    490.581    583.057    490.581    490.581    490.581
