neutron_powder_diffraction_0165
R_wp: 3.949
Temperature (K): 1074.000
Counts: 83636.00
Wavelength (Ã…): 2.52098
COMMENTS
Test file for demonstrating the .xyy file format in Reel1.0
END OF HEADER
   tth       Y_obs     Y_calc      Y_res    Background    Phase_1_Nuc    Phase_1_Mag    Phase_2_Nuc    Phase_2_Mag
  9.970    578.000    573.513      4.487    572.808    573.467    572.808    572.853    572.808
 10.070    623.000    573.640     49.360    572.878    573.594    572.878    572.924    572.878
 10.170    617.534    573.770     43.764    572.943    573.723    572.943    572.990    572.943
 10.270    611.000    573.906     37.094    573.002    573.857    573.002    573.051    573.002
 10.370    569.279    574.048     -4.769    573.056    573.997    573.056    573.106    573.056
 10.470    599.000    574.198     24.802    573.104    574.147    573.104    573.154    573.104
 10.570    604.696    574.360     30.336    573.146    574.309    573.146    573.197    573.146
 10.670    588.000    574.541     13.459    573.183    574.489    573.183    573.234    573.183
 10.770    572.000    574.746     -2.746    573.215    574.694    573.215    573.266    573.215
 10.870    613.163    574.984     38.179    573.241    574.931    573.241    573.293    573.241
 10.970    604.602    575.267     29.335    573.262    575.214    573.262    573.314    573.262
 11.070    615.000    575.614     39.386    573.278    575.560    573.278    573.330    573.278
 11.170    565.854    576.049    -10.194    573.288    575.995    573.288    573.341    573.288
 11.270    604.000    576.613     27.387    573.293    576.558    573.293    573.346    573.293
 11.370    623.000    577.372     45.628    573.294    577.317    573.294    573.347    573.294
 11.470    603.000    578.475     24.525    573.289    578.419    573.289    573.342    573.289
 11.570    580.000    580.336     -0.336    573.279    580.279    573.279    573.333    573.279
 11.670    644.000    584.139     59.861    573.265    584.080    573.265    573.318    573.265
 11.770    587.230    592.659     -5.429    573.245    592.594    573.245    573.299    573.245
 11.870    667.000    610.401     56.599    573.221    610.327    573.221    573.275    573.221
 11.970    615.000    640.899    -25.899    573.191    640.808    573.191    573.246    573.191
 12.070    650.900    680.248    -29.347    573.157    680.135    573.157    573.212    573.157
 12.170    732.000    711.230     20.770    573.119    711.099    573.119    573.174    573.119
 12.270    732.612    712.199     20.413    573.075    712.068    573.075    573.131    573.075
 12.370    676.297    682.243     -5.945    573.028    682.128    573.028    573.083    573.028
 12.470    678.628    642.627     36.001    572.975    642.533    572.975    573.031    572.975
 12.570    597.000    611.344    -14.344    572.918    611.268    572.918    572.974    572.918
 12.670    624.307    592.904     31.403    572.857    592.837    572.857    572.913    572.857
 12.770    526.000    583.954    -57.954    572.791    583.892    572.791    572.848    572.791
 12.870    554.000    579.921    -25.921    572.721    579.860    572.721    572.778    572.721
 12.970    524.000    577.922    -53.922    572.646    577.862    572.646    572.704    572.646
 13.070    560.000    576.716    -16.716    572.568    576.655    572.568    572.627    572.568
 13.170    535.863    575.865    -40.001    572.485    575.804    572.485    572.544    572.485
 13.270    584.441    575.214      9.227    572.398    575.153    572.398    572.457    572.398
 13.370    586.000    574.696     11.304    572.306    574.635    572.306    572.366    572.306
 13.470    530.644    574.269    -43.625    572.211    574.207    572.211    572.271    572.211
 13.570    541.709    573.907    -32.197    572.112    573.845    572.112    572.172    572.112
 13.670    591.473    573.592     17.881    572.009    573.531    572.009    572.069    572.009
 13.770    566.395    573.313     -6.917    571.901    573.251    571.901    571.962    571.901
 13.870    557.000    573.059    -16.059    571.790    572.997    571.790    571.851    571.790
 13.970    559.000    572.826    -13.826    571.675    572.764    571.675    571.737    571.675
 14.070    577.000    572.607      4.393    571.556    572.545    571.556    571.618    571.556
 14.170    620.000    572.403     47.597    571.434    572.340    571.434    571.496    571.434
 14.270    545.112    572.206    -27.093    571.308    572.143    571.308    571.370    571.308
 14.370    599.099    572.014     27.085    571.178    571.950    571.178    571.241    571.178
 14.470    538.000    571.826    -33.826    571.044    571.762    571.044    571.107    571.044
 14.570    587.120    571.642     15.479    570.907    571.578    570.907    570.970    570.907
 14.670    559.650    571.460    -11.809    570.766    571.396    570.766    570.830    570.766
 14.770    566.000    571.280     -5.280    570.622    571.216    570.622    570.686    570.622
 14.870    548.708    571.103    -22.394    570.474    571.038    570.474    570.539    570.474
 14.970    515.000    570.923    -55.923    570.323    570.858    570.323    570.388    570.323
 15.070    572.923    570.744      2.180    570.169    570.678    570.169    570.234    570.169
 15.170    571.694    570.564      1.130    570.011    570.498    570.011    570.077    570.011
 15.270    556.000    570.383    -14.383    569.850    570.316    569.850    569.916    569.850
 15.370    560.737    570.201     -9.463    569.686    570.134    569.686    569.752    569.686
 15.470    605.000    570.017     34.983    569.518    569.950    569.518    569.585    569.518
 15.570    601.000    569.832     31.168    569.348    569.765    569.348    569.415    569.348
 15.670    582.000    569.646     12.354    569.174    569.578    569.174    569.242    569.174
 15.770    605.000    569.458     35.542    568.997    569.389    568.997    569.065    568.997
 15.870    558.102    569.268    -11.165    568.817    569.199    568.817    568.886    568.817
 15.970    527.000    569.079    -42.079    568.634    569.006    568.634    568.707    568.634
 16.070    558.823    568.887    -10.064    568.449    568.812    568.449    568.523    568.449
 16.170    566.769    568.691     -1.922    568.260    568.615    568.260    568.335    568.260
 16.270    551.189    568.493    -17.304    568.068    568.417    568.068    568.144    568.068
 16.370    583.000    568.293     14.707    567.874    568.216    567.874    567.950    567.874
 16.470    552.000    568.091    -16.091    567.677    568.014    567.677    567.753    567.677
 16.570    562.000    567.886     -5.886    567.477    567.809    567.477    567.554    567.477
 16.670    566.000    567.680     -1.680    567.274    567.602    567.274    567.352    567.274
 16.770    556.287    567.471    -11.184    567.068    567.393    567.068    567.147    567.068
 16.870    529.187    567.263    -38.076    566.860    567.184    566.860    566.939    566.860
 16.970    590.120    567.050     23.069    566.650    566.971    566.650    566.729    566.650
 17.070    554.000    566.835    -12.835    566.437    566.756    566.437    566.516    566.437
 17.170    557.000    566.618     -9.618    566.221    566.538    566.221    566.301    566.221
 17.270    538.000    566.399    -28.399    566.003    566.318    566.003    566.083    566.003
 17.370    583.000    566.178     16.822    565.782    566.096    565.782    565.863    565.782
 17.470    576.000    565.954     10.046    565.559    565.872    565.559    565.641    565.559
 17.570    551.000    565.729    -14.729    565.334    565.646    565.334    565.416    565.334
 17.670    602.136    565.501     36.634    565.106    565.418    565.106    565.189    565.106
 17.770    551.000    565.272    -14.272    564.876    565.188    564.876    564.959    564.876
 17.870    521.285    565.041    -43.755    564.643    564.957    564.643    564.727    564.643
 17.970    569.000    564.807      4.193    564.409    564.723    564.409    564.494    564.409
 18.070    556.000    564.573     -8.573    564.172    564.488    564.172    564.257    564.172
 18.170    604.079    564.336     39.743    563.933    564.251    563.933    564.019    563.933
 18.270    548.152    564.098    -15.946    563.692    564.011    563.692    563.779    563.692
 18.370    529.202    563.857    -34.655    563.449    563.770    563.449    563.536    563.449
 18.470    514.000    563.615    -49.615    563.204    563.527    563.204    563.292    563.204
 18.570    520.314    563.371    -43.056    562.957    563.282    562.957    563.045    562.957
 18.670    586.000    563.125     22.875    562.708    563.036    562.708    562.797    562.708
 18.770    580.000    562.877     17.123    562.457    562.788    562.457    562.546    562.457
 18.870    562.000    562.628     -0.628    562.204    562.538    562.204    562.294    562.204
 18.970    607.233    562.379     44.855    561.949    562.288    561.949    562.040    561.949
 19.070    597.321    562.128     35.194    561.692    562.036    561.692    561.784    561.692
 19.170    524.000    561.874    -37.874    561.433    561.782    561.433    561.526    561.433
 19.270    532.560    561.619    -29.059    561.173    561.526    561.173    561.266    561.173
 19.370    556.000    561.364     -5.364    560.911    561.270    560.911    561.005    560.911
 19.470    533.000    561.120    -28.120    560.647    561.025    560.647    560.742    560.647
 19.570    573.000    560.871     12.129    560.382    560.776    560.382    560.478    560.382
 19.670    566.811    560.612      6.199    560.115    560.515    560.115    560.211    560.115
 19.770    596.795    560.350     36.445    559.846    560.253    559.846    559.943    559.846
 19.870    600.000    560.088     39.912    559.576    559.990    559.576    559.674    559.576
 19.970    547.000    559.824    -12.824    559.304    559.725    559.304    559.403    559.304
 20.070    566.000    559.559      6.441    559.031    559.459    559.031    559.131    559.031
 20.170    561.915    559.293      2.621    558.756    559.193    558.756    558.857    558.756
 20.270    515.000    559.027    -44.027    558.480    558.925    558.480    558.582    558.480
 20.370    556.000    558.759     -2.759    558.202    558.657    558.202    558.305    558.202
 20.470    574.134    558.491     15.644    557.923    558.387    557.923    558.027    557.923
 20.570    533.000    558.222    -25.222    557.643    558.117    557.643    557.748    557.643
 20.670    572.000    557.954     14.046    557.362    557.846    557.362    557.469    557.362
 20.770    523.246    557.684    -34.438    557.079    557.575    557.079    557.188    557.079
 20.870    565.000    557.422      7.578    556.794    557.312    556.794    556.905    556.794
 20.970    558.000    557.239      0.761    556.509    557.127    556.509    556.621    556.509
 21.070    517.000    556.990    -39.990    556.222    556.877    556.222    556.335    556.222
 21.170    587.000    556.720     30.280    555.935    556.606    555.935    556.048    555.935
 21.270    529.000    556.448    -27.448    555.646    556.333    555.646    555.761    555.646
 21.370    553.000    556.179     -3.179    555.356    556.062    555.356    555.472    555.356
 21.470    549.635    555.930     -6.294    555.064    555.812    555.064    555.182    555.064
 21.570    516.343    555.688    -39.345    554.772    555.569    554.772    554.891    554.772
 21.670    517.543    555.421    -37.877    554.479    555.300    554.479    554.599    554.479
 21.770    569.000    555.151     13.849    554.185    555.030    554.185    554.307    554.185
 21.870    594.402    554.889     39.513    553.890    554.766    553.890    554.013    553.890
 21.970    516.038    554.673    -38.635    553.594    554.548    553.594    553.718    553.594
 22.070    559.974    554.427      5.547    553.297    554.301    553.297    553.423    553.297
 22.170    570.404    554.165     16.239    552.999    554.037    552.999    553.127    552.999
 22.270    568.000    553.904     14.096    552.700    553.774    552.700    552.830    552.700
 22.370    526.841    553.645    -26.804    552.401    553.515    552.401    552.532    552.401
 22.470    562.000    553.391      8.609    552.100    553.259    552.100    552.233    552.100
 22.570    530.647    553.144    -22.496    551.799    553.009    551.799    551.934    551.799
 22.670    570.000    552.898     17.102    551.497    552.762    551.497    551.634    551.497
 22.770    534.000    552.659    -18.659    551.195    552.521    551.195    551.333    551.195
 22.870    559.000    552.426      6.574    550.892    552.286    550.892    551.032    550.892
 22.970    523.591    552.203    -28.612    550.588    552.061    550.588    550.730    550.588
 23.070    576.000    551.991     24.009    550.283    551.847    550.283    550.428    550.283
 23.170    512.000    551.793    -39.793    549.978    551.646    549.978    550.125    549.978
 23.270    517.000    551.612    -34.612    549.673    551.464    549.673    549.822    549.673
 23.370    587.441    551.454     35.987    549.366    551.303    549.366    549.518    549.366
 23.470    582.797    551.325     31.471    549.060    551.172    549.060    549.214    549.060
 23.570    541.467    551.235     -9.768    548.752    551.079    548.752    548.909    548.752
 23.670    543.000    551.196     -8.196    548.445    551.038    548.445    548.604    548.445
 23.770    535.790    551.229    -15.439    548.136    551.068    548.136    548.299    548.136
 23.870    554.000    551.364      2.636    547.828    551.200    547.828    547.993    547.828
 23.970    557.295    551.656      5.639    547.519    551.490    547.519    547.687    547.519
 24.070    545.000    552.241     -7.241    547.209    552.072    547.209    547.381    547.209
 24.170    564.037    553.495     10.542    546.900    553.324    546.900    547.075    546.900
 24.270    571.000    556.426     14.574    546.590    556.253    546.590    546.769    546.590
 24.370    603.000    563.131     39.869    546.279    562.959    546.279    546.462    546.279
 24.470    572.000    576.485     -4.485    545.969    576.319    545.969    546.156    545.969
 24.570    628.616    597.851     30.765    545.658    597.696    545.658    545.849    545.658
 24.670    601.670    623.055    -21.385    545.347    622.916    545.347    545.542    545.347
 24.770    669.185    639.720     29.465    545.035    639.588    545.035    545.236    545.035
 24.870    673.049    635.642     37.407    544.724    635.503    544.724    544.929    544.724
 24.970    627.000    614.146     12.854    544.412    613.986    544.412    544.623    544.412
 25.070    623.000    588.932     34.068    544.100    588.748    544.100    544.317    544.100
 25.170    614.070    569.639     44.431    543.788    569.434    543.788    544.011    543.788
 25.270    540.338    558.212    -17.874    543.476    557.993    543.476    543.705    543.476
 25.370    591.091    552.465     38.626    543.164    552.235    543.164    543.400    543.164
 25.470    526.659    549.697    -23.038    542.852    549.457    542.852    543.095    542.852
 25.570    565.000    548.209     16.791    542.540    547.961    542.540    542.790    542.540
 25.670    558.000    547.246     10.754    542.228    546.989    542.228    542.486    542.228
 25.770    588.000    546.534     41.466    541.916    546.268    541.916    542.183    541.916
 25.870    576.000    545.996     30.004    541.604    545.720    541.604    541.881    541.604
 25.970    555.000    545.559      9.441    541.292    545.272    541.292    541.579    541.292
 26.070    531.000    545.179    -14.179    540.980    544.881    540.980    541.278    540.980
 26.170    563.000    544.872     18.128    540.668    544.562    540.668    540.978    540.668
 26.270    512.796    544.634    -31.838    540.356    544.311    540.356    540.679    540.356
 26.370    545.146    544.430      0.716    540.044    544.093    540.044    540.382    540.044
 26.470    564.296    544.277     20.019    539.733    543.925    539.733    540.086    539.733
 26.570    577.676    544.181     33.494    539.422    543.812    539.422    539.792    539.422
 26.670    601.000    544.158     56.842    539.111    543.770    539.111    539.499    539.111
 26.770    581.000    544.219     36.781    538.800    543.810    538.800    539.209    538.800
 26.870    540.000    544.342     -4.342    538.489    543.911    538.489    538.921    538.489
 26.970    586.000    544.568     41.432    538.179    544.112    538.179    538.635    538.179
 27.070    507.941    544.928    -36.987    537.869    544.444    537.869    538.353    537.869
 27.170    574.536    545.462     29.074    537.560    544.947    537.560    538.074    537.560
 27.270    593.000    546.233     46.767    537.250    545.683    537.250    537.799    537.250
 27.370    620.000    547.338     72.662    536.941    546.748    536.941    537.529    536.941
 27.470    538.000    548.951    -10.951    536.633    548.317    536.633    537.265    536.633
 27.570    516.534    551.537    -35.003    536.324    550.852    536.324    537.007    536.324
 27.670    601.000    556.624     44.376    536.016    555.880    536.016    536.756    536.016
 27.770    582.465    569.051     13.415    535.709    568.236    535.709    536.515    535.709
 27.870    598.000    600.137     -2.137    535.402    599.235    535.402    536.285    535.402
 27.970    629.992    666.201    -36.209    535.095    665.190    535.095    536.068    535.095
 28.070    800.602    773.066     27.536    534.789    771.919    534.789    535.868    534.789
 28.170    937.246    890.708     46.538    534.484    889.410    534.484    535.689    534.484
 28.270    956.278    948.742      7.536    534.179    947.295    534.179    535.535    534.179
 28.370    859.776    900.665    -40.889    533.874    899.066    533.874    535.416    533.874
 28.470    772.000    796.477    -24.477    533.570    794.681    533.570    535.341    533.570
 28.570    723.713    715.263      8.450    533.267    713.188    533.267    535.330    533.267
 28.670    705.000    698.074      6.926    532.964    695.611    532.964    535.413    532.964
 28.770    765.000    740.963     24.037    532.662    737.966    532.662    535.642    532.662
 28.870    828.000    806.181     21.819    532.360    802.427    532.360    536.103    532.360
 28.970    783.000    836.781    -53.781    532.059    831.920    532.059    536.924    532.059
 29.070    721.000    798.775    -77.775    531.759    792.273    531.759    538.275    531.759
 29.170    759.000    721.317     37.683    531.459    712.450    531.459    540.340    531.459
 29.270    650.000    649.512      0.488    531.160    637.418    531.160    543.262    531.160
 29.370    605.000    603.991      1.009    530.862    587.830    530.862    547.027    530.862
 29.470    555.055    582.795    -27.739    530.564    562.107    530.564    551.253    530.564
 29.570    541.697    575.186    -33.489    530.267    550.547    530.267    554.906    530.267
 29.670    553.210    571.721    -18.511    529.971    545.280    529.971    556.411    529.971
 29.770    605.399    567.573     37.826    529.676    542.429    529.676    554.818    529.676
 29.870    534.324    562.048    -27.724    529.381    540.581    529.381    550.847    529.381
 29.970    580.851    556.254     24.596    529.087    539.286    529.087    546.054    529.087
 30.070    507.304    551.187    -43.883    528.794    538.395    528.794    541.584    528.794
 30.170    557.000    547.298      9.702    528.502    537.882    528.502    537.915    528.502
 30.270    561.000    544.771     16.229    528.211    537.865    528.211    535.114    528.211
 30.370    548.828    543.940      4.888    527.920    538.799    527.920    533.057    527.920
 30.470    587.000    545.785     41.215    527.630    541.845    527.630    531.563    527.630
 30.570    630.000    552.205     77.795    527.342    549.077    527.342    530.457    527.342
 30.670    568.000    565.233      2.767    527.054    562.661    527.054    529.603    527.054
 30.770    617.000    584.569     32.431    526.767    582.390    526.767    528.909    526.767
 30.870    654.000    604.492     49.508    526.481    602.605    526.481    528.317    526.481
 30.970    598.000    613.543    -15.543    526.195    611.890    526.195    527.794    526.195
 31.070    602.151    604.133     -1.982    525.911    602.681    525.911    527.319    525.911
 31.170    608.261    583.299     24.962    525.628    582.018    525.628    526.880    525.628
 31.270    540.000    562.495    -22.495    525.346    561.355    525.346    526.469    525.346
 31.370    587.000    547.675     39.325    525.064    546.651    525.064    526.080    525.064
 31.470    542.000    539.248      2.752    524.784    538.320    524.784    525.708    524.784
 31.570    563.000    535.092     27.908    524.505    534.242    524.505    525.352    524.505
 31.670    488.363    533.083    -44.720    524.226    532.300    524.226    525.007    524.226
 31.770    575.058    531.991     43.068    523.949    531.266    523.949    524.672    523.949
 31.870    506.000    531.295    -25.295    523.673    530.620    523.673    524.346    523.673
 31.970    562.000    530.810     31.190    523.398    530.180    523.398    524.027    523.398
 32.070    542.000    530.474     11.526    523.124    529.882    523.124    523.714    523.124
 32.170    561.000    530.262     30.738    522.851    529.704    522.851    523.408    522.851
 32.270    547.000    530.164     16.836    522.579    529.637    522.579    523.106    522.579
 32.370    547.000    530.183     16.817    522.308    529.682    522.308    522.808    522.308
 32.470    517.403    530.326    -12.923    522.038    529.849    522.038    522.515    522.038
 32.570    553.000    530.611     22.389    521.770    530.155    521.770    522.225    521.770
 32.670    531.000    531.064     -0.064    521.502    530.627    521.502    521.938    521.502
 32.770    488.034    531.727    -43.693    521.236    531.308    521.236    521.655    521.236
 32.870    566.000    532.659     33.341    520.971    532.255    520.971    521.374    520.971
 32.970    513.000    533.946    -20.946    520.707    533.555    520.707    521.096    520.707
 33.070    518.001    535.724    -17.723    520.444    535.346    520.444    520.820    520.444
 33.170    544.000    538.244      5.756    520.183    537.877    520.183    520.547    520.183
 33.270    537.031    542.080     -5.049    519.922    541.724    519.922    520.276    519.922
 33.370    569.000    548.772     20.228    519.663    548.424    519.663    520.008    519.663
 33.470    549.000    562.241    -13.241    519.405    561.900    519.405    519.741    519.405
 33.570    596.850    590.718      6.132    519.149    590.380    519.149    519.476    519.149
 33.670    630.000    646.807    -16.807    518.893    646.467    518.893    519.213    518.893
 33.770    773.540    741.461     32.079    518.639    741.114    518.639    518.952    518.639
 33.870    922.876    870.400     52.476    518.386    870.044    518.386    518.693    518.386
 33.970   1010.000    998.901     11.099    518.134    998.542    518.134    518.436    518.134
 34.070   1101.723   1061.695     40.028    517.884   1061.351    517.884    518.180    517.884
 34.170   1041.000   1014.512     26.488    517.635   1014.199    517.635    517.927    517.635
 34.270    919.000    892.039     26.961    517.387    891.752    517.387    517.674    517.387
 34.370    776.000    759.938     16.062    517.140    759.665    517.140    517.424    517.140
 34.470    650.000    658.355     -8.355    516.895    658.085    516.895    517.175    516.895
 34.570    621.000    595.774     25.226    516.651    595.504    516.651    516.928    516.651
 34.670    582.868    562.873     19.994    516.409    562.602    516.409    516.683    516.409
 34.770    534.000    546.861    -12.861    516.168    546.591    516.168    516.439    516.168
 34.870    575.000    538.735     36.265    515.928    538.467    515.928    516.196    515.928
 34.970    552.000    533.964     18.036    515.689    533.697    515.689    515.956    515.689
 35.070    550.368    530.699     19.670    515.452    530.434    515.452    515.716    515.452
 35.170    492.214    528.244    -36.030    515.217    527.981    515.217    515.479    515.217
 35.270    541.696    526.308     15.388    514.982    526.047    514.982    515.243    514.982
 35.370    514.832    524.739     -9.907    514.749    524.480    514.749    515.008    514.749
 35.470    518.000    523.440     -5.440    514.518    523.182    514.518    514.776    514.518
 35.570    459.000    522.346    -63.346    514.287    522.089    514.287    514.544    514.287
 35.670    516.000    521.409     -5.409    514.059    521.153    514.059    514.315    514.059
 35.770    548.167    520.597     27.570    513.831    520.342    513.831    514.086    513.831
 35.870    511.796    519.884     -8.088    513.605    519.630    513.605    513.860    513.605
 35.970    502.000    519.252    -17.252    513.381    518.998    513.381    513.635    513.381
 36.070    472.000    518.687    -46.687    513.158    518.434    513.158    513.411    513.158
 36.170    517.000    518.179     -1.179    512.936    517.926    512.936    513.189    512.936
 36.270    518.000    517.719      0.281    512.716    517.466    512.716    512.969    512.716
 36.370    508.000    517.303     -9.303    512.497    517.050    512.497    512.750    512.497
 36.470    528.000    516.927     11.073    512.280    516.674    512.280    512.533    512.280
 36.570    535.863    516.589     19.274    512.064    516.336    512.064    512.318    512.064
 36.670    500.296    516.291    -15.995    511.850    516.037    511.850    512.104    511.850
 36.770    524.104    516.038      8.066    511.637    515.784    511.637    511.891    511.637
 36.870    523.000    515.850      7.150    511.426    515.596    511.426    511.680    511.426
 36.970    501.000    515.779    -14.779    511.216    515.525    511.216    511.471    511.216
 37.070    554.996    515.953     39.042    511.008    515.698    511.008    511.263    511.008
 37.170    539.000    516.613     22.387    510.801    516.357    510.801    511.057    510.801
 37.270    516.000    518.101     -2.101    510.596    517.845    510.596    510.853    510.596
 37.370    463.000    520.701    -57.701    510.392    520.445    510.392    510.650    510.392
 37.470    527.000    524.313      2.687    510.189    524.056    510.189    510.448    510.189
 37.570    495.923    528.102    -32.179    509.989    527.846    509.989    510.249    509.989
 37.670    534.000    530.472      3.528    509.789    530.216    509.789    510.050    509.789
 37.770    531.000    530.089      0.911    509.592    529.834    509.592    509.854    509.592
 37.870    569.702    527.294     42.408    509.396    527.039    509.396    509.659    509.396
 37.970    561.000    523.549     37.451    509.201    523.294    509.201    509.466    509.201
 38.070    511.000    520.003     -9.003    509.008    519.748    509.008    509.274    509.008
 38.170    525.555    517.124      8.431    508.816    516.866    508.816    509.084    508.816
 38.270    478.786    515.006    -36.220    508.626    514.743    508.626    508.896    508.626
 38.370    497.000    513.554    -16.554    508.438    513.288    508.438    508.709    508.438
 38.470    528.000    512.592     15.408    508.251    512.322    508.251    508.524    508.251
 38.570    453.000    511.951    -58.951    508.066    511.678    508.066    508.340    508.066
 38.670    495.000    511.506    -16.506    507.882    511.230    507.882    508.159    507.882
 38.770    522.000    511.171     10.829    507.700    510.893    507.700    507.978    507.700
 38.870    474.000    510.896    -36.896    507.519    510.616    507.519    507.800    507.519
 38.970    476.000    510.655    -34.655    507.340    510.373    507.340    507.623    507.340
 39.070    520.000    510.436      9.564    507.163    510.151    507.163    507.448    507.163
 39.170    491.000    510.233    -19.233    506.987    509.945    506.987    507.274    506.987
 39.270    525.000    510.042     14.958    506.813    509.752    506.813    507.102    506.813
 39.370    563.000    509.862     53.138    506.640    509.570    506.640    506.932    506.640
 39.470    537.000    509.692     27.308    506.469    509.398    506.469    506.764    506.469
 39.570    478.000    509.531    -31.531    506.299    509.234    506.299    506.597    506.299
 39.670    504.000    509.379     -5.379    506.132    509.079    506.132    506.432    506.132
 39.770    483.000    509.235    -26.235    505.965    508.932    505.965    506.269    505.965
 39.870    496.000    509.098    -13.098    505.801    508.793    505.801    506.107    505.801
 39.970    517.638    508.971      8.668    505.638    508.662    505.638    505.947    505.638
 40.070    506.805    508.851     -2.047    505.476    508.539    505.476    505.789    505.476
 40.170    480.000    508.741    -28.741    505.316    508.426    505.316    505.632    505.316
 40.270    522.000    508.640     13.360    505.158    508.321    505.158    505.477    505.158
 40.370    513.746    508.550      5.196    505.001    508.228    505.001    505.324    505.001
 40.470    486.000    508.471    -22.471    504.846    508.145    504.846    505.172    504.846
 40.570    484.503    508.405    -23.902    504.693    508.075    504.693    505.023    504.693
 40.670    510.933    508.353      2.579    504.541    508.020    504.541    504.875    504.541
 40.770    519.000    508.319     10.681    504.391    507.982    504.391    504.729    504.391
 40.870    500.382    508.304     -7.922    504.242    507.963    504.242    504.584    504.242
 40.970    494.000    508.312    -14.312    504.096    507.967    504.096    504.441    504.096
 41.070    491.000    508.349    -17.349    503.950    508.000    503.950    504.301    503.950
 41.170    484.000    508.421    -24.421    503.807    508.067    503.807    504.161    503.807
 41.270    526.000    508.536     17.464    503.665    508.177    503.665    504.024    503.665
 41.370    506.371    508.705     -2.334    503.524    508.342    503.524    503.888    503.524
 41.470    540.263    508.947     31.316    503.385    508.579    503.385    503.754    503.385
 41.570    514.030    509.286      4.744    503.248    508.913    503.248    503.622    503.248
 41.670    524.000    509.771     14.229    503.113    509.393    503.113    503.492    503.113
 41.770    510.737    510.508      0.229    502.979    510.126    502.979    503.364    502.979
 41.870    528.000    511.752     16.248    502.846    511.364    502.846    503.237    502.846
 41.970    487.000    514.073    -27.073    502.716    513.680    502.716    503.112    502.716
 42.070    505.000    518.583    -13.583    502.587    518.187    502.587    502.989    502.587
 42.170    520.417    527.017     -6.600    502.459    526.618    502.459    502.868    502.459
 42.270    516.735    541.307    -24.571    502.333    540.908    502.333    502.749    502.333
 42.370    551.000    562.395    -11.395    502.209    562.000    502.209    502.632    502.209
 42.470    534.000    588.494    -54.494    502.087    588.106    502.087    502.516    502.087
 42.570    582.000    613.572    -31.572    501.966    613.191    501.966    502.402    501.966
 42.670    568.000    627.880    -59.880    501.847    627.502    501.847    502.291    501.847
 42.770    632.180    623.992      8.188    501.729    623.608    501.729    502.181    501.729
 42.870    604.000    604.167     -0.167    501.613    603.766    501.613    502.073    501.613
 42.970    566.000    577.676    -11.676    501.499    577.253    501.499    501.967    501.499
 43.070    514.253    553.013    -38.760    501.386    552.567    501.386    501.863    501.386
 43.170    548.389    534.432     13.956    501.275    533.965    501.275    501.761    501.275
 43.270    539.000    522.461     16.539    501.165    521.977    501.165    501.661    501.165
 43.370    521.367    515.611      5.756    501.057    515.112    501.057    501.563    501.057
 43.470    530.087    511.949     18.137    500.951    511.438    500.951    501.467    500.951
 43.570    519.000    509.983      9.017    500.846    509.459    500.846    501.373    500.846
 43.670    475.000    508.832    -33.832    500.743    508.297    500.743    501.281    500.743
 43.770    486.000    508.072    -22.072    500.642    507.524    500.642    501.191    500.642
 43.870    466.385    507.517    -41.132    500.542    506.956    500.542    501.104    500.542
 43.970    493.000    507.088    -14.088    500.444    506.515    500.444    501.018    500.444
 44.070    504.000    506.748     -2.748    500.347    506.161    500.347    500.935    500.347
 44.170    488.015    506.476    -18.461    500.252    505.874    500.252    500.854    500.252
 44.270    470.935    506.256    -35.321    500.158    505.640    500.158    500.776    500.158
 44.370    531.000    506.079     24.921    500.067    505.447    500.067    500.699    500.067
 44.470    533.000    505.938     27.062    499.976    505.290    499.976    500.626    499.976
 44.570    523.000    505.827     17.173    499.888    505.161    499.888    500.554    499.888
 44.670    491.000    505.742    -14.742    499.801    505.058    499.801    500.485    499.801
 44.770    552.000    505.681     46.319    499.715    504.977    499.715    500.419    499.715
 44.870    520.000    505.640     14.360    499.632    504.916    499.632    500.356    499.632
 44.970    553.000    505.619     47.381    499.549    504.874    499.549    500.295    499.549
 45.070    504.000    505.617     -1.617    499.469    504.849    499.469    500.237    499.469
 45.170    489.000    505.633    -16.633    499.390    504.841    499.390    500.182    499.390
 45.270    502.552    505.666     -3.115    499.312    504.848    499.312    500.130    499.312
 45.370    526.000    505.718     20.282    499.236    504.872    499.236    500.081    499.236
 45.470    465.000    505.787    -40.787    499.162    504.913    499.162    500.036    499.162
 45.570    551.000    505.876     45.124    499.089    504.971    499.089    499.994    499.089
 45.670    498.000    505.985     -7.985    499.018    505.046    499.018    499.956    499.018
 45.770    547.538    506.115     41.423    498.948    505.141    498.948    499.922    498.948
 45.870    507.000    506.269      0.731    498.880    505.256    498.880    499.893    498.880
 45.970    520.000    506.449     13.551    498.814    505.395    498.814    499.867    498.814
 46.070    477.099    506.657    -29.558    498.749    505.558    498.749    499.847    498.749
 46.170    494.657    506.898    -12.241    498.685    505.751    498.685    499.831    498.685
 46.270    481.119    507.176    -26.057    498.623    505.977    498.623    499.821    498.623
 46.370    468.433    507.498    -39.065    498.563    506.243    498.563    499.817    498.563
 46.470    468.637    507.871    -39.234    498.504    506.554    498.504    499.820    498.504
 46.570    514.342    508.307      6.036    498.447    506.923    498.447    499.830    498.447
 46.670    480.000    508.822    -28.822    498.391    507.364    498.391    499.848    498.391
 46.770    468.862    509.445    -40.583    498.337    507.905    498.337    499.875    498.337
 46.870    479.000    510.235    -31.235    498.284    508.606    498.284    499.912    498.284
 46.970    543.431    511.322     32.109    498.233    509.594    498.233    499.959    498.233
 47.070    528.000    512.983     15.017    498.183    511.143    498.183    500.020    498.183
 47.170    530.970    515.739     15.231    498.135    513.775    498.135    500.094    498.135
 47.270    497.000    520.418    -23.418    498.089    518.313    498.089    500.185    498.089
 47.370    522.000    528.037     -6.037    498.044    525.771    498.044    500.295    498.044
 47.470    537.000    539.390     -2.390    498.000    536.940    498.000    500.427    498.000
 47.570    628.000    554.346     73.654    497.958    551.686    497.958    500.585    497.958
 47.670    609.000    571.107     37.893    497.917    568.207    497.917    500.774    497.917
 47.770    587.000    585.784      1.216    497.878    582.610    497.878    500.999    497.878
 47.870    601.000    593.200      7.800    497.840    589.715    497.840    501.269    497.840
 47.970    595.000    590.296      4.704    497.804    586.455    497.804    501.594    497.804
 48.070    539.000    579.161    -40.161    497.769    574.901    497.769    501.989    497.769
 48.170    525.517    564.852    -39.335    497.736    560.082    497.736    502.476    497.736
 48.270    597.351    551.752     45.599    497.704    546.344    497.704    503.092    497.704
 48.370    547.433    542.255      5.178    497.674    536.021    497.674    503.896    497.674
 48.470    553.000    536.990     16.010    497.645    529.644    497.645    504.982    497.645
 48.570    575.456    535.531     39.925    497.618    526.638    497.618    506.505    497.618
 48.670    542.000    537.195      4.805    497.592    526.092    497.592    508.690    497.592
 48.770    506.494    541.487    -34.993    497.567    527.205    497.567    511.846    497.567
 48.870    515.626    548.311    -32.685    497.544    529.510    497.544    516.342    497.544
 48.970    582.000    557.907     24.093    497.522    532.873    497.522    522.553    497.522
 49.070    560.000    570.734    -10.734    497.502    537.482    497.502    530.749    497.502
 49.170    613.000    587.496     25.504    497.483    544.036    497.483    540.939    497.483
 49.270    613.000    609.582      3.418    497.465    554.394    497.465    552.647    497.465
 49.370    637.000    640.302     -3.302    497.449    573.110    497.449    564.629    497.449
 49.470    721.000    687.288     33.712    497.434    610.045    497.434    574.655    497.434
 49.570    776.000    765.746     10.254    497.421    683.202    497.421    579.923    497.421
 49.670    860.327    900.049    -39.722    497.409    818.805    497.409    578.580    497.409
 49.770   1108.000   1117.816     -9.816    497.398   1043.951    497.398    571.152    497.398
 49.870   1419.000   1432.209    -13.209    497.389   1369.374    497.389    560.075    497.389
 49.970   1888.000   1818.057     69.943    497.381   1767.262    497.381    548.016    497.381
 50.070   2248.091   2196.498     51.593    497.375   2156.941    497.375    536.807    497.375
 50.170   2523.000   2446.447     76.553    497.370   2416.420    497.370    527.363    497.370
 50.270   2491.000   2462.224     28.776    497.366   2439.727    497.366    519.946    497.366
 50.370   2138.000   2233.362    -95.362    497.363   2216.467    497.363    514.429    497.363
 50.470   1820.000   1855.228    -35.228    497.362   1842.303    497.362    510.487    497.362
 50.570   1388.000   1453.684    -65.684    497.362   1443.490    497.362    507.737    497.362
 50.670   1091.708   1118.536    -26.828    497.364   1110.208    497.364    505.832    497.364
 50.770    810.000    885.552    -75.552    497.367    878.524    497.367    504.493    497.367
 50.870    761.076    747.636     13.440    497.371    741.550    497.371    503.524    497.371
 50.970    715.568    676.507     39.061    497.376    671.136    497.376    502.798    497.376
 51.070    645.000    641.756      3.244    497.383    636.948    497.383    502.234    497.383
 51.170    622.000    621.274      0.726    497.391    616.920    497.391    501.783    497.391
 51.270    562.333    603.972    -41.639    497.400    599.989    497.400    501.415    497.400
 51.370    601.000    587.118     13.882    497.410    583.442    497.410    501.111    497.410
 51.470    587.000    571.632     15.368    497.422    568.214    497.422    500.859    497.422
 51.570    575.000    558.846     16.154    497.435    555.647    497.435    500.648    497.435
 51.670    559.000    549.375      9.625    497.449    546.362    497.449    500.472    497.449
 51.770    519.000    543.053    -24.053    497.465    540.200    497.465    500.325    497.465
 51.870    566.000    539.262     26.738    497.482    536.546    497.482    500.203    497.482
 51.970    517.233    537.299    -20.066    497.500    534.701    497.500    500.102    497.500
 52.070    511.080    536.624    -25.544    497.519    534.126    497.519    500.019    497.519
 52.170    535.000    536.940     -1.940    497.539    534.529    497.539    499.953    497.539
 52.270    570.647    538.203     32.443    497.561    535.865    497.561    499.901    497.561
 52.370    565.000    540.651     24.349    497.583    538.374    497.583    499.862    497.583
 52.470    549.000    544.965      4.035    497.607    542.740    497.607    499.834    497.607
 52.570    554.000    552.629      1.371    497.633    550.446    497.633    499.817    497.633
 52.670    618.000    566.450     51.550    497.659    564.301    497.659    499.809    497.659
 52.770    638.000    591.024     46.976    497.686    588.900    497.686    499.810    497.686
 52.870    651.000    632.622     18.378    497.715    630.517    497.715    499.819    497.715
 52.970    744.344    697.826     46.518    497.745    695.734    497.745    499.836    497.745
 53.070    797.000    790.551      6.449    497.776    788.466    497.776    499.859    497.776
 53.170    922.000    907.965     14.035    497.808    905.884    497.808    499.890    497.808
 53.270   1031.000   1036.638     -5.638    497.841   1034.560    497.841    499.927    497.841
 53.370   1087.550   1150.744    -63.194    497.875   1148.668    497.875    499.971    497.875
 53.470   1213.723   1216.647     -2.924    497.911   1214.569    497.911    500.021    497.911
 53.570   1159.000   1209.707    -50.707    497.947   1207.621    497.947    500.077    497.947
 53.670   1148.923   1133.025     15.898    497.985   1130.921    497.985    500.139    497.985
 53.770    991.000   1014.562    -23.562    498.023   1012.427    498.023    500.207    498.023
 53.870    854.311    887.150    -32.839    498.063    884.972    498.063    500.281    498.063
 53.970    713.000    774.328    -61.328    498.104    772.101    498.104    500.362    498.104
 54.070    685.000    687.350     -2.350    498.146    685.069    498.146    500.449    498.146
 54.170    670.935    627.506     43.429    498.189    625.166    498.189    500.542    498.189
 54.270    602.000    590.125     11.875    498.233    587.724    498.233    500.643    498.233
 54.370    537.946    568.541    -30.595    498.278    566.075    498.278    500.750    498.278
 54.470    532.243    556.747    -24.505    498.324    554.211    498.324    500.865    498.324
 54.570    626.000    550.498     75.502    498.371    547.885    498.371    500.987    498.371
 54.670    567.000    547.266     19.734    498.419    544.569    498.419    501.117    498.419
 54.770    515.608    545.733    -30.125    498.468    542.946    498.468    501.257    498.468
 54.870    567.000    545.284     21.716    498.518    542.398    498.518    501.405    498.518
 54.970    595.000    545.655     49.345    498.569    542.662    498.569    501.563    498.569
 55.070    604.000    546.751     57.249    498.621    543.640    498.621    501.733    498.621
 55.170    521.663    548.557    -26.894    498.674    545.319    498.674    501.913    498.674
 55.270    574.000    551.118     22.882    498.727    547.740    498.727    502.106    498.727
 55.370    557.000    554.528      2.472    498.782    550.999    498.782    502.313    498.782
 55.470    593.149    558.969     34.179    498.838    555.273    498.838    502.535    498.838
 55.570    577.000    564.782     12.218    498.895    560.905    498.895    502.774    498.895
 55.670    582.000    572.674      9.326    498.952    568.596    498.952    503.031    498.952
 55.770    614.103    584.152     29.951    499.011    579.855    499.011    503.308    499.011
 55.870    596.000    602.359     -6.359    499.070    597.820    499.070    503.608    499.070
 55.970    605.000    633.347    -28.347    499.131    628.540    499.131    503.934    499.131
 56.070    676.000    687.520    -11.520    499.192    682.415    499.192    504.288    499.192
 56.170    749.000    780.274    -31.274    499.254    774.836    499.254    504.674    499.254
 56.270    870.000    930.269    -60.269    499.317    924.458    499.317    505.098    499.317
 56.370   1211.878   1153.837     58.041    499.381   1147.612    499.381    505.563    499.381
 56.470   1370.000   1455.596    -85.596    499.445   1448.917    499.445    506.077    499.445
 56.570   1731.000   1817.824    -86.824    499.511   1810.649    499.511    506.646    499.511
 56.670   2070.000   2192.618   -122.618    499.577   2184.907    499.577    507.280    499.577
 56.770   2514.000   2501.800     12.200    499.644   2493.506    499.644    507.990    499.644
 56.870   2620.000   2655.586    -35.586    499.712   2646.644    499.712    508.789    499.712
 56.970   2608.000   2599.932      8.068    499.781   2590.237    499.781    509.693    499.781
 57.070   2406.000   2356.926     49.074    499.850   2346.318    499.850    510.725    499.850
 57.170   2037.000   2006.123     30.877    499.921   1994.402    499.921    511.914    499.921
 57.270   1625.000   1634.339     -9.339    499.992   1621.270    499.992    513.302    499.992
 57.370   1314.067   1304.366      9.701    500.063   1289.670    500.063    514.951    500.063
 57.470   1040.000   1047.718     -7.718    500.136   1031.033    500.136    516.958    500.136
 57.570    874.000    869.455      4.545    500.209    850.274    500.209    519.481    500.209
 57.670    803.000    758.129     44.871    500.283    735.703    500.283    522.765    500.283
 57.770    662.325    696.350    -34.025    500.358    669.550    500.358    527.190    500.358
 57.870    662.329    668.506     -6.177    500.434    635.651    500.434    533.304    500.434
 57.970    732.000    664.416     67.584    500.510    623.082    500.510    541.848    500.510
 58.070    665.000    679.679    -14.679    500.587    626.527    500.587    553.734    500.587
 58.170    672.000    714.179    -42.179    500.664    644.872    500.664    569.956    500.664
 58.270    833.000    769.834     63.166    500.742    679.133    500.742    591.419    500.742
 58.370    801.000    848.240    -47.240    500.821    730.345    500.821    618.682    500.821
 58.470    910.000    948.496    -38.496    500.901    797.716    500.901    651.639    500.901
 58.570   1045.261   1065.460    -20.199    500.981    877.270    500.981    689.128    500.981
 58.670   1143.000   1188.932    -45.932    501.062    961.516    501.062    728.440    501.062
 58.770   1313.000   1304.900      8.100    501.143   1041.207    501.143    764.811    501.143
 58.870   1422.000   1398.702     23.298    501.225   1108.402    501.225    791.517    501.225
 58.970   1500.000   1457.526     42.474    501.308   1157.041    501.308    801.804    501.308
 59.070   1473.000   1472.129      0.871    501.391   1180.939    501.391    792.612    501.391
 59.170   1493.000   1441.060     51.940    501.475   1175.826    501.475    766.753    501.475
 59.270   1442.000   1374.348     67.652    501.559   1145.066    501.559    730.887    501.559
 59.370   1305.421   1290.540     14.882    501.644   1100.430    501.644    691.786    501.644
 59.470   1337.000   1209.156    127.844    501.730   1056.576    501.730    654.316    501.730
 59.570   1208.000   1146.709     61.291    501.816   1027.215    501.816    621.279    501.816
 59.670   1136.000   1117.316     18.684    501.902   1025.239    501.902    593.904    501.902
 59.770   1122.000   1131.935     -9.935    501.989   1061.457    501.989    572.340    501.989
 59.870   1139.447   1193.731    -54.284    502.077   1139.570    502.077    556.056    502.077
 59.970   1294.476   1293.440      1.036    502.165   1251.214    502.165    544.157    502.165
 60.070   1409.907   1407.887      2.021    502.254   1374.217    502.254    535.652    502.254
 60.170   1477.000   1502.394    -25.394    502.343   1474.831    502.343    529.622    502.343
 60.270   1536.318   1539.897     -3.578    502.432   1516.750    502.432    525.318    502.432
 60.370   1497.000   1498.724     -1.724    502.522   1478.852    502.522    522.185    502.522
 60.470   1360.714   1386.048    -25.334    502.613   1368.675    502.613    519.839    502.613
 60.570   1254.116   1230.825     23.292    502.704   1215.407    502.704    518.032    502.704
 60.670   1078.000   1066.151     11.849    502.795   1052.290    502.795    516.610    502.795
 60.770    937.000    917.567     19.433    502.887    904.953    502.887    515.481    502.887
 60.870    800.005    799.377      0.628    502.979    787.758    502.979    514.592    502.979
 60.970    692.692    715.614    -22.923    503.072    704.771    503.072    513.912    503.072
 61.070    649.752    663.491    -13.739    503.165    653.228    503.165    513.422    503.165
 61.170    605.000    637.689    -32.689    503.258    627.826    503.258    513.110    503.258
 61.270    634.000    633.949      0.051    503.352    624.317    503.352    512.964    503.352
 61.370    694.000    651.063     42.937    503.446    641.513    503.446    512.965    503.446
 61.470    676.669    691.040    -14.371    503.540    681.448    503.540    513.084    503.540
 61.570    793.000    757.609     35.391    503.635    747.897    503.635    513.276    503.635
 61.670    825.000    853.412    -28.412    503.730    843.572    503.730    513.471    503.730
 61.770    985.621    976.581      9.040    503.825    966.696    503.825    513.582    503.825
 61.870   1083.645   1117.693    -34.048    503.921   1107.940    503.921    513.519    503.921
 61.970   1238.041   1258.175    -20.134    504.017   1248.786    504.017    513.234    504.017
 62.070   1345.000   1371.328    -26.328    504.113   1362.524    504.113    512.747    504.113
 62.170   1405.000   1428.582    -23.582    504.210   1420.517    504.210    512.129    504.210
 62.270   1355.000   1412.522    -57.522    504.307   1405.261    504.307    511.462    504.307
 62.370   1325.000   1327.912     -2.912    504.404   1321.441    504.404    510.813    504.404
 62.470   1146.556   1198.234    -51.678    504.501   1192.485    504.501    510.225    504.501
 62.570    976.000   1052.323    -76.323    504.599   1047.202    504.599    509.719    504.599
 62.670    855.000    913.943    -58.943    504.697    909.349    504.697    509.303    504.697
 62.770    810.000    797.843     12.157    504.795    793.679    504.795    508.974    504.795
 62.870    704.000    709.803     -5.803    504.893    705.987    504.893    508.722    504.893
 62.970    610.000    648.727    -38.727    504.991    645.191    504.991    508.535    504.991
 63.070    584.366    609.613    -25.247    505.090    606.306    505.090    508.401    505.090
 63.170    584.000    586.337     -2.337    505.188    583.218    505.188    508.307    505.188
 63.270    511.000    573.530    -62.530    505.287    570.571    505.287    508.244    505.287
 63.370    601.000    567.436     33.564    505.386    564.614    505.386    508.204    505.386
 63.470    531.518    566.033    -34.515    505.486    563.331    505.486    508.181    505.486
 63.570    536.934    568.826    -31.892    505.585    566.229    505.585    508.172    505.585
 63.670    600.494    576.584     23.910    505.684    574.080    505.684    508.175    505.684
 63.770    639.000    591.068     47.932    505.784    588.646    505.784    508.186    505.784
 63.870    644.000    614.658     29.342    505.883    612.307    505.883    508.205    505.883
 63.970    653.882    649.754      4.129    505.983    647.463    505.983    508.231    505.983
 64.070    699.000    697.876      1.124    506.083    695.637    506.083    508.263    506.083
 64.170    763.000    758.603      4.397    506.183    756.407    506.183    508.300    506.183
 64.270    854.000    828.550     25.450    506.283    826.391    506.283    508.343    506.283
 64.370    902.000    900.697      1.303    506.383    898.576    506.383    508.389    506.383
 64.470    972.000    964.582      7.418    506.483    962.501    506.483    508.440    506.483
 64.570   1080.000   1008.469     71.531    506.583   1006.436    506.583    508.495    506.583
 64.670   1034.000   1023.899     10.101    506.683   1021.921    506.683    508.553    506.683
 64.770   1068.859   1009.438     59.421    506.783   1007.523    506.783    508.615    506.783
 64.870   1018.234    970.284     47.950    506.883    968.431    506.883    508.679    506.883
 64.970    933.432    915.434     17.998    506.983    913.641    506.983    508.747    506.983
 65.070    853.000    854.722     -1.722    507.083    852.983    507.083    508.817    507.083
 65.170    757.929    796.122    -38.193    507.183    794.428    507.183    508.889    507.183
 65.270    726.515    744.218    -17.704    507.283    742.561    507.283    508.964    507.283
 65.370    678.184    700.463    -22.279    507.383    698.833    507.383    509.041    507.383
 65.470    666.000    664.554      1.446    507.482    662.945    507.482    509.120    507.482
 65.570    632.000    635.701     -3.701    507.582    634.106    507.582    509.202    507.582
 65.670    610.904    613.070     -2.166    507.682    611.486    507.682    509.285    507.682
 65.770    607.387    595.809     11.578    507.781    594.235    507.781    509.370    507.781
 65.870    566.000    583.085    -17.085    507.880    581.518    507.880    509.457    507.880
 65.970    579.000    574.136      4.864    507.980    572.575    507.980    509.545    507.980
 66.070    530.000    568.291    -38.291    508.079    566.737    508.079    509.636    508.079
 66.170    560.000    564.971     -4.971    508.178    563.422    508.178    509.728    508.178
 66.270    559.000    563.691     -4.691    508.277    562.147    508.277    509.821    508.277
 66.370    554.988    564.091     -9.103    508.375    562.550    508.375    509.916    508.375
 66.470    580.116    565.976     14.140    508.474    564.437    508.474    510.013    508.474
 66.570    586.000    569.383     16.617    508.572    567.846    508.572    510.112    508.572
 66.670    606.791    574.700     32.091    508.670    573.161    508.670    510.211    508.670
 66.770    579.000    582.866     -3.866    508.768    581.323    508.768    510.313    508.768
 66.870    558.000    595.714    -37.714    508.866    594.165    508.866    510.416    508.866
 66.970    591.000    616.435    -25.435    508.963    614.877    508.963    510.521    508.963
 67.070    644.000    650.059     -6.059    509.061    648.490    509.061    510.627    509.061
 67.170    658.326    703.743    -45.417    509.157    702.159    509.157    510.736    509.157
 67.270    815.000    786.448     28.552    509.254    784.847    509.254    510.846    509.254
 67.370    850.000    907.645    -57.645    509.351    906.026    509.351    510.957    509.351
 67.470   1020.711   1074.813    -54.102    509.447   1073.178    509.447    511.071    509.447
 67.570   1313.000   1289.982     23.018    509.543   1288.335    509.543    511.187    509.543
 67.670   1525.000   1546.084    -21.084    509.638   1544.435    509.638    511.304    509.638
 67.770   1816.000   1824.154     -8.154    509.734   1822.516    509.734    511.424    509.734
 67.870   2171.000   2092.365     78.635    509.829   2090.751    509.829    511.547    509.829
 67.970   2261.000   2308.375    -47.375    509.923   2306.798    509.923    511.671    509.923
 68.070   2488.458   2428.168     60.290    510.018   2426.630    510.018    511.799    510.018
 68.170   2437.000   2422.813     14.187    510.112   2421.303    510.112    511.929    510.112
 68.270   2299.653   2293.787      5.865    510.205   2292.275    510.205    512.062    510.205
 68.370   2091.000   2072.047     18.953    510.298   2070.495    510.298    512.199    510.298
 68.470   1826.000   1801.955     24.045    510.391   1800.329    510.391    512.339    510.391
 68.570   1590.000   1525.141     64.859    510.484   1523.419    510.484    512.483    510.484
 68.670   1329.663   1272.366     57.296    510.576   1270.535    510.576    512.631    510.576
 68.770   1079.000   1061.526     17.474    510.667   1059.579    510.667    512.783    510.667
 68.870    841.000    898.794    -57.794    510.759    896.735    510.759    512.940    510.759
 68.970    798.532    781.545     16.987    510.850    779.376    510.850    513.102    510.850
 69.070    732.991    702.016     30.975    510.940    699.740    510.940    513.272    510.940
 69.170    657.545    650.706      6.840    511.030    648.324    511.030    513.447    511.030
 69.270    665.517    618.768     46.749    511.119    616.281    511.119    513.631    511.119
 69.370    607.000    599.219      7.781    511.208    596.621    511.208    513.822    511.208
 69.470    610.000    587.176     22.824    511.297    584.461    511.297    514.023    511.297
 69.570    613.277    579.547     33.730    511.385    576.706    511.385    514.234    511.385
 69.670    574.656    574.528      0.128    511.473    571.551    511.473    514.456    511.473
 69.770    559.278    571.135    -11.858    511.560    568.009    511.560    514.691    511.560
 69.870    553.000    568.856    -15.856    511.646    565.565    511.646    514.941    511.646
 69.970    587.919    567.435     20.484    511.732    563.963    511.732    515.207    511.732
 70.070    602.000    566.753     35.247    511.818    563.081    511.818    515.492    511.818
 70.170    536.000    566.773    -30.773    511.903    562.878    511.903    515.798    511.903
 70.270    587.000    567.527     19.473    511.987    563.385    511.987    516.129    511.987
 70.370    550.000    569.135    -19.135    512.071    564.717    512.071    516.488    512.071
 70.470    591.000    571.864     19.136    512.154    567.136    512.154    516.880    512.154
 70.570    600.115    576.228     23.886    512.237    571.151    512.237    517.310    512.237
 70.670    567.054    583.161    -16.107    512.319    577.688    512.319    517.785    512.319
 70.770    574.000    594.237    -20.237    512.400    588.311    512.400    518.316    512.400
 70.870    599.863    611.934    -12.071    512.481    605.483    512.481    518.914    512.481
 70.970    610.555    639.836    -29.280    512.562    632.770    512.562    519.601    512.562
 71.070    661.990    682.648    -20.658    512.641    674.844    512.641    520.405    512.641
 71.170    741.000    745.829     -4.829    512.720    737.118    512.720    521.373    512.720
 71.270    829.000    834.699     -5.699    512.798    824.836    512.798    522.579    512.798
 71.370    946.619    953.003     -6.383    512.876    941.633    512.876    524.136    512.876
 71.470   1090.000   1101.101    -11.101    512.953   1087.702    512.953    526.213    512.953
 71.570   1269.000   1274.205     -5.205    513.030   1258.017    513.030    529.052    513.030
 71.670   1386.000   1461.109    -75.109    513.105   1441.051    513.105    532.976    513.105
 71.770   1716.986   1643.829     73.157    513.180   1618.418    513.180    538.394    513.180
 71.870   1780.832   1798.750    -17.918    513.254   1766.035    513.254    545.778    513.254
 71.970   1930.582   1900.628     29.954    513.328   1858.176    513.328    555.613    513.328
 72.070   1922.702   1930.536     -7.834    513.401   1875.490    513.401    568.316    513.401
 72.170   1892.000   1884.640      7.360    513.473   1813.894    513.473    584.129    513.473
 72.270   1822.621   1776.383     46.238    513.544   1686.879    513.544    602.995    513.544
 72.370   1683.103   1629.542     53.561    513.615   1518.699    513.615    624.432    513.615
 72.470   1503.226   1468.726     34.500    513.685   1334.993    513.685    647.412    513.685
 72.570   1297.000   1313.396    -16.396    513.754   1156.898    513.754    670.257    513.754
 72.670   1185.000   1175.671      9.329    513.822    998.902    513.822    690.601    513.822
 72.770   1058.000   1060.392     -2.392    513.890    868.690    513.890    705.603    513.890
 72.870    983.951    966.746     17.205    513.957    768.100    513.957    712.612    513.957
 72.970    825.000    890.935    -65.935    514.023    694.747    514.023    710.218    514.023
 73.070    826.661    828.738     -2.077    514.088    643.882    514.088    698.950    514.088
 73.170    710.000    776.868    -66.868    514.152    610.035    514.152    680.989    514.152
 73.270    691.000    733.134    -42.134    514.216    588.170    514.216    659.184    514.216
 73.370    661.000    696.152    -35.152    514.278    574.266    514.278    636.168    514.278
 73.470    628.000    665.070    -37.070    514.340    565.459    514.340    613.955    514.340
 73.570    688.674    639.368     49.306    514.401    559.895    514.401    593.879    514.401
 73.670    621.000    618.687      2.313    514.461    556.477    514.461    576.677    514.461
 73.770    621.000    602.679     18.321    514.521    554.610    514.521    562.599    514.521
 73.870    605.000    590.921     14.079    514.579    553.979    514.579    551.532    514.579
 73.970    626.739    582.880     43.859    514.637    554.399    514.637    543.132    514.637
 74.070    593.000    577.920     15.080    514.693    555.697    514.693    536.936    514.693
 74.170    625.000    575.333     49.667    514.749    557.650    514.749    532.458    514.749
 74.270    648.000    574.363     73.637    514.804    559.942    514.804    529.256    514.804
 74.370    588.000    574.229     13.771    514.858    562.161    514.858    526.964    514.858
 74.470    629.000    574.172     54.828    514.911    563.825    514.911    525.300    514.911
 74.570    651.000    573.526     77.474    514.963    564.472    514.963    524.062    514.963
 74.670    607.000    571.866     35.134    515.014    563.813    515.014    523.112    515.014
 74.770    591.061    569.110     21.951    515.064    561.859    515.064    522.359    515.064
 74.870    520.165    565.517    -45.352    515.113    558.926    515.113    521.743    515.113
 74.970    616.000    561.543     54.457    515.162    555.510    515.162    521.228    515.162
 75.070    557.000    557.704     -0.704    515.209    552.151    515.209    520.789    515.209
 75.170    597.000    554.505     42.495    515.255    549.370    515.255    520.411    515.255
 75.270    541.000    552.426    -11.426    515.301    547.659    515.301    520.081    515.301
 75.370    546.000    551.940     -5.940    515.345    547.499    515.345    519.794    515.345
 75.470    548.782    553.536     -4.754    515.388    549.386    515.388    519.540    515.388
 75.570    577.000    557.727     19.273    515.431    553.837    515.431    519.317    515.431
 75.670    572.000    565.020      6.980    515.472    561.363    515.472    519.120    515.472
 75.770    582.000    575.837      6.163    515.512    572.389    515.512    518.944    515.512
 75.870    623.000    590.380     32.620    515.552    587.120    515.552    518.788    515.552
 75.970    605.000    608.475     -3.475    515.590    605.384    515.590    518.649    515.590
 76.070    623.000    629.415     -6.415    515.627    626.477    515.627    518.525    515.627
 76.170    635.349    651.859    -16.510    515.663    649.059    515.663    518.414    515.663
 76.270    713.000    673.798     39.202    515.699    671.127    515.699    518.314    515.699
 76.370    680.000    692.655    -12.655    515.733    690.102    515.733    518.224    515.733
 76.470    709.000    705.597      3.403    515.766    703.157    515.766    518.143    515.766
 76.570    738.000    710.250     27.750    515.797    707.917    515.797    518.070    515.797
 76.670    662.740    705.618    -42.878    515.828    703.387    515.828    518.004    515.828
 76.770    727.217    692.576     34.641    515.858    690.443    515.858    517.945    515.858
 76.870    690.344    673.428     16.916    515.887    671.387    515.887    517.890    515.887
 76.970    655.000    650.982      4.018    515.914    649.027    515.914    517.841    515.914
 77.070    624.448    627.825     -3.377    515.941    625.949    515.941    517.796    515.941
 77.170    644.987    605.974     39.012    515.966    604.171    515.966    517.755    515.966
 77.270    529.000    586.771    -57.771    515.990    585.034    515.990    517.717    515.990
 77.370    575.319    570.895      4.423    516.013    569.220    516.013    517.682    516.013
 77.470    532.000    558.472    -26.472    516.035    556.853    516.035    517.650    516.035
 77.570    530.000    549.216    -19.216    516.056    547.649    516.056    517.620    516.056
 77.670    504.167    542.613    -38.446    516.076    541.094    516.076    517.593    516.076
 77.770    499.000    538.070    -39.070    516.094    536.595    516.094    517.567    516.094
 77.870    492.661    535.025    -42.365    516.111    533.593    516.111    517.543    516.111
 77.970    562.000    533.014     28.986    516.128    531.620    516.128    517.521    516.128
 78.070    498.000    531.684    -33.684    516.143    530.326    516.143    517.499    516.143
 78.170    556.439    530.792     25.648    516.156    529.468    516.156    517.479    516.156
 78.270    502.000    530.181    -28.181    516.169    528.890    516.169    517.460    516.169
 78.370    525.000    529.757     -4.757    516.181    528.495    516.181    517.442    516.181
 78.470    503.000    529.469    -26.469    516.191    528.235    516.191    517.424    516.191
 78.570    508.328    529.292    -20.963    516.200    528.084    516.200    517.407    516.200
 78.670    496.000    529.221    -33.221    516.208    528.037    516.208    517.391    516.208
 78.770    539.000    529.266      9.734    516.214    528.103    516.214    517.376    516.214
 78.870    510.793    529.440    -18.647    516.220    528.297    516.220    517.362    516.220
 78.970    496.000    529.750    -33.750    516.224    528.624    516.224    517.349    516.224
 79.070    565.000    530.240     34.760    516.227    529.129    516.227    517.337    516.227
 79.170    478.000    530.975    -52.975    516.229    529.875    516.229    517.327    516.229
 79.270    539.000    531.959      7.041    516.229    530.866    516.229    517.320    516.229
 79.370    521.235    533.216    -11.982    516.228    532.126    516.228    517.316    516.228
 79.470    548.000    534.772     13.228    516.226    533.680    516.226    517.315    516.226
 79.570    568.541    536.658     31.883    516.223    535.558    516.223    517.319    516.223
 79.670    550.000    538.923     11.077    516.219    537.809    516.219    517.328    516.219
 79.770    495.000    541.647    -46.647    516.213    540.513    516.213    517.343    516.213
 79.870    537.000    544.967     -7.967    516.206    543.805    516.206    517.363    516.206
 79.970    570.000    549.098     20.902    516.198    547.902    516.198    517.389    516.198
 80.070    540.000    554.359    -14.359    516.188    553.123    516.188    517.420    516.188
 80.170    517.113    561.174    -44.061    516.177    559.896    516.177    517.453    516.177
 80.270    561.000    570.025     -9.025    516.165    568.702    516.165    517.487    516.165
 80.370    582.000    581.355      0.645    516.152    579.991    516.152    517.518    516.152
 80.470    600.000    595.454      4.546    516.137    594.056    516.137    517.541    516.137
 80.570    595.426    612.352    -16.926    516.121    610.931    516.121    517.552    516.121
 80.670    587.000    631.731    -44.731    516.104    630.305    516.104    517.545    516.104
 80.770    670.000    652.882     17.118    516.085    651.470    516.085    517.517    516.085
 80.870    634.000    674.723    -40.723    516.065    673.345    516.065    517.470    516.065
 80.970    672.027    695.912    -23.885    516.044    694.585    516.044    517.404    516.044
 81.070    696.000    715.048    -19.048    516.022    713.784    516.022    517.326    516.022
 81.170    746.736    730.855     15.881    515.998    729.660    515.998    517.240    515.998
 81.270    775.000    742.295     32.705    515.973    741.171    515.973    517.150    515.973
 81.370    747.000    748.650     -1.650    515.946    747.595    515.946    517.061    515.946
 81.470    797.000    749.598     47.402    515.918    748.607    515.918    516.974    515.918
 81.570    717.000    745.235    -28.235    515.889    744.301    515.889    516.891    515.889
 81.670    698.530    736.029    -37.500    515.858    735.145    515.858    516.813    515.858
 81.770    772.000    722.797     49.203    515.827    721.953    515.827    516.741    515.827
 81.870    702.000    706.676     -4.676    515.793    705.865    515.793    516.674    515.793
 81.970    663.096    688.967    -25.871    515.759    688.182    515.759    516.611    515.759
 82.070    677.000    670.860      6.140    515.723    670.096    515.723    516.552    515.723
 82.170    649.000    653.214     -4.214    515.686    652.464    515.686    516.496    515.686
 82.270    669.000    636.502     32.498    515.647    635.763    515.647    516.442    515.647
 82.370    664.000    620.927     43.073    515.607    620.196    515.607    516.390    515.607
 82.470    637.000    606.590     30.410    515.566    605.863    515.566    516.339    515.566
 82.570    612.000    593.620     18.380    515.523    592.895    515.523    516.289    515.523
 82.670    554.000    582.193    -28.193    515.479    581.468    515.479    516.238    515.479
 82.770    593.000    572.494     20.506    515.434    571.768    515.434    516.187    515.434
 82.870    571.000    564.678      6.322    515.387    563.949    515.387    516.135    515.387
 82.970    572.384    558.854     13.531    515.339    558.122    515.339    516.083    515.339
 83.070    527.000    555.074    -28.074    515.289    554.339    515.289    516.030    515.289
 83.170    537.118    553.324    -16.206    515.238    552.584    515.238    515.976    515.238
 83.270    574.871    553.499     21.372    515.186    552.754    515.186    515.921    515.186
 83.370    545.000    555.390    -10.390    515.132    554.640    515.132    515.865    515.132
 83.470    563.000    558.676      4.324    515.077    557.921    515.077    515.808    515.077
 83.570    543.705    562.918    -19.213    515.021    562.158    515.021    515.751    515.021
 83.670    554.000    567.574    -13.574    514.963    566.809    514.963    515.692    514.963
 83.770    539.272    572.022    -32.750    514.904    571.253    514.904    515.632    514.904
 83.870    567.000    575.609     -8.609    514.843    574.838    514.843    515.571    514.843
 83.970    560.000    577.735    -17.735    514.781    576.963    514.781    515.508    514.781
 84.070    570.989    577.976     -6.987    514.718    577.205    514.718    515.445    514.718
 84.170    581.497    576.203      5.294    514.653    575.435    514.653    515.381    514.653
 84.270    564.117    572.616     -8.499    514.587    571.850    514.587    515.315    514.587
 84.370    521.000    567.654    -46.654    514.519    566.892    514.519    515.249    514.519
 84.470    597.000    561.863     35.137    514.451    561.105    514.451    515.181    514.451
 84.570    586.550    555.778     30.772    514.380    555.023    514.380    515.112    514.380
 84.670    590.000    549.850     40.150    514.308    549.099    514.308    515.042    514.308
 84.770    546.124    544.422      1.703    514.235    543.672    514.235    514.971    514.235
 84.870    511.000    539.710    -28.710    514.161    538.961    514.161    514.899    514.161
 84.970    504.707    535.820    -31.112    514.085    535.071    514.085    514.825    514.085
 85.070    544.000    532.759     11.241    514.007    532.009    514.007    514.751    514.007
 85.170    505.000    530.466    -25.466    513.929    529.714    513.929    514.675    513.929
 85.270    541.000    528.843     12.157    513.849    528.089    513.849    514.598    513.849
 85.370    561.000    527.780     33.220    513.767    527.022    513.767    514.520    513.767
 85.470    509.000    527.176    -18.176    513.684    526.414    513.684    514.441    513.684
 85.570    554.151    526.957     27.194    513.600    526.191    513.600    514.361    513.600
 85.670    508.000    527.083    -19.083    513.514    526.312    513.514    514.280    513.514
 85.770    512.000    527.555    -15.555    513.427    526.778    513.427    514.197    513.427
 85.870    560.000    528.416     31.584    513.338    527.633    513.338    514.114    513.338
 85.970    519.578    529.754    -10.176    513.249    528.964    513.249    514.029    513.249
 86.070    540.000    531.697      8.303    513.157    530.899    513.157    513.943    513.157
 86.170    599.000    534.409     64.591    513.064    533.601    513.064    513.857    513.064
 86.270    484.000    538.076    -54.076    512.970    537.257    512.970    513.769    512.970
 86.370    548.000    542.887      5.113    512.875    542.055    512.875    513.680    512.875
 86.470    537.000    549.004    -12.004    512.778    548.157    512.778    513.590    512.778
 86.570    515.000    556.528    -41.528    512.680    555.665    512.680    513.499    512.680
 86.670    566.000    565.456      0.544    512.580    564.576    512.580    513.407    512.580
 86.770    600.754    575.644     25.110    512.479    574.744    512.479    513.314    512.479
 86.870    605.000    586.773     18.227    512.376    585.852    512.376    513.220    512.376
 86.970    625.000    598.335     26.665    512.273    597.394    512.273    513.126    512.273
 87.070    619.000    609.637      9.363    512.167    608.675    512.167    513.030    512.167
 87.170    646.000    619.826     26.174    512.061    618.846    512.061    512.933    512.061
 87.270    631.087    627.974      3.113    511.953    626.977    511.953    512.836    511.953
 87.370    672.000    633.216     38.784    511.843    632.207    511.843    512.737    511.843
 87.470    669.907    634.954     34.953    511.733    633.936    511.733    512.638    511.733
 87.570    655.000    633.026     21.974    511.621    632.003    511.621    512.538    511.621
 87.670    664.869    627.788     37.082    511.507    626.762    511.507    512.437    511.507
 87.770    648.000    619.969     28.031    511.392    618.943    511.392    512.335    511.392
 87.870    623.000    610.490     12.510    511.276    609.463    511.276    512.233    511.276
 87.970    635.531    600.323     35.208    511.158    599.295    511.158    512.130    511.158
 88.070    606.773    590.387     16.387    511.039    589.356    511.039    512.027    511.039
 88.170    605.000    581.472     23.528    510.919    580.437    510.919    511.923    510.919
 88.270    640.000    574.202     65.798    510.797    573.161    510.797    511.818    510.797
 88.370    561.031    569.006     -7.975    510.674    567.956    510.674    511.713    510.674
 88.470    594.000    566.112     27.888    510.550    565.053    510.550    511.608    510.550
 88.570    592.000    565.555     26.445    510.424    564.483    510.424    511.502    510.424
 88.670    579.000    567.185     11.815    510.297    566.100    510.297    511.396    510.297
 88.770    569.515    570.688     -1.174    510.169    569.589    510.169    511.290    510.169
 88.870    611.819    575.608     36.211    510.039    574.492    510.039    511.184    510.039
 88.970    599.000    581.367     17.633    509.908    580.234    509.908    511.078    509.908
 89.070    603.000    587.298     15.702    509.776    586.146    509.776    510.972    509.776
 89.170    581.000    592.681    -11.681    509.642    591.508    509.642    510.866    509.642
 89.270    601.000    596.804      4.196    509.507    595.607    509.507    510.761    509.507
 89.370    576.000    599.052    -23.052    509.371    597.827    509.371    510.656    509.371
 89.470    623.359    599.032     24.327    509.233    597.776    509.233    510.552    509.233
 89.570    617.232    596.659     20.573    509.094    595.367    509.094    510.449    509.094
 89.670    579.723    592.168    -12.445    508.954    590.836    508.954    510.347    508.954
 89.770    564.639    586.026    -21.387    508.812    584.649    508.812    510.247    508.812
 89.870    580.963    578.811      2.152    508.669    577.384    508.669    510.148    508.669
 89.970    535.277    571.103    -35.825    508.525    569.622    508.525    510.051    508.525
 90.070    523.699    563.413    -39.713    508.380    561.874    508.380    509.957    508.380
 90.170    519.000    556.153    -37.153    508.233    554.553    508.233    509.865    508.233
 90.270    532.000    549.619    -17.619    508.085    547.953    508.085    509.777    508.085
 90.370    461.000    543.992    -82.992    507.936    542.255    507.936    509.693    507.936
 90.470    556.856    539.346     17.510    507.785    537.533    507.785    509.613    507.785
 90.570    510.445    535.672    -25.227    507.633    533.777    507.633    509.540    507.633
 90.670    517.000    532.898    -15.898    507.480    530.913    507.480    509.474    507.480
 90.770    514.000    530.920    -16.920    507.326    528.834    507.326    509.417    507.326
 90.870    521.000    529.622     -8.622    507.170    527.423    507.170    509.373    507.170
 90.970    524.000    528.897     -4.897    507.014    526.568    507.014    509.345    507.014
 91.070    509.000    528.662    -19.662    506.856    526.181    506.856    509.338    506.856
 91.170    531.000    528.868      2.132    506.697    526.206    506.697    509.358    506.697
 91.270    510.464    529.505    -19.040    506.536    526.626    506.536    509.413    506.536
 91.370    570.839    530.608     40.231    506.375    527.464    506.375    509.515    506.375
 91.470    551.424    532.258     19.166    506.212    528.787    506.212    509.679    506.212
 91.570    476.000    534.580    -58.580    506.048    530.702    506.048    509.920    506.048
 91.670    576.414    537.744     38.670    505.882    533.362    505.882    510.258    505.882
 91.770    500.453    541.952    -41.499    505.716    536.945    505.716    510.714    505.716
 91.870    527.000    547.403    -20.403    505.549    541.626    505.549    511.313    505.549
 91.970    564.000    554.411      9.589    505.380    547.695    505.380    512.080    505.380
 92.070    570.000    563.203      6.797    505.210    555.354    505.210    513.038    505.210
 92.170    576.000    573.962      2.038    505.039    564.766    505.039    514.209    505.039
 92.270    625.090    586.822     38.268    504.867    576.049    504.867    515.608    504.867
 92.370    606.948    601.827      5.121    504.693    589.240    504.693    517.243    504.693
 92.470    615.307    618.892     -3.585    504.519    604.257    504.519    519.110    504.519
 92.570    602.277    637.790    -35.513    504.343    620.890    504.343    521.192    504.343
 92.670    674.395    658.134     16.261    504.167    638.787    504.167    523.456    504.167
 92.770    674.000    679.375     -5.375    503.989    657.451    503.989    525.849    503.989
 92.870    680.514    700.815    -20.301    503.810    676.259    503.810    528.297    503.810
 92.970    704.000    721.663    -17.663    503.630    694.519    503.630    530.701    503.630
 93.070    793.000    741.132     51.868    503.449    711.567    503.449    532.939    503.449
 93.170    748.000    758.578    -10.578    503.267    726.902    503.267    534.866    503.267
 93.270    810.337    773.607     36.730    503.084    740.286    503.084    536.329    503.084
 93.370    803.000    786.123     16.877    502.900    751.761    502.900    537.187    502.900
 93.470    791.000    796.270     -5.270    502.715    761.573    502.715    537.339    502.715
 93.570    820.000    804.353     15.647    502.528    770.058    502.528    536.753    502.528
 93.670    817.000    810.779      6.221    502.341    777.580    502.341    535.473    502.341
 93.770    858.391    816.041     42.351    502.153    784.524    502.153    533.605    502.153
 93.870    825.000    820.724      4.276    501.963    791.331    501.963    531.295    501.963
 93.970    842.099    825.505     16.594    501.773    798.523    501.773    528.695    501.773
 94.070    899.000    831.058     67.942    501.582    806.633    501.582    525.949    501.582
 94.170    786.601    837.890    -51.288    501.390    816.048    501.390    523.175    501.390
 94.270    871.000    846.161     24.839    501.196    826.833    501.196    520.470    501.196
 94.370    806.392    855.574    -49.182    501.002    838.622    501.002    517.902    501.002
 94.470    899.000    865.347     33.653    500.807    850.581    500.807    515.524    500.807
 94.570    899.890    874.263     25.627    500.611    861.465    500.611    513.365    500.611
 94.670    845.893    880.813    -34.919    500.414    869.747    500.414    511.441    500.414
 94.770    972.000    883.410     88.590    500.216    873.841    500.216    509.753    500.216
 94.870    908.883    880.700     28.183    500.018    872.400    500.018    508.294    500.018
 94.970    874.122    871.880      2.241    499.818    864.639    499.818    507.045    499.818
 95.070    934.000    856.931     77.069    499.618    850.556    499.618    505.986    499.618
 95.170    882.000    836.628     45.372    499.416    830.952    499.416    505.093    499.416
 95.270    788.819    812.369    -23.550    499.214    807.247    499.214    504.342    499.214
 95.370    764.000    785.913    -21.913    499.011    781.226    499.011    503.707    499.011
 95.470    782.000    759.154     22.846    498.807    754.803    498.807    503.169    498.807
 95.570    767.000    733.956     33.044    498.602    729.862    498.602    502.708    498.602
 95.670    740.033    712.068     27.965    498.397    708.166    498.397    502.307    498.397
 95.770    707.570    695.061     12.509    498.191    691.302    498.191    501.955    498.191
 95.870    737.000    684.316     52.684    497.984    680.659    497.984    501.641    497.984
 95.970    682.379    681.010      1.370    497.776    677.423    497.776    501.355    497.776
 96.070    647.942    686.125    -38.183    497.567    682.584    497.567    501.094    497.567
 96.170    710.494    700.437     10.057    497.358    696.919    497.358    500.852    497.358
 96.270    742.000    724.554     17.446    497.148    721.043    497.148    500.625    497.148
 96.370    800.000    758.796     41.204    496.937    755.277    496.937    500.412    496.937
 96.470    798.000    803.161     -5.161    496.726    799.621    496.726    500.211    496.726
 96.570    854.000    857.231     -3.231    496.514    853.659    496.514    500.019    496.514
 96.670    934.238    920.074     14.164    496.301    916.461    496.301    499.838    496.301
 96.770   1008.000    990.152     17.848    496.087    986.486    496.087    499.669    496.087
 96.870   1110.345   1065.255     45.091    495.873   1061.528    495.873    499.509    495.873
 96.970   1168.000   1142.489     25.511    495.658   1138.695    495.658    499.358    495.658
 97.070   1246.000   1218.312     27.688    495.443   1214.443    495.443    499.218    495.443
 97.170   1313.000   1288.639     24.361    495.227   1284.689    495.227    499.088    495.227
 97.270   1393.000   1349.093     43.907    495.011   1345.055    495.011    498.969    495.011
 97.370   1387.000   1395.418     -8.418    494.794   1391.284    494.794    498.862    494.794
 97.470   1402.000   1424.069    -22.069    494.576   1419.831    494.576    498.767    494.576
 97.570   1497.000   1432.873     64.127    494.358   1428.519    494.358    498.686    494.358
 97.670   1429.497   1421.469      8.028    494.139   1416.983    494.139    498.620    494.139
 97.770   1338.131   1391.325    -53.195    493.920   1386.689    493.920    498.571    493.920
 97.870   1350.000   1345.353      4.647    493.700   1340.544    493.700    498.542    493.700
 97.970   1272.000   1287.322    -15.322    493.480   1282.313    493.480    498.535    493.480
 98.070   1248.000   1221.338     26.662    493.259   1216.097    493.259    498.556    493.259
 98.170   1222.000   1151.465     70.535    493.038   1145.955    493.038    498.610    493.038
 98.270   1084.000   1081.490      2.510    492.817   1075.664    492.817    498.705    492.817
 98.370   1024.000   1014.778      9.222    492.595   1008.582    492.595    498.851    492.595
 98.470    944.000    954.204    -10.204    492.372    947.568    492.372    499.063    492.372
 98.570    850.000    902.130    -52.130    492.150    894.969    492.150    499.358    492.150
 98.670    850.000    860.427    -10.427    491.926    852.633    491.926    499.760    491.926
 98.770    838.081    830.527      7.554    491.703    821.963    491.703    500.297    491.703
 98.870    781.000    813.487    -32.487    491.479    803.981    491.479    501.005    491.479
 98.970    782.000    810.065    -28.065    491.255    799.402    491.255    501.929    491.255
 99.070    788.599    820.780    -32.182    491.031    808.693    491.031    503.119    491.031
 99.170    803.000    845.944    -42.944    490.806    832.108    490.806    504.635    490.806
 99.270    904.000    885.656     18.344    490.581    869.681    490.581    506.544    490.581
 99.370    941.000    939.764      1.236    490.356    921.188    490.356    508.915    490.356
 99.470   1034.000   1007.792     26.208    490.131    986.082    490.131    511.822    490.131
 99.570   1130.873   1088.849     42.024    489.905   1063.400    489.905    515.337    489.905
 99.670   1171.000   1181.531    -10.531    489.679   1151.674    489.679    519.524    489.679
 99.770   1262.816   1283.822    -21.006    489.453   1248.837    489.453    524.434    489.453
 99.870   1341.000   1393.076    -52.076    489.227   1352.210    489.227    530.101    489.227
 99.970   1539.000   1505.946     33.054    489.001   1458.440    489.001    536.531    489.001
100.070   1618.000   1618.469     -0.469    488.775   1563.590    488.775    543.699    488.775
100.170   1698.000   1726.278    -28.278    488.548   1663.356    488.548    551.539    488.548
100.270   1863.000   1824.926     38.074    488.322   1753.402    488.322    559.941    488.322
100.370   1934.000   1910.292     23.708    488.095   1829.764    488.095    568.747    488.095
100.470   1913.000   1978.925    -65.925    487.869   1889.205    487.869    577.740    487.869
100.570   2000.696   2028.204    -27.508    487.642   1929.375    487.642    586.648    487.642
100.670   2122.599   2056.312     66.288    487.416   1948.787    487.416    595.139    487.416
100.770   2110.313   2062.185     48.128    487.189   1946.763    487.189    602.829    487.189
100.870   2039.618   2045.605     -5.986    486.963   1923.502    486.963    609.297    486.963
100.970   1982.000   2007.439    -25.439    486.736   1880.288    486.736    614.127    486.736
101.070   1979.000   1949.891     29.109    486.510   1819.681    486.510    616.962    486.510
101.170   1906.000   1876.504     29.496    486.283   1745.463    486.283    617.563    486.283
101.270   1842.000   1791.844     50.156    486.057   1662.267    486.057    615.864    486.057
101.370   1729.000   1700.948     28.052    485.831   1575.014    485.831    611.984    485.831
101.470   1642.895   1608.746     34.149    485.606   1488.353    485.606    606.200    485.606
101.570   1581.000   1519.588     61.412    485.380   1406.257    485.380    598.896    485.380
101.670   1491.478   1436.953     54.525    485.155   1331.781    485.155    590.494    485.155
101.770   1298.118   1363.298    -65.180    484.929   1266.971    484.929    581.407    484.929
101.870   1231.967   1300.019    -68.053    484.704   1212.853    484.704    572.005    484.704
101.970   1243.000   1247.487     -4.487    484.480   1169.482    484.480    562.604    484.480
102.070   1231.504   1205.137     26.366    484.256   1136.040    484.256    553.461    484.256
102.170   1116.000   1171.601    -55.601    484.032   1110.960    484.032    544.773    484.032
102.270   1130.000   1144.880    -14.880    483.808   1092.097    483.808    536.685    483.808
102.370   1130.233   1122.560      7.672    483.585   1076.942    483.585    529.293    483.585
102.470   1068.000   1102.084    -34.084    483.362   1062.884    483.362    522.651    483.362
102.570   1041.000   1081.062    -40.062    483.139   1047.517    483.139    516.774    483.139
102.670   1031.000   1057.581    -26.581    482.917   1028.942    482.917    511.647    482.917
102.770   1004.000   1030.440    -26.440    482.696   1005.995    482.696    507.231    482.696
102.870   1025.000    999.224     25.776    482.475    978.319    482.475    503.470    482.475
102.970    968.688    964.220      4.469    482.254    946.265    482.254    500.297    482.254
103.070    918.000    926.217     -8.217    482.034    910.697    482.034    497.640    482.034
103.170    863.992    886.290    -22.299    481.815    872.761    481.815    495.425    481.815
103.270    881.000    845.613     35.387    481.596    833.702    481.596    493.583    481.596
103.370    790.900    805.330    -14.430    481.377    794.727    481.377    492.049    481.377
103.470    850.000    766.470     83.530    481.160    756.925    481.160    490.768    481.160
103.570    745.000    729.896     15.104    480.943    721.206    480.943    489.689    480.943
103.670    741.490    696.268     45.221    480.727    688.273    480.727    488.770    480.727
103.770    710.723    666.036     44.688    480.511    658.608    480.511    487.979    480.511
103.870    602.837    639.435    -36.598    480.296    632.477    480.296    487.288    480.296
103.970    603.000    616.512    -13.512    480.082    609.947    480.082    486.675    480.082
104.070    624.553    597.152     27.401    479.869    590.920    479.869    486.124    479.869
104.170    637.000    581.117     55.883    479.656    575.169    479.656    485.622    479.656
104.270    572.000    568.085      3.915    479.445    562.384    479.445    485.160    479.445
104.370    590.000    557.690     32.310    479.234    552.205    479.234    484.729    479.234
104.470    570.810    549.553     21.257    479.024    544.260    479.024    484.325    479.024
104.570    559.000    543.317     15.683    478.815    538.194    478.815    483.944    478.815
104.670    543.529    538.655      4.874    478.607    533.684    478.607    483.581    478.607
104.770    562.000    535.287     26.713    478.400    530.452    478.400    483.236    478.400
104.870    565.000    532.978     32.022    478.194    528.265    478.194    482.907    478.194
104.970    545.000    531.570     13.430    477.989    526.967    477.989    482.590    477.989
105.070    541.000    530.939     10.061    477.785    526.434    477.785    482.287    477.785
105.170    532.000    531.014      0.986    477.582    526.598    477.582    481.995    477.582
105.270    519.000    531.771    -12.771    477.380    527.433    477.380    481.713    477.380
105.370    523.743    533.225     -9.481    477.180    528.955    477.180    481.442    477.180
105.470    587.000    535.424     51.576    476.980    531.215    476.980    481.180    476.980
105.570    521.000    538.445    -17.445    476.782    534.290    476.782    480.927    476.782
105.670    591.000    542.381     48.619    476.585    538.271    476.585    480.682    476.585
105.770    559.000    547.330     11.670    476.389    543.258    476.389    480.446    476.389
105.870    554.000    553.381      0.619    476.195    549.340    476.195    480.217    476.195
105.970    600.000    560.598     39.402    476.001    556.582    476.001    479.996    476.001
106.070    591.000    569.007     21.993    475.810    565.011    475.810    479.782    475.810
106.170    591.000    578.590     12.410    475.619    574.607    475.619    479.575    475.619
106.270    546.341    589.263    -42.921    475.430    585.287    475.430    479.375    475.430
106.370    614.409    600.878     13.531    475.243    596.906    475.243    479.182    475.243
106.470    616.106    613.222      2.884    475.056    609.247    475.056    478.995    475.056
106.570    650.805    626.013     24.791    474.872    622.032    474.872    478.814    474.872
106.670    585.000    638.913    -53.913    474.689    634.920    474.689    478.640    474.689
106.770    616.000    651.532    -35.532    474.507    647.523    474.507    478.473    474.507
106.870    636.000    663.449    -27.449    474.327    659.421    474.327    478.312    474.327
106.970    659.000    674.239    -15.239    474.149    670.188    474.149    478.157    474.149
107.070    649.000    683.508    -34.508    473.972    679.429    473.972    478.008    473.972
107.170    660.033    690.942    -30.909    473.797    686.833    473.797    477.866    473.797
107.270    705.393    696.364      9.029    473.623    692.220    473.623    477.731    473.623
107.370    713.834    699.768     14.067    473.452    695.585    473.452    477.601    473.452
107.470    742.972    701.330     41.642    473.282    697.104    473.282    477.479    473.282
107.570    685.000    701.383    -16.383    473.114    697.108    473.114    477.363    473.114
107.670    684.000    700.355    -16.355    472.948    696.027    472.948    477.254    472.948
107.770    702.000    698.706      3.294    472.784    694.320    472.784    477.152    472.784
107.870    692.836    696.871     -4.035    472.621    692.422    472.621    477.058    472.621
107.970    672.000    695.211    -23.211    472.461    690.693    472.461    476.970    472.461
108.070    678.000    693.985    -15.985    472.302    689.392    472.302    476.891    472.302
108.170    640.000    693.334    -53.334    472.146    688.660    472.146    476.819    472.146
108.270    681.000    693.270    -12.270    471.992    688.510    471.992    476.755    471.992
108.370    681.000    693.682    -12.682    471.839    688.828    471.839    476.700    471.839
108.470    658.153    694.338    -36.185    471.689    689.383    471.689    476.653    471.689
108.570    654.000    694.909    -40.909    471.541    689.848    471.541    476.615    471.541
108.670    687.391    695.001     -7.610    471.395    689.825    471.395    476.587    471.395
108.770    719.000    694.194     24.806    471.251    688.896    471.251    476.568    471.251
108.870    697.000    692.101      4.899    471.110    686.676    471.110    476.556    471.110
108.970    736.502    688.437     48.065    470.971    682.873    470.971    476.558    470.971
109.070    701.000    683.043     17.957    470.834    677.329    470.834    476.572    470.834
109.170    653.000    675.922    -22.922    470.699    670.049    470.699    476.598    470.699
109.270    694.285    667.224     27.061    470.567    661.180    470.567    476.637    470.567
109.370    617.997    657.210    -39.213    470.438    650.985    470.438    476.689    470.438
109.470    638.987    646.212     -7.225    470.311    639.793    470.311    476.754    470.311
109.570    653.000    634.592     18.408    470.186    627.967    470.186    476.835    470.186
109.670    599.256    622.710    -23.453    470.064    615.863    470.064    476.932    470.064
109.770    594.635    610.900    -16.265    469.944    603.818    469.944    477.046    469.944
109.870    629.330    599.464     29.865    469.827    592.131    469.827    477.178    469.827
109.970    612.000    588.650     23.350    469.713    581.056    469.713    477.323    469.713
110.070    604.000    578.675     25.325    469.601    570.794    469.601    477.496    469.601
110.170    546.000    569.685    -23.685    469.492    561.493    469.492    477.696    469.492
110.270    593.000    561.774     31.226    469.386    553.248    469.386    477.922    469.386
110.370    546.000    554.969     -8.969    469.283    546.080    469.283    478.179    469.283
110.470    578.119    549.304     28.816    469.182    540.022    469.182    478.470    469.182
110.570    534.000    544.769    -10.769    469.085    535.056    469.085    478.801    469.085
110.670    565.000    541.286     23.714    468.990    531.099    468.990    479.179    468.990
110.770    576.000    538.776     37.224    468.898    528.064    468.898    479.611    468.898
110.870    533.116    537.153     -4.037    468.810    525.854    468.810    480.108    468.810
110.970    548.000    536.327     11.673    468.724    524.366    468.724    480.683    468.724
111.070    533.000    536.211     -3.211    468.641    523.499    468.641    481.350    468.641
111.170    525.000    536.726    -11.726    468.562    523.153    468.562    482.130    468.562
111.270    546.589    537.805      8.784    468.485    523.240    468.485    483.046    468.485
111.370    521.560    539.397    -17.837    468.412    523.678    468.412    484.126    468.412
111.470    504.000    541.464    -37.464    468.342    524.397    468.342    485.403    468.342
111.570    534.084    543.986     -9.902    468.276    525.337    468.276    486.918    468.276
111.670    519.553    546.963    -27.410    468.212    526.451    468.212    488.717    468.212
111.770    586.875    550.409     36.467    468.152    527.701    468.152    490.852    468.152
111.870    543.000    554.358    -11.358    468.096    529.061    468.096    493.384    468.096
111.970    527.000    558.862    -31.862    468.043    530.517    468.043    496.379    468.043
112.070    573.000    563.990      9.010    467.993    532.064    467.993    499.910    467.993
112.170    552.964    569.824    -16.861    467.947    533.710    467.947    504.053    467.947
112.270    572.977    576.462     -3.486    467.904    535.470    467.904    508.888    467.904
112.370    543.314    584.009    -40.695    467.865    537.369    467.865    514.497    467.865
112.470    549.000    592.575    -43.575    467.830    539.439    467.830    520.957    467.830
112.570    591.640    602.275    -10.635    467.798    541.722    467.798    528.343    467.798
112.670    645.343    613.224     32.118    467.770    544.269    467.770    536.717    467.770
112.770    594.000    625.538    -31.538    467.746    547.144    467.746    546.131    467.746
112.870    643.059    639.330      3.729    467.726    550.430    467.726    556.617    467.726
112.970    652.000    654.716     -2.716    467.709    554.233    467.709    568.183    467.709
113.070    649.000    671.815    -22.815    467.697    558.689    467.697    580.813    467.697
113.170    699.782    690.759      9.023    467.688    563.981    467.688    594.456    467.688
113.270    691.779    711.701    -19.922    467.684    570.345    467.684    609.028    467.684
113.370    781.746    734.826     46.920    467.683    578.093    467.683    624.404    467.683
113.470    715.000    760.373    -45.373    467.687    587.627    467.687    640.417    467.687
113.570    759.000    788.647    -29.647    467.695    599.467    467.695    656.857    467.695
113.670    800.081    820.051    -19.970    467.706    614.275    467.706    673.461    467.706
113.770    826.000    855.106    -29.106    467.723    632.879    467.723    689.923    467.723
113.870    893.453    894.480     -1.027    467.743    656.307    467.743    705.882    467.743
113.970    974.990    939.016     35.973    467.768    685.805    467.768    720.937    467.768
114.070   1020.217    989.766     30.450    467.797    722.862    467.797    734.648    467.797
114.170   1064.000   1048.017     15.983    467.830    769.225    467.830    746.557    467.830
114.270   1140.000   1115.321     24.679    467.868    826.892    467.868    756.215    467.868
114.370   1184.000   1193.514     -9.514    467.910    898.106    467.910    763.217    467.910
114.470   1283.000   1284.726     -1.726    467.957    985.311    467.957    767.246    467.957
114.570   1341.912   1391.354    -49.442    468.009   1091.098    468.009    768.111    468.009
114.670   1622.000   1516.002    105.998    468.065   1218.110    468.065    765.770    468.065
114.770   1658.000   1661.373     -3.373    468.126   1368.933    468.126    760.341    468.126
114.870   1837.127   1830.106      7.022    468.192   1545.948    468.192    752.082    468.192
114.970   2102.848   2024.574     78.274    468.262   1751.164    468.262    741.358    468.262
115.070   2364.000   2246.663    117.337    468.337   1986.036    468.337    728.601    468.337
115.170   2510.790   2497.533     13.257    468.418   2251.267    468.418    714.270    468.418
115.270   2854.262   2777.400     76.861    468.503   2546.622    468.503    698.815    468.503
115.370   3037.000   3085.338    -48.338    468.593   2870.752    468.593    682.661    468.593
115.470   3399.000   3419.123    -20.123    468.688   3221.056    468.688    666.189    468.688
115.570   3743.316   3775.127    -31.811    468.788   3593.572    468.788    649.734    468.788
115.670   4113.000   4148.268    -35.268    468.893   3982.937    468.893    633.580    468.893
115.770   4438.837   4532.021    -93.184    469.004   4382.391    469.004    617.963    469.004
115.870   5029.474   4918.495    110.979    469.120   4783.855    469.120    603.073    469.120
115.970   5267.000   5298.576    -31.576    469.241   5178.074    469.241    589.056    469.241
116.070   5724.000   5662.149     61.851    469.367   5554.829    469.367    576.015    469.367
116.170   5991.000   5998.402     -7.402    469.499   5903.243    469.499    564.019    469.499
116.270   6360.704   6296.245     64.460    469.636   6212.192    469.636    553.099    469.636
116.370   6573.000   6544.863     28.137    469.778   6470.857    469.778    543.261    469.778
116.470   6768.922   6734.414     34.507    469.927   6669.418    469.927    534.483    469.927
116.570   6876.000   6856.829     19.171    470.080   6799.842    470.080    526.723    470.080
116.670   6785.000   6906.602   -121.602    470.240   6856.678    470.240    519.924    470.240
116.770   6865.000   6881.405    -16.405    470.405   6837.664    470.405    514.017    470.405
116.870   6934.000   6782.359    151.641    470.576   6743.990    470.576    508.925    470.576
116.970   6716.833   6613.878    102.955    470.753   6580.145    470.753    504.570    470.753
117.070   6456.000   6383.137     72.863    470.935   6353.381    470.935    500.869    470.935
117.170   6024.000   6099.322    -75.322    471.124   6072.960    471.124    497.744    471.124
117.270   5660.667   5772.816   -112.149    471.318   5749.337    471.318    495.121    471.318
117.370   5407.695   5414.474     -6.779    471.518   5393.438    471.518    492.930    471.518
117.470   4893.000   5035.050   -142.050    471.725   5016.076    471.725    491.107    471.725
117.570   4609.000   4644.777    -35.777    471.937   4627.546    471.937    489.597    471.937
117.670   4212.000   4252.952    -40.952    472.156   4237.192    472.156    488.350    472.156
117.770   3761.423   3867.770   -106.348    472.381   3853.256    472.381    487.323    472.381
117.870   3381.936   3496.163   -114.226    472.613   3482.706    472.613    486.480    472.613
117.970   3170.337   3143.708     26.629    472.850   3131.155    472.850    485.789    472.850
118.070   2936.000   2814.624    121.376    473.094   2802.847    473.094    485.224    473.094
118.170   2480.000   2511.811    -31.811    473.345   2500.709    473.345    484.766    473.345
118.270   2206.000   2236.956    -30.956    473.602   2226.443    473.602    484.396    473.602
118.370   2002.000   1990.664     11.336    473.865   1980.673    473.865    484.101    473.865
118.470   1811.000   1772.622     38.378    474.135   1763.096    474.135    483.868    474.135
118.570   1559.000   1581.767    -22.767    474.412   1572.662    474.412    483.691    474.412
118.670   1413.000   1416.468     -3.468    474.696   1407.746    474.696    483.560    474.696
118.770   1299.053   1274.691     24.363    474.986   1266.320    474.986    483.470    474.986
118.870   1095.573   1154.157    -58.584    475.284   1146.112    475.284    483.418    475.284
118.970    986.000   1052.484    -66.484    475.588   1044.741    475.588    483.399    475.588
119.070    982.000    967.298     14.702    475.899    959.837    475.899    483.411    475.899
119.170    917.656    896.324     21.332    476.217    889.128    476.217    483.451    476.217
119.270    889.736    837.454     52.282    476.542    830.505    476.542    483.518    476.542
119.370    806.000    788.779     17.221    476.875    782.063    476.875    483.610    476.875
119.470    742.000    748.619     -6.619    477.214    742.120    477.214    483.726    477.214
119.570    721.000    715.519      5.481    477.561    709.224    477.561    483.865    477.561
119.670    651.495    688.245    -36.749    477.915    682.138    477.915    484.028    477.915
119.770    615.000    665.764    -50.764    478.277    659.832    478.277    484.212    478.277
119.870    673.000    647.225     25.775    478.646    641.454    478.646    484.419    478.646
119.970    609.810    631.934    -22.124    479.022    626.311    479.022    484.648    479.022
120.070    638.000    619.334     18.666    479.406    613.843    479.406    484.900    479.406
120.170    596.000    608.977    -12.977    479.798    603.604    479.798    485.174    479.798
120.270    634.904    600.508     34.395    480.197    595.239    480.197    485.470    480.197
120.370    550.144    593.648    -43.505    480.605    588.466    480.605    485.790    480.605
120.470    573.000    588.177    -15.177    481.019    583.067    481.019    486.133    481.019
120.570    617.950    583.922     34.028    481.442    578.868    481.442    486.501    481.442
120.670    568.000    580.749    -12.749    481.873    575.734    481.873    486.894    481.873
120.770    569.000    578.553     -9.553    482.312    573.559    482.312    487.311    482.312
120.870    572.000    577.249     -5.249    482.758    572.259    482.758    487.755    482.758
120.970    605.450    576.771     28.679    483.213    571.766    483.213    488.226    483.213
121.070    547.294    577.061    -29.767    483.676    572.023    483.676    488.723    483.676
121.170    554.000    578.070    -24.070    484.148    572.980    484.148    489.247    484.148
121.270    558.000    579.750    -21.750    484.627    574.589    484.627    489.799    484.627
121.370    574.000    582.054     -8.054    485.115    576.804    485.115    490.378    485.115
121.470    589.000    584.931      4.069    485.612    579.573    485.612    490.984    485.612
121.570    628.145    588.325     39.821    486.116    582.842    486.116    491.616    486.116
121.670    597.000    592.173      4.827    486.630    586.548    486.630    492.273    486.630
121.770    604.000    596.404      7.596    487.152    590.623    487.152    492.955    487.152
121.870    637.000    600.939     36.061    487.683    594.987    487.683    493.658    487.683
121.970    560.495    605.687    -45.192    488.222    599.553    488.222    494.383    488.222
122.070    656.000    610.553     45.447    488.771    604.228    488.771    495.125    488.771
122.170    619.000    615.431      3.569    489.328    608.908    489.328    495.882    489.328
122.270    642.000    620.208     21.792    489.894    613.486    489.894    496.651    489.894
122.370    679.000    624.770     54.230    490.469    617.849    490.469    497.428    490.469
122.470    684.000    629.001     54.999    491.054    621.886    491.054    498.208    491.054
122.570    651.000    632.788     18.212    491.647    625.490    491.647    498.988    491.647
122.670    609.000    636.029    -27.029    492.250    628.563    492.250    499.761    492.250
122.770    633.208    638.636     -5.427    492.862    631.021    492.862    500.523    492.862
122.870    612.000    640.541    -28.541    493.483    632.803    493.483    501.269    493.483
122.970    651.000    641.703      9.297    494.114    633.872    494.114    501.993    494.114
123.070    645.000    642.108      2.892    494.754    634.220    494.754    502.691    494.754
123.170    655.000    641.771     13.229    495.404    633.863    495.404    503.360    495.404
123.270    664.865    640.729     24.136    496.064    632.842    496.064    503.998    496.064
123.370    606.000    639.041    -33.041    496.733    631.217    496.733    504.603    496.733
123.470    630.000    636.780     -6.780    497.412    629.061    497.412    505.176    497.412
123.570    681.000    634.029     46.971    498.100    626.453    498.100    505.719    498.100
123.670    653.000    630.875     22.125    498.799    623.478    498.799    506.236    498.799
123.770    627.000    627.405     -0.405    499.508    620.219    499.508    506.731    499.508
123.870    623.136    623.706     -0.570    500.227    616.758    500.227    507.209    500.227
123.970    663.000    619.857     43.143    500.955    613.169    500.955    507.675    500.955
124.070    602.000    615.930    -13.930    501.694    609.519    501.694    508.134    501.694
124.170    567.251    611.988    -44.737    502.444    605.866    502.444    508.591    502.444
124.270    668.000    608.083     59.917    503.203    602.257    503.203    509.052    503.203
124.370    624.000    604.256     19.744    503.973    598.729    503.973    509.519    503.973
124.470    561.000    600.536    -39.536    504.754    595.309    504.754    509.998    504.754
124.570    614.000    596.944     17.056    505.545    592.012    505.545    510.491    505.545
124.670    614.109    593.489     20.620    506.347    588.846    506.347    511.001    506.347
124.770    588.245    590.175     -1.930    507.159    585.813    507.159    511.532    507.159
124.870    598.000    587.001     10.999    507.982    582.907    507.982    512.084    507.982
124.970    551.756    583.960    -32.204    508.816    580.123    508.816    512.660    508.816
