neutron_powder_diffraction_0215
R_wp: 4.049
Temperature (K): 1074.000
Counts: 83812.00
Wavelength (Ã…): 2.52098
COMMENTS
Test file for demonstrating the .xyy file format in Reel1.0
END OF HEADER
   tth       Y_obs     Y_calc      Y_res    Background    Phase_1_Nuc    Phase_1_Mag    Phase_2_Nuc    Phase_2_Mag
  9.970    583.449    576.354      7.095    575.714    576.296    575.714    575.771    575.714
 10.070    601.000    576.398     24.602    575.706    576.340    575.706    575.764    575.706
 10.170    598.000    576.445     21.555    575.693    576.387    575.693    575.751    575.693
 10.270    616.893    576.497     40.396    575.676    576.438    575.676    575.734    575.676
 10.370    578.000    576.555      1.445    575.653    576.496    575.653    575.712    575.653
 10.470    576.478    576.623     -0.145    575.627    576.563    575.627    575.686    575.627
 10.570    575.000    576.706     -1.706    575.595    576.642    575.595    575.658    575.595
 10.670    599.000    576.806     22.194    575.559    576.740    575.559    575.624    575.559
 10.770    549.000    576.942    -27.942    575.518    576.876    575.518    575.583    575.518
 10.870    622.000    577.096     44.904    575.473    577.030    575.473    575.539    575.473
 10.970    571.791    577.290     -5.500    575.424    577.223    575.424    575.490    575.424
 11.070    584.000    577.543      6.457    575.370    577.476    575.370    575.437    575.370
 11.170    591.000    577.879     13.121    575.312    577.810    575.312    575.379    575.312
 11.270    603.000    578.333     24.667    575.249    578.265    575.249    575.316    575.249
 11.370    584.144    578.970      5.174    575.183    578.901    575.183    575.250    575.183
 11.470    542.134    579.925    -37.791    575.112    579.854    575.112    575.179    575.112
 11.570    594.000    581.579     12.421    575.037    581.508    575.037    575.105    575.037
 11.670    562.512    585.040    -22.528    574.957    584.966    574.957    575.026    574.957
 11.770    560.353    592.937    -32.584    574.874    592.858    574.874    574.943    574.874
 11.870    661.000    609.606     51.394    574.787    609.517    574.787    574.856    574.787
 11.970    644.000    638.526      5.474    574.695    638.421    574.695    574.765    574.695
 12.070    676.000    676.049     -0.049    574.600    675.922    574.600    574.670    574.600
 12.170    676.000    705.664    -29.664    574.501    705.520    574.501    574.571    574.501
 12.270    683.000    706.532    -23.532    574.398    706.388    574.398    574.468    574.398
 12.370    710.563    677.774     32.789    574.291    677.646    574.291    574.362    574.291
 12.470    654.000    639.865     14.135    574.181    639.757    574.181    574.252    574.181
 12.570    651.581    610.064     41.516    574.066    609.973    574.066    574.138    574.066
 12.670    576.539    592.604    -16.066    573.948    592.522    573.948    574.020    573.948
 12.770    601.706    584.178     17.528    573.827    584.100    573.827    573.899    573.827
 12.870    595.000    580.378     14.622    573.702    580.302    573.702    573.774    573.702
 12.970    543.000    578.470    -35.470    573.573    578.395    573.573    573.645    573.573
 13.070    550.000    577.293    -27.293    573.441    577.217    573.441    573.514    573.441
 13.170    572.520    576.444     -3.924    573.305    576.369    573.305    573.378    573.305
 13.270    615.464    575.783     39.682    573.166    575.707    573.166    573.240    573.166
 13.370    598.000    575.245     22.755    573.023    575.168    573.023    573.099    573.023
 13.470    547.000    574.791    -27.791    572.877    574.714    572.877    572.953    572.877
 13.570    595.416    574.399     21.018    572.728    574.321    572.728    572.805    572.728
 13.670    576.000    574.050      1.950    572.575    573.972    572.575    572.653    572.575
 13.770    581.000    573.735      7.265    572.420    573.657    572.420    572.497    572.420
 13.870    534.168    573.444    -39.276    572.261    573.365    572.261    572.339    572.261
 13.970    539.024    573.172    -34.147    572.099    573.093    572.099    572.177    572.099
 14.070    575.085    572.914      2.170    571.934    572.835    571.934    572.012    571.934
 14.170    535.189    572.667    -37.479    571.765    572.588    571.765    571.844    571.765
 14.270    600.229    572.429     27.801    571.594    572.349    571.594    571.674    571.594
 14.370    571.312    572.196     -0.885    571.420    572.116    571.420    571.500    571.420
 14.470    581.000    571.969      9.031    571.243    571.888    571.243    571.323    571.243
 14.570    544.201    571.745    -27.544    571.063    571.664    571.063    571.143    571.063
 14.670    555.175    571.524    -16.348    570.880    571.442    570.880    570.961    570.880
 14.770    588.488    571.304     17.184    570.694    571.222    570.694    570.775    570.694
 14.870    614.049    571.086     42.963    570.505    571.003    570.505    570.587    570.505
 14.970    571.000    570.868      0.132    570.314    570.785    570.314    570.396    570.314
 15.070    540.308    570.650    -30.342    570.120    570.567    570.120    570.203    570.120
 15.170    594.770    570.433     24.337    569.923    570.349    569.923    570.006    569.923
 15.270    571.804    570.215      1.590    569.723    570.131    569.723    569.807    569.723
 15.370    523.000    569.996    -46.996    569.521    569.912    569.521    569.606    569.521
 15.470    535.000    569.780    -34.780    569.317    569.694    569.317    569.402    569.317
 15.570    610.049    569.560     40.489    569.110    569.475    569.110    569.195    569.110
 15.670    528.085    569.339    -41.254    568.900    569.253    568.900    568.986    568.900
 15.770    534.000    569.116    -35.116    568.688    569.030    568.688    568.774    568.688
 15.870    568.022    568.892     -0.870    568.473    568.805    568.473    568.560    568.473
 15.970    536.000    568.666    -32.666    568.256    568.579    568.256    568.344    568.256
 16.070    525.047    568.440    -43.393    568.037    568.351    568.037    568.125    568.037
 16.170    562.000    568.216     -6.216    567.815    568.122    567.815    567.909    567.815
 16.270    595.000    567.988     27.012    567.591    567.891    567.591    567.688    567.591
 16.370    561.681    567.756     -6.075    567.365    567.659    567.365    567.462    567.365
 16.470    526.775    567.523    -40.748    567.137    567.425    567.137    567.234    567.137
 16.570    582.000    567.288     14.712    566.906    567.190    566.906    567.005    566.906
 16.670    567.000    567.052     -0.052    566.674    566.953    566.674    566.772    566.674
 16.770    562.102    566.814     -4.712    566.439    566.714    566.439    566.538    566.439
 16.870    606.000    566.574     39.426    566.202    566.474    566.202    566.302    566.202
 16.970    544.573    566.333    -21.760    565.963    566.232    565.963    566.064    565.963
 17.070    544.000    566.090    -22.090    565.722    565.989    565.722    565.823    565.722
 17.170    569.000    565.845      3.155    565.479    565.743    565.479    565.581    565.479
 17.270    573.000    565.599      7.401    565.234    565.497    565.234    565.337    565.234
 17.370    574.000    565.352      8.648    564.988    565.248    564.988    565.091    564.988
 17.470    546.000    565.103    -19.103    564.739    564.999    564.739    564.843    564.739
 17.570    537.000    564.853    -27.853    564.488    564.748    564.488    564.593    564.488
 17.670    547.000    564.602    -17.602    564.236    564.497    564.236    564.341    564.236
 17.770    498.000    564.349    -66.349    563.982    564.243    563.982    564.088    563.982
 17.870    584.029    564.093     19.936    563.726    563.987    563.726    563.833    563.726
 17.970    520.000    563.837    -43.837    563.469    563.729    563.469    563.576    563.469
 18.070    549.000    563.579    -14.579    563.210    563.471    563.210    563.318    563.210
 18.170    551.000    563.320    -12.320    562.949    563.211    562.949    563.058    562.949
 18.270    575.000    563.061     11.939    562.686    562.952    562.686    562.796    562.686
 18.370    558.958    562.800     -3.842    562.422    562.689    562.422    562.533    562.422
 18.470    556.803    562.536     -5.733    562.156    562.425    562.156    562.268    562.156
 18.570    574.000    562.272     11.728    561.889    562.160    561.889    562.001    561.889
 18.670    605.582    562.006     43.576    561.621    561.893    561.621    561.734    561.621
 18.770    559.000    561.739     -2.739    561.351    561.625    561.351    561.464    561.351
 18.870    551.698    561.471     -9.773    561.079    561.356    561.079    561.194    561.079
 18.970    527.080    561.201    -34.121    560.806    561.086    560.806    560.922    560.806
 19.070    561.000    560.931      0.069    560.532    560.815    560.532    560.648    560.532
 19.170    605.952    560.659     45.293    560.256    560.542    560.256    560.373    560.256
 19.270    523.000    560.387    -37.387    559.979    560.269    559.979    560.097    559.979
 19.370    582.183    560.113     22.070    559.701    559.994    559.701    559.820    559.701
 19.470    529.000    559.839    -30.839    559.421    559.719    559.421    559.542    559.421
 19.570    512.869    559.564    -46.695    559.141    559.443    559.141    559.262    559.141
 19.670    582.000    559.289     22.711    558.859    559.167    558.859    558.981    558.859
 19.770    530.000    559.013    -29.013    558.576    558.890    558.576    558.699    558.576
 19.870    557.000    558.735     -1.735    558.291    558.611    558.291    558.416    558.291
 19.970    609.000    558.457     50.543    558.006    558.331    558.006    558.131    558.006
 20.070    533.000    558.178    -25.178    557.720    558.051    557.720    557.846    557.720
 20.170    530.066    557.898    -27.832    557.432    557.770    557.432    557.560    557.432
 20.270    556.819    557.617     -0.799    557.144    557.488    557.144    557.273    557.144
 20.370    575.833    557.336     18.496    556.854    557.206    556.854    556.984    556.854
 20.470    562.000    557.055      4.945    556.564    556.923    556.564    556.695    556.564
 20.570    523.000    556.773    -33.773    556.272    556.640    556.272    556.405    556.272
 20.670    570.000    556.491     13.509    555.980    556.357    555.980    556.114    555.980
 20.770    584.659    556.212     28.447    555.687    556.074    555.687    555.824    555.687
 20.870    545.000    555.943    -10.943    555.393    555.803    555.393    555.533    555.393
 20.970    510.000    555.670    -45.670    555.098    555.528    555.098    555.239    555.098
 21.070    578.000    555.388     22.612    554.802    555.245    554.802    554.945    554.802
 21.170    569.700    555.105     14.594    554.505    554.961    554.505    554.650    554.505
 21.270    579.000    554.823     24.177    554.208    554.677    554.208    554.354    554.208
 21.370    562.000    554.541      7.459    553.910    554.393    553.910    554.058    553.910
 21.470    530.879    554.259    -23.380    553.611    554.110    553.611    553.761    553.611
 21.570    568.460    553.978     14.482    553.312    553.827    553.312    553.463    553.312
 21.670    556.000    553.698      2.302    553.012    553.545    553.012    553.165    553.012
 21.770    524.000    553.418    -29.418    552.711    553.264    552.711    552.866    552.711
 21.870    539.100    553.140    -14.040    552.410    552.984    552.410    552.566    552.410
 21.970    589.644    552.863     36.782    552.108    552.705    552.108    552.266    552.108
 22.070    579.590    552.587     27.002    551.806    552.428    551.806    551.966    551.806
 22.170    556.000    552.314      3.686    551.503    552.152    551.503    551.665    551.503
 22.270    579.710    552.043     27.667    551.200    551.879    551.200    551.364    551.200
 22.370    585.718    551.782     33.936    550.896    551.616    550.896    551.062    550.896
 22.470    580.040    551.595     28.445    550.591    551.426    550.591    550.760    550.591
 22.570    532.000    551.354    -19.354    550.287    551.183    550.287    550.457    550.287
 22.670    558.000    551.099      6.901    549.982    550.926    549.982    550.155    549.982
 22.770    536.000    550.848    -14.848    549.676    550.673    549.676    549.851    549.676
 22.870    550.000    550.607     -0.607    549.370    550.429    549.370    549.548    549.370
 22.970    533.000    550.391    -17.391    549.064    550.210    549.064    549.244    549.064
 23.070    559.000    550.191      8.809    548.757    550.008    548.757    548.941    548.757
 23.170    550.000    549.982      0.018    548.450    549.797    548.450    548.637    548.450
 23.270    547.182    549.791     -2.609    548.143    549.603    548.143    548.333    548.143
 23.370    550.000    549.659      0.341    547.836    549.468    547.836    548.028    547.836
 23.470    563.000    549.531     13.469    547.528    549.336    547.528    547.724    547.528
 23.570    616.000    549.424     66.576    547.221    549.226    547.221    547.419    547.221
 23.670    585.000    549.361     35.639    546.913    549.159    546.913    547.115    546.913
 23.770    542.000    549.362     -7.362    546.605    549.157    546.605    546.811    546.605
 23.870    563.993    549.457     14.537    546.296    549.248    546.296    546.506    546.296
 23.970    567.000    549.696     17.304    545.988    549.484    545.988    546.202    545.988
 24.070    550.179    550.199     -0.019    545.680    549.983    545.680    545.898    545.680
 24.170    577.000    551.308     25.692    545.371    551.089    545.371    545.594    545.371
 24.270    526.525    553.960    -27.434    545.062    553.738    545.062    545.290    545.062
 24.370    553.000    560.159     -7.159    544.754    559.937    544.754    544.986    544.754
 24.470    618.000    572.754     45.246    544.445    572.536    544.445    544.682    544.445
 24.570    554.000    593.235    -39.235    544.137    593.026    544.137    544.379    544.137
 24.670    641.000    617.623     23.377    543.828    617.427    543.828    544.076    543.828
 24.770    598.000    633.828    -35.828    543.520    633.637    543.520    543.774    543.520
 24.870    631.000    629.832      1.168    543.211    629.633    543.211    543.472    543.211
 24.970    583.000    608.905    -25.905    542.903    608.684    542.903    543.170    542.903
 25.070    620.325    584.520     35.804    542.595    584.275    542.595    542.869    542.595
 25.170    545.000    566.055    -21.055    542.287    565.789    542.287    542.569    542.287
 25.270    589.000    555.268     33.732    541.979    554.986    541.979    542.269    541.979
 25.370    527.000    549.918    -22.918    541.671    549.624    541.671    541.970    541.671
 25.470    585.000    547.357     37.643    541.364    547.052    541.364    541.671    541.364
 25.570    530.000    545.969    -15.969    541.057    545.654    541.057    541.374    541.057
 25.670    557.000    545.056     11.944    540.750    544.730    540.750    541.077    540.750
 25.770    521.000    544.374    -23.374    540.443    544.037    540.443    540.782    540.443
 25.870    586.000    543.836     42.164    540.136    543.486    540.136    540.487    540.136
 25.970    567.000    543.380     23.620    539.830    543.016    539.830    540.194    539.830
 26.070    541.000    543.007     -2.007    539.524    542.629    539.524    539.902    539.524
 26.170    550.961    542.688      8.274    539.219    542.295    539.219    539.612    539.219
 26.270    551.000    542.403      8.597    538.913    541.993    538.913    539.323    538.913
 26.370    535.000    542.162     -7.162    538.608    541.734    538.608    539.036    538.608
 26.470    546.000    541.966      4.034    538.304    541.519    538.304    538.751    538.304
 26.570    556.922    541.816     15.106    538.000    541.347    538.000    538.468    538.000
 26.670    545.318    541.713      3.604    537.696    541.221    537.696    538.188    537.696
 26.770    568.000    541.667     26.333    537.393    541.149    537.393    537.911    537.393
 26.870    540.036    541.683     -1.647    537.090    541.137    537.090    537.636    537.090
 26.970    598.000    541.778     56.222    536.788    541.200    536.788    537.365    536.788
 27.070    534.000    541.974     -7.974    536.486    541.361    536.486    537.099    536.486
 27.170    573.000    542.303     30.697    536.185    541.651    536.185    536.836    536.185
 27.270    538.939    542.832     -3.893    535.884    542.135    535.884    536.579    535.884
 27.370    598.000    543.603     54.397    535.584    542.857    535.584    536.328    535.584
 27.470    582.288    544.725     37.563    535.284    543.923    535.284    536.085    535.284
 27.570    538.953    546.540     -7.587    534.985    545.674    534.985    535.849    534.985
 27.670    595.584    550.269     45.315    534.686    549.328    534.686    535.623    534.686
 27.770    587.000    560.378     26.622    534.388    559.350    534.388    535.409    534.388
 27.870    599.185    589.054     10.131    534.091    587.919    534.091    535.210    534.091
 27.970    687.817    656.692     31.124    533.794    655.420    533.794    535.027    533.794
 28.070    793.000    773.952     19.048    533.498    772.511    533.498    534.865    533.498
 28.170    912.066    907.357      4.709    533.203    905.725    533.203    534.729    533.203
 28.270    982.000    973.130      8.870    532.908    971.307    532.908    534.627    532.908
 28.370    868.353    916.223    -47.869    532.614    914.205    532.614    534.567    532.614
 28.470    788.397    794.476     -6.080    532.321    792.207    532.321    534.564    532.321
 28.570    708.000    701.160      6.840    532.028    698.536    532.028    534.642    532.028
 28.670    718.808    683.612     35.196    531.736    680.494    531.736    534.839    531.736
 28.770    734.000    735.462     -1.462    531.445    731.665    531.445    535.221    531.445
 28.870    753.000    812.329    -59.329    531.155    807.570    531.155    535.898    531.155
 28.970    828.330    849.017    -20.687    530.865    842.847    530.865    537.035    530.865
 29.070    773.000    807.478    -34.478    530.576    799.213    530.576    538.852    530.576
 29.170    679.000    721.896    -42.896    530.288    710.605    530.288    541.591    530.288
 29.270    641.000    644.868     -3.868    530.001    629.437    530.001    545.439    530.001
 29.370    597.000    599.416     -2.416    529.715    578.750    529.715    550.383    529.715
 29.470    603.000    581.109     21.891    529.430    554.604    529.430    555.933    529.430
 29.570    575.863    576.394     -0.531    529.145    544.780    529.145    560.755    529.145
 29.670    603.000    574.570     28.430    528.861    540.625    528.861    562.803    528.861
 29.770    582.000    570.678     11.322    528.578    538.413    528.578    560.840    528.578
 29.870    608.000    564.468     43.532    528.297    536.957    528.297    555.804    528.297
 29.970    545.000    557.628    -12.628    528.016    535.924    528.016    549.717    528.016
 30.070    571.000    551.531     19.469    527.736    535.206    527.736    544.058    527.736
 30.170    602.000    546.769     55.231    527.456    534.781    527.456    539.442    527.456
 30.270    556.000    543.517     12.483    527.178    534.744    527.178    535.949    527.178
 30.370    521.000    542.020    -21.020    526.901    535.500    526.901    533.418    526.901
 30.470    597.000    543.198     53.802    526.625    538.208    526.625    531.609    526.625
 30.570    540.439    549.140     -8.701    526.350    545.181    526.350    530.297    526.350
 30.670    565.535    562.418      3.117    526.075    559.166    526.075    529.305    526.075
 30.770    581.000    583.136     -2.136    525.802    580.384    525.802    528.517    525.802
 30.870    622.000    604.991     17.009    525.530    602.611    525.530    527.857    525.530
 30.970    614.000    615.024     -1.024    525.259    612.941    525.259    527.284    525.259
 31.070    649.000    604.679     44.321    524.989    602.848    524.989    526.773    524.989
 31.170    605.000    581.886     23.114    524.720    580.270    524.720    526.306    524.720
 31.270    532.838    559.600    -26.762    524.452    558.161    524.452    525.875    524.452
 31.370    570.000    544.392     25.608    524.185    543.098    524.185    525.471    524.185
 31.470    569.000    536.277     32.723    523.919    535.102    523.919    525.090    523.919
 31.570    543.000    532.550     10.450    523.654    531.475    523.654    524.727    523.654
 31.670    506.948    530.838    -23.889    523.391    529.847    523.391    524.379    523.391
 31.770    518.083    529.908    -11.825    523.128    528.990    523.128    524.044    523.128
 31.870    529.000    529.295     -0.295    522.867    528.442    522.867    523.719    522.867
 31.970    558.469    528.854     29.615    522.607    528.056    522.607    523.404    522.607
 32.070    558.582    528.535     30.047    522.348    527.786    522.348    523.096    522.348
 32.170    516.914    528.318    -11.404    522.090    527.611    522.090    522.795    522.090
 32.270    553.000    528.195     24.805    521.833    527.527    521.833    522.501    521.833
 32.370    541.552    528.169     13.384    521.578    527.534    521.578    522.211    521.578
 32.470    541.000    528.245     12.755    521.323    527.640    521.323    521.927    521.323
 32.570    537.000    528.438      8.562    521.070    527.860    521.070    521.647    521.070
 32.670    539.267    528.771     10.495    520.818    528.218    520.818    521.371    520.818
 32.770    548.623    529.279     19.343    520.568    528.748    520.568    521.098    520.568
 32.870    588.000    530.007     57.993    520.318    529.496    520.318    520.829    520.318
 32.970    532.000    531.026      0.974    520.070    530.532    520.070    520.563    520.070
 33.070    550.000    532.447     17.553    519.823    531.969    519.823    520.300    519.823
 33.170    565.000    534.467     30.533    519.577    534.003    519.577    520.039    519.577
 33.270    542.000    537.535      4.465    519.333    537.084    519.333    519.782    519.333
 33.370    532.716    542.929    -10.212    519.090    542.489    519.090    519.526    519.090
 33.470    529.000    554.227    -25.227    518.848    553.796    518.848    519.273    518.848
 33.570    624.000    579.744     44.256    518.607    579.319    518.607    519.023    518.607
 33.670    591.163    633.536    -42.374    518.368    633.110    518.368    518.774    518.368
 33.770    699.000    729.418    -30.418    518.130    728.984    518.130    518.528    518.130
 33.870    863.406    864.828     -1.422    517.893    864.382    517.893    518.283    517.893
 33.970   1001.044   1002.309     -1.265    517.658   1001.860    517.658    518.041    517.658
 34.070   1075.000   1069.997      5.003    517.424   1069.563    517.424    517.800    517.424
 34.170   1068.142   1019.150     48.992    517.191   1018.750    517.191    517.561    517.191
 34.270    924.451    887.950     36.501    516.960    887.582    516.960    517.325    516.960
 34.370    755.000    748.751      6.249    516.730    748.400    516.730    517.090    516.730
 34.470    595.000    645.176    -50.176    516.501    644.830    516.501    516.857    516.501
 34.570    552.102    584.530    -32.428    516.274    584.185    516.274    516.625    516.274
 34.670    592.000    554.626     37.374    516.048    554.282    516.048    516.395    516.048
 34.770    546.000    540.971      5.029    515.824    540.628    515.824    516.167    515.824
 34.870    502.401    534.311    -31.910    515.601    533.970    515.601    515.941    515.601
 34.970    499.075    530.420    -31.345    515.379    530.082    515.379    515.717    515.379
 35.070    499.928    527.734    -27.806    515.159    527.398    515.159    515.494    515.159
 35.170    507.000    525.699    -18.699    514.940    525.366    514.940    515.273    514.940
 35.270    560.000    524.089     35.911    514.722    523.758    514.722    515.053    514.722
 35.370    454.000    522.780    -68.780    514.506    522.451    514.506    514.835    514.506
 35.470    571.000    521.693     49.307    514.292    521.366    514.292    514.619    514.292
 35.570    473.000    520.774    -47.774    514.078    520.448    514.078    514.404    514.078
 35.670    522.000    519.986      2.014    513.867    519.661    513.867    514.191    513.867
 35.770    511.000    519.299     -8.299    513.656    518.975    513.656    513.980    513.656
 35.870    516.000    518.695     -2.695    513.447    518.372    513.447    513.770    513.447
 35.970    516.000    518.157     -2.157    513.240    517.834    513.240    513.562    513.240
 36.070    549.632    517.674     31.958    513.034    517.352    513.034    513.356    513.034
 36.170    531.000    517.238     13.762    512.829    516.917    512.829    513.151    512.829
 36.270    483.000    516.843    -33.843    512.626    516.522    512.626    512.947    512.626
 36.370    488.000    516.484    -28.484    512.425    516.163    512.425    512.746    512.425
 36.470    508.000    516.159     -8.159    512.225    515.838    512.225    512.546    512.225
 36.570    507.000    515.866     -8.866    512.026    515.545    512.026    512.347    512.026
 36.670    482.460    515.608    -33.148    511.829    515.286    511.829    512.150    511.829
 36.770    503.000    515.388    -12.388    511.633    515.066    511.633    511.955    511.633
 36.870    486.000    515.226    -29.226    511.439    514.903    511.439    511.762    511.439
 36.970    507.000    515.167     -8.167    511.246    514.844    511.246    511.570    511.246
 37.070    522.000    515.329      6.671    511.055    515.005    511.055    511.379    511.055
 37.170    535.785    515.946     19.839    510.866    515.621    510.866    511.191    510.866
 37.270    539.000    517.360     21.640    510.678    517.035    510.678    511.004    510.678
 37.370    512.000    519.872     -7.872    510.491    519.546    510.491    510.818    510.491
 37.470    546.112    523.408     22.704    510.306    523.081    510.306    510.634    510.306
 37.570    509.000    527.155    -18.155    510.122    526.828    510.122    510.452    510.122
 37.670    570.102    529.521     40.580    509.940    529.194    509.940    510.271    509.940
 37.770    566.887    529.173     37.714    509.760    528.846    509.760    510.092    509.760
 37.870    538.226    526.455     11.771    509.581    526.129    509.581    509.915    509.581
 37.970    504.236    522.826    -18.590    509.403    522.500    509.403    509.739    509.403
 38.070    522.000    519.414      2.586    509.227    519.087    509.227    509.565    509.227
 38.170    501.000    516.653    -15.653    509.053    516.323    509.053    509.393    509.053
 38.270    556.000    514.626     41.374    508.880    514.291    508.880    509.222    508.880
 38.370    507.000    513.242     -6.242    508.709    512.902    508.709    509.053    508.709
 38.470    509.280    512.336     -3.057    508.539    511.993    508.539    508.886    508.539
 38.570    510.000    511.746     -1.746    508.371    511.399    508.371    508.720    508.371
 38.670    523.000    511.345     11.655    508.205    510.995    508.205    508.556    508.205
 38.770    493.591    511.046    -17.455    508.040    510.693    508.040    508.393    508.040
 38.870    526.312    510.801     15.511    507.876    510.445    507.876    508.232    507.876
 38.970    537.000    510.586     26.414    507.714    510.227    507.714    508.073    507.714
 39.070    480.611    510.389    -29.778    507.554    510.027    507.554    507.916    507.554
 39.170    479.386    510.206    -30.820    507.395    509.842    507.395    507.760    507.395
 39.270    483.308    510.035    -26.726    507.238    509.667    507.238    507.606    507.238
 39.370    492.000    509.873    -17.873    507.082    509.502    507.082    507.453    507.082
 39.470    499.000    509.720    -10.720    506.928    509.345    506.928    507.303    506.928
 39.570    543.000    509.574     33.426    506.776    509.197    506.776    507.153    506.776
 39.670    524.941    509.437     15.504    506.625    509.055    506.625    507.006    506.625
 39.770    510.000    509.306      0.694    506.476    508.921    506.476    506.860    506.476
 39.870    538.673    509.183     29.490    506.328    508.794    506.328    506.716    506.328
 39.970    550.991    509.066     41.924    506.182    508.674    506.182    506.574    506.182
 40.070    493.000    508.958    -15.958    506.037    508.561    506.037    506.434    506.037
 40.170    529.461    508.857     20.604    505.894    508.456    505.894    506.295    505.894
 40.270    482.000    508.764    -26.764    505.753    508.359    505.753    506.158    505.753
 40.370    531.000    508.680     22.320    505.613    508.271    505.613    506.022    505.613
 40.470    461.000    508.607    -47.607    505.475    508.193    505.475    505.889    505.475
 40.570    479.000    508.544    -29.544    505.338    508.125    505.338    505.757    505.338
 40.670    512.000    508.493      3.507    505.203    508.070    505.203    505.626    505.203
 40.770    520.000    508.458     11.542    505.069    508.029    505.069    505.498    505.069
 40.870    457.000    508.438    -51.438    504.938    508.005    504.938    505.371    504.938
 40.970    491.000    508.439    -17.439    504.807    508.000    504.807    505.246    504.807
 41.070    476.000    508.464    -32.464    504.679    508.020    504.679    505.123    504.679
 41.170    469.004    508.518    -39.514    504.551    508.068    504.551    505.002    504.551
 41.270    515.000    508.608      6.392    504.426    508.153    504.426    504.882    504.426
 41.370    470.000    508.745    -38.745    504.302    508.283    504.302    504.764    504.302
 41.470    488.000    508.942    -20.942    504.180    508.474    504.180    504.648    504.180
 41.570    513.000    509.220      3.780    504.059    508.746    504.059    504.534    504.059
 41.670    490.259    509.618    -19.360    503.940    509.138    503.940    504.421    503.940
 41.770    487.923    510.222    -22.298    503.822    509.735    503.822    504.311    503.822
 41.870    503.000    511.244     -8.244    503.706    510.750    503.706    504.202    503.706
 41.970    481.000    513.201    -32.201    503.592    512.701    503.592    504.095    503.592
 42.070    530.000    517.178     12.822    503.479    516.672    503.479    503.990    503.479
 42.170    496.000    524.996    -28.996    503.368    524.486    503.368    503.887    503.368
 42.270    515.717    538.855    -23.138    503.258    538.343    503.258    503.785    503.258
 42.370    516.000    560.036    -44.036    503.150    559.525    503.150    503.686    503.150
 42.470    589.085    586.873      2.213    503.043    586.366    503.043    503.588    503.043
 42.570    637.613    613.007     24.606    502.939    612.506    502.939    503.492    502.939
 42.670    608.000    628.018    -20.018    502.835    627.518    502.835    503.399    502.835
 42.770    594.000    623.946    -29.946    502.733    623.437    502.733    503.307    502.733
 42.870    567.000    603.215    -36.215    502.633    602.688    502.633    503.217    502.633
 42.970    528.192    575.753    -47.561    502.535    575.201    502.535    503.129    502.535
 43.070    503.000    550.621    -47.621    502.438    550.044    502.438    503.043    502.438
 43.170    511.000    532.209    -21.209    502.342    531.609    502.342    502.959    502.342
 43.270    556.640    520.799     35.841    502.248    520.179    502.248    502.878    502.248
 43.370    505.000    514.568     -9.568    502.156    513.931    502.156    502.798    502.156
 43.470    503.000    511.394     -8.394    502.065    510.742    502.065    502.720    502.065
 43.570    539.212    509.750     29.462    501.976    509.084    501.976    502.645    501.976
 43.670    551.774    508.803     42.972    501.889    508.122    501.889    502.571    501.889
 43.770    553.070    508.175     44.895    501.803    507.479    501.803    502.500    501.803
 43.870    480.923    507.715    -26.792    501.718    507.003    501.718    502.431    501.718
 43.970    482.281    507.360    -25.078    501.635    506.631    501.635    502.365    501.635
 44.070    472.228    507.078    -34.851    501.554    506.333    501.554    502.300    501.554
 44.170    534.546    506.854     27.692    501.474    506.090    501.474    502.239    501.474
 44.270    541.000    506.674     34.326    501.396    505.891    501.396    502.179    501.396
 44.370    518.129    506.531     11.598    501.319    505.728    501.319    502.122    501.319
 44.470    550.141    506.418     43.724    501.244    505.594    501.244    502.068    501.244
 44.570    503.000    506.330     -3.330    501.170    505.484    501.170    502.016    501.170
 44.670    487.591    506.265    -18.674    501.098    505.396    501.098    501.967    501.098
 44.770    491.000    506.219    -15.219    501.028    505.326    501.028    501.921    501.028
 44.870    499.000    506.192     -7.192    500.959    505.273    500.959    501.878    500.959
 44.970    531.000    506.182     24.818    500.891    505.236    500.891    501.837    500.891
 45.070    541.000    506.188     34.812    500.825    505.212    500.825    501.800    500.825
 45.170    477.413    506.209    -28.796    500.761    505.203    500.761    501.767    500.761
 45.270    517.000    506.246     10.754    500.698    505.207    500.698    501.736    500.698
 45.370    493.984    506.298    -12.315    500.636    505.225    500.636    501.709    500.636
 45.470    558.000    506.367     51.633    500.577    505.257    500.577    501.686    500.577
 45.570    497.000    506.452     -9.452    500.518    505.302    500.518    501.668    500.518
 45.670    514.000    506.554      7.446    500.461    505.363    500.461    501.653    500.461
 45.770    526.543    506.676     19.867    500.406    505.439    500.406    501.643    500.406
 45.870    462.000    506.818    -44.818    500.352    505.532    500.352    501.637    500.352
 45.970    509.000    506.983      2.017    500.300    505.645    500.300    501.637    500.300
 46.070    477.000    507.172    -30.172    500.249    505.778    500.249    501.643    500.249
 46.170    529.000    507.391     21.609    500.200    505.935    500.200    501.654    500.200
 46.270    493.768    507.642    -13.873    500.152    506.120    500.152    501.672    500.152
 46.370    511.000    507.930      3.070    500.105    506.337    500.105    501.698    500.105
 46.470    518.000    508.264      9.736    500.060    506.593    500.060    501.731    500.060
 46.570    484.000    508.653    -24.653    500.017    506.895    500.017    501.773    500.017
 46.670    501.000    509.109     -8.109    499.975    507.258    499.975    501.824    499.975
 46.770    477.685    509.656    -31.971    499.934    507.702    499.934    501.887    499.934
 46.870    506.000    510.342     -4.342    499.895    508.274    499.895    501.961    499.895
 46.970    526.000    511.266     14.734    499.858    509.072    499.858    502.049    499.858
 47.070    512.000    512.696     -0.696    499.822    510.361    499.822    502.153    499.822
 47.170    471.000    515.124    -44.124    499.787    512.633    499.787    502.274    499.787
 47.270    503.797    519.398    -15.600    499.754    516.728    499.754    502.415    499.754
 47.370    505.546    526.633    -21.087    499.722    523.761    499.722    502.580    499.722
 47.470    512.337    537.789    -25.452    499.691    534.686    499.691    502.773    499.691
 47.570    559.474    552.870      6.604    499.662    549.502    499.662    502.998    499.662
 47.670    531.137    570.051    -38.914    499.635    566.379    499.635    503.262    499.635
 47.770    581.000    585.214     -4.214    499.609    581.197    499.609    503.571    499.609
 47.870    614.000    592.850     21.150    499.584    588.440    499.584    503.937    499.584
 47.970    610.000    589.700     20.300    499.561    584.835    499.561    504.373    499.561
 48.070    601.000    577.986     23.014    499.539    572.586    499.539    504.896    499.539
 48.170    535.000    563.090    -28.090    499.518    557.041    499.518    505.537    499.518
 48.270    566.204    549.667     16.538    499.499    542.805    499.499    506.340    499.499
 48.370    581.268    540.193     41.075    499.482    532.281    499.482    507.381    499.482
 48.470    522.750    535.208    -12.458    499.465    525.885    499.465    508.780    499.465
 48.570    493.337    534.160    -40.822    499.450    522.870    499.450    510.734    499.450
 48.670    515.645    536.275    -20.630    499.437    522.173    499.437    513.534    499.437
 48.770    553.000    541.102     11.898    499.425    522.944    499.425    517.578    499.425
 48.870    555.000    548.643      6.357    499.414    524.706    499.414    523.346    499.414
 48.970    554.000    559.237     -5.237    499.404    527.308    499.404    531.327    499.404
 49.070    589.000    573.375     15.625    499.396    530.886    499.396    541.878    499.396
 49.170    631.000    591.641     39.359    499.389    536.007    499.389    555.014    499.389
 49.270    658.000    615.038     42.962    499.384    544.282    499.384    570.127    499.384
 49.370    645.000    646.207     -1.207    499.380    559.955    499.380    585.613    499.380
 49.470    707.476    692.013     15.463    499.377    592.774    499.377    598.586    499.377
 49.570    727.533    767.699    -40.166    499.375    661.609    499.375    605.414    499.375
 49.670    910.000    899.865     10.135    499.375    795.463    499.375    603.692    499.375
 49.770   1128.000   1120.974      7.026    499.376   1026.117    499.376    594.102    499.376
 49.870   1468.000   1449.044     18.956    499.379   1368.439    499.379    579.807    499.379
 49.970   1936.338   1858.819     77.519    499.382   1793.747    499.382    564.259    499.382
 50.070   2303.000   2263.693     39.307    499.387   2213.091    499.387    549.827    499.387
 50.170   2503.000   2530.830    -27.830    499.393   2492.468    499.393    537.689    499.393
 50.270   2576.000   2546.052     29.948    499.401   2517.334    499.401    528.179    499.401
 50.370   2332.000   2298.131     33.869    499.410   2276.574    499.410    521.124    499.410
 50.470   1859.199   1889.716    -30.517    499.420   1873.229    499.420    516.099    499.420
 50.570   1453.238   1458.453     -5.215    499.431   1445.454    499.431    512.607    499.431
 50.670   1056.000   1103.481    -47.481    499.444   1092.864    499.444    510.195    499.444
 50.770    916.559    862.663     53.896    499.458    853.707    499.458    508.505    499.458
 50.870    748.000    725.225     22.775    499.473    717.473    499.473    507.286    499.473
 50.970    652.366    657.973     -5.607    499.489    651.133    499.489    506.374    499.489
 51.070    575.000    627.271    -52.271    499.507    621.149    499.507    505.667    499.507
 51.170    648.060    609.831     38.228    499.525    604.287    499.525    505.102    499.525
 51.270    607.000    594.572     12.428    499.545    589.502    499.545    504.644    499.545
 51.370    570.000    579.131     -9.131    499.566    574.454    499.566    504.266    499.566
 51.470    606.187    564.737     41.451    499.589    560.389    499.589    503.952    499.589
 51.570    545.000    552.876     -7.876    499.612    548.808    499.612    503.692    499.612
 51.670    597.000    544.201     52.799    499.637    540.370    499.637    503.474    499.637
 51.770    563.000    538.527     24.473    499.663    534.900    499.663    503.294    499.663
 51.870    542.000    535.211      6.789    499.690    531.760    499.690    503.145    499.690
 51.970    573.000    533.547     39.453    499.718    530.245    499.718    503.022    499.718
 52.070    553.000    533.003     19.997    499.747    529.830    499.747    502.922    499.747
 52.170    542.390    533.297      9.093    499.778    530.233    499.778    502.843    499.778
 52.270    552.000    534.376     17.624    499.809    531.405    499.809    502.781    499.809
 52.370    518.124    536.428    -18.305    499.842    533.536    499.842    502.735    499.842
 52.470    607.000    540.029     66.971    499.876    537.201    499.876    502.704    499.876
 52.570    592.000    546.490     45.510    499.911    543.716    499.911    502.685    499.911
 52.670    597.000    558.446     38.554    499.947    555.715    499.947    502.677    499.947
 52.770    559.006    580.469    -21.463    499.984    577.770    499.984    502.681    499.984
 52.870    664.547    619.175     45.372    500.022    616.500    500.022    502.694    500.022
 52.970    660.283    681.970    -21.686    500.062    679.309    500.062    502.717    500.062
 53.070    821.000    773.854     47.146    500.102    771.201    500.102    502.748    500.102
 53.170    921.000    892.736     28.264    500.144    890.085    500.144    502.788    500.144
 53.270   1053.169   1024.921     28.248    500.186   1022.269    500.186    502.836    500.186
 53.370   1114.662   1143.158    -28.496    500.230   1140.502    500.230    502.891    500.230
 53.470   1197.000   1211.738    -14.738    500.275   1209.076    500.275    502.954    500.275
 53.570   1190.000   1204.474    -14.474    500.320   1201.800    500.320    503.025    500.320
 53.670   1079.000   1124.666    -45.666    500.367   1121.968    500.367    503.103    500.367
 53.770   1000.000   1002.021     -2.021    500.415    999.286    500.415    503.188    500.415
 53.870    885.000    871.385     13.615    500.463    868.601    500.463    503.281    500.463
 53.970    793.795    757.522     36.273    500.513    754.679    500.513    503.381    500.513
 54.070    649.000    671.727    -22.727    500.564    668.819    500.564    503.489    500.564
 54.170    601.000    614.429    -13.429    500.616    611.450    500.616    503.605    500.616
 54.270    592.196    579.892     12.304    500.668    576.837    500.668    503.730    500.668
 54.370    554.000    560.708     -6.708    500.722    557.571    500.722    503.862    500.722
 54.470    566.000    550.615     15.385    500.777    547.389    500.777    504.004    500.777
 54.570    515.426    545.431    -30.005    500.832    542.109    500.832    504.156    500.832
 54.670    543.437    542.806      0.631    500.889    539.379    500.889    504.317    500.889
 54.770    518.289    541.587    -23.298    500.946    538.045    500.946    504.489    500.946
 54.870    572.000    541.261     30.739    501.005    537.594    501.005    504.673    501.005
 54.970    576.000    541.620     34.380    501.064    537.816    501.064    504.868    501.064
 55.070    546.000    542.588      3.412    501.124    538.636    501.124    505.078    501.124
 55.170    516.846    544.158    -27.312    501.185    540.043    501.185    505.301    501.185
 55.270    563.000    546.365     16.635    501.247    542.073    501.247    505.540    501.247
 55.370    533.000    549.290    -16.290    501.310    544.804    501.310    505.796    501.310
 55.470    585.000    553.079     31.921    501.374    548.382    501.374    506.072    501.374
 55.570    548.041    558.013     -9.972    501.439    553.085    501.439    506.368    501.439
 55.670    557.383    564.683     -7.300    501.504    559.501    501.504    506.686    501.504
 55.770    578.000    574.400      3.600    501.571    568.939    501.571    507.031    501.571
 55.870    560.774    590.025    -29.251    501.638    584.256    501.638    507.404    501.638
 55.970    634.000    617.335     16.665    501.706    611.226    501.706    507.809    501.706
 56.070    644.000    666.720    -22.720    501.775    660.232    501.775    508.250    501.775
 56.170    696.000    754.240    -58.240    501.845    747.329    501.845    508.733    501.845
 56.270    938.000    900.215     37.785    501.915    892.831    501.915    509.261    501.915
 56.370   1070.000   1123.424    -53.424    501.986   1115.511    501.986    509.843    501.986
 56.470   1352.000   1430.594    -78.594    502.059   1422.097    502.059    510.486    502.059
 56.570   1787.432   1804.112    -16.681    502.131   1794.976    502.131    511.200    502.131
 56.670   2094.000   2193.263    -99.263    502.205   2183.430    502.205    511.995    502.205
 56.770   2542.000   2515.077     26.923    502.279   2504.483    502.279    512.887    502.279
 56.870   2608.000   2675.226    -67.226    502.355   2663.786    502.355    513.891    502.355
 56.970   2641.000   2617.339     23.661    502.430   2604.924    502.430    515.030    502.430
 57.070   2304.291   2364.391    -60.099    502.507   2350.807    502.507    516.331    502.507
 57.170   2067.000   1999.648     67.352    502.584   1984.653    502.584    517.831    502.584
 57.270   1586.000   1614.914    -28.914    502.663   1598.218    502.663    519.583    502.663
 57.370   1307.024   1276.935     30.090    502.741   1258.188    502.741    521.666    502.741
 57.470   1076.000   1018.434     57.566    502.821    997.177    502.821    524.203    502.821
 57.570    831.000    843.156    -12.156    502.901    818.743    502.901    527.394    502.901
 57.670    767.000    737.236     29.764    502.982    708.711    502.982    531.553    502.982
 57.770    693.865    681.277     12.587    503.063    647.200    503.063    537.164    503.063
 57.870    621.000    658.722    -37.722    503.146    616.944    503.146    544.932    503.146
 57.970    649.000    659.413    -10.413    503.228    606.824    503.228    555.814    503.228
 58.070    684.000    679.578      4.422    503.312    611.883    503.312    570.993    503.312
 58.170    728.797    719.972      8.825    503.396    631.580    503.396    591.762    503.396
 58.270    807.000    783.358     23.642    503.481    667.495    503.481    619.306    503.481
 58.370    845.000    871.887    -26.887    503.566    721.037    503.566    654.364    503.566
 58.470   1025.584    984.727     40.857    503.652    791.499    503.652    696.816    503.652
 58.570   1091.000   1116.227    -25.227    503.738    874.727    503.738    745.168    503.738
 58.670   1228.000   1255.076    -27.076    503.826    962.909    503.826    795.922    503.826
 58.770   1327.337   1385.427    -58.090    503.913   1046.362    503.913    842.917    503.913
 58.870   1547.000   1489.978     57.022    504.002   1116.490    504.002    877.442    504.002
 58.970   1500.671   1553.123    -52.452    504.090   1166.452    504.090    890.735    504.090
 59.070   1543.000   1564.289    -21.289    504.180   1189.644    504.180    878.821    504.180
 59.170   1443.802   1522.914    -79.112    504.270   1181.844    504.270    845.354    504.270
 59.270   1426.042   1441.306    -15.264    504.360   1146.714    504.360    798.973    504.360
 59.370   1391.000   1340.483     50.517    504.451   1096.494    504.451    748.452    504.451
 59.470   1238.000   1242.178     -4.178    504.543   1046.625    504.543    700.085    504.543
 59.570   1131.000   1164.829    -33.829    504.635   1011.929    504.635    657.490    504.635
 59.670   1111.961   1124.168    -12.207    504.727   1006.560    504.727    622.248    504.727
 59.770   1138.000   1132.278      5.722    504.820   1042.421    504.820    594.536    504.820
 59.870   1293.000   1192.594    100.406    504.913   1123.661    504.913    573.650    504.913
 59.970   1367.000   1294.948     72.052    505.007   1241.284    505.007    558.419    505.007
 60.070   1396.584   1414.142    -17.559    505.102   1371.401    505.102    547.550    505.102
 60.170   1538.870   1513.071     25.799    505.196   1478.108    505.196    539.853    505.196
 60.270   1588.000   1552.774     35.226    505.291   1523.420    505.291    534.362    505.291
 60.370   1552.000   1510.646     41.354    505.387   1485.444    505.387    530.361    505.387
 60.470   1438.000   1393.894     44.106    505.483   1371.856    505.483    527.360    505.483
 60.570   1165.256   1232.512    -67.256    505.580   1212.952    505.580    525.041    505.580
 60.670   1100.000   1061.404     38.596    505.676   1043.819    505.676    523.210    505.676
 60.770    873.000    907.837    -34.837    505.774    891.840    505.774    521.749    505.774
 60.870    808.000    786.930     21.070    505.871    772.204    505.871    520.590    505.871
 60.970    701.000    702.459     -1.459    505.969    688.732    505.969    519.693    505.969
 61.070    680.000    650.768     29.232    506.067    637.793    506.067    519.036    506.067
 61.170    628.000    625.634      2.366    506.166    613.186    506.166    518.603    506.166
 61.270    620.000    622.254     -2.254    506.265    610.123    506.265    518.376    506.265
 61.370    612.000    639.374    -27.374    506.364    627.373    506.364    518.334    506.364
 61.470    668.610    679.436    -10.826    506.464    667.410    506.464    518.441    506.464
 61.570    697.406    746.931    -49.525    506.564    734.782    506.564    518.639    506.564
 61.670    831.247    845.302    -14.055    506.664    833.016    506.664    518.845    506.664
 61.770    877.000    973.076    -96.076    506.765    960.755    506.765    518.948    506.765
 61.870   1142.099   1120.424     21.674    506.865   1108.281    506.865    518.840    506.865
 61.970   1250.000   1267.506    -17.506    506.966   1255.823    506.966    518.460    506.966
 62.070   1294.000   1385.966    -91.966    507.068   1375.012    507.068    517.834    507.068
 62.170   1389.981   1445.866    -55.885    507.169   1435.824    507.169    517.047    507.169
 62.270   1388.000   1429.136    -41.136    507.271   1420.084    507.271    516.202    507.271
 62.370   1317.000   1340.722    -23.722    507.373   1332.642    507.373    515.380    507.373
 62.470   1281.000   1205.104     75.896    507.475   1197.911    507.475    514.634    507.475
 62.570   1058.199   1052.705      5.495    507.578   1046.286    507.578    513.991    507.578
 62.670    861.000    908.891    -47.891    507.680    903.122    507.680    513.458    507.680
 62.770    805.000    789.376     15.624    507.783    784.140    507.783    513.033    507.783
 62.870    731.394    700.027     31.367    507.886    695.222    507.886    512.703    507.886
 62.970    609.000    639.191    -30.191    507.989    634.735    507.989    512.453    507.989
 63.070    573.709    601.102    -27.393    508.092    596.930    508.092    512.267    508.092
 63.170    567.000    579.004    -12.004    508.196    575.068    508.196    512.131    508.196
 63.270    552.546    567.153    -14.607    508.299    563.417    508.299    512.032    508.299
 63.370    574.000    561.636     12.364    508.403    558.071    508.403    511.962    508.403
 63.470    588.000    560.392     27.608    508.507    556.979    508.507    511.914    508.507
 63.570    538.094    562.943    -24.848    508.611    559.662    508.611    511.882    508.611
 63.670    591.000    570.095     20.905    508.715    566.933    508.715    511.864    508.715
 63.770    609.545    583.698     25.847    508.819    580.640    508.819    511.857    508.819
 63.870    578.694    606.296    -27.602    508.923    603.329    508.923    511.860    508.923
 63.970    645.732    640.527      5.205    509.027    637.640    509.027    511.872    509.027
 64.070    685.000    688.172     -3.172    509.132    685.353    509.132    511.890    509.132
 64.170    813.000    748.973     64.027    509.236    746.211    509.236    511.916    509.236
 64.270    877.437    819.506     57.931    509.340    816.795    509.340    511.948    509.340
 64.370    863.000    892.498    -29.498    509.445    889.836    509.445    511.985    509.445
 64.470    968.000    957.107     10.893    509.549    954.496    509.549    512.028    509.549
 64.570    996.000   1001.232     -5.232    509.654    998.681    509.654    512.075    509.654
 64.670   1065.000   1016.210     48.790    509.758   1013.726    509.758    512.127    509.758
 64.770    945.543   1000.668    -55.125    509.862    998.256    509.862    512.182    509.862
 64.870    981.000    960.090     20.910    509.967    957.752    509.967    512.242    509.967
 64.970    957.000    903.869     53.131    510.071    901.600    510.071    512.305    510.071
 65.070    862.000    842.192     19.808    510.175    839.986    510.175    512.371    510.175
 65.170    823.000    783.252     39.748    510.280    781.099    510.280    512.441    510.280
 65.270    726.000    731.671     -5.671    510.384    729.562    510.384    512.514    510.384
 65.370    690.000    688.775      1.225    510.488    686.700    510.488    512.589    510.488
 65.470    656.000    654.041      1.959    510.592    651.992    510.592    512.667    510.592
 65.570    667.112    626.451     40.661    510.696    624.422    510.696    512.748    510.696
 65.670    645.113    605.006     40.107    510.800    602.992    510.800    512.831    510.800
 65.770    562.592    588.760    -26.168    510.904    586.759    510.904    512.916    510.904
 65.870    516.000    576.847    -60.847    511.007    574.858    511.007    513.004    511.007
 65.970    563.695    568.508     -4.812    511.111    566.528    511.111    513.094    511.111
 66.070    599.827    563.077     36.750    511.214    561.106    511.214    513.186    511.214
 66.170    526.000    559.980    -33.980    511.317    558.017    511.317    513.280    511.317
 66.270    555.686    558.738     -3.052    511.420    556.781    511.420    513.376    511.420
 66.370    559.000    558.989      0.011    511.523    557.037    511.523    513.475    511.523
 66.470    516.053    560.531    -44.479    511.626    558.582    511.626    513.575    511.626
 66.570    553.049    563.375    -10.326    511.728    561.426    511.728    513.678    511.728
 66.670    562.000    567.848     -5.848    511.830    565.897    511.830    513.782    511.830
 66.770    579.172    574.792      4.380    511.933    572.836    511.933    513.889    511.933
 66.870    545.594    585.902    -40.308    512.034    583.938    512.034    513.998    512.034
 66.970    566.000    604.219    -38.219    512.136    602.245    512.136    514.109    512.136
 67.070    658.000    634.691     23.309    512.237    632.702    512.237    514.222    512.237
 67.170    672.969    684.552    -11.583    512.339    682.545    512.339    514.337    512.339
 67.270    722.000    763.124    -41.124    512.439    761.094    512.439    514.454    512.439
 67.370    904.824    880.559     24.265    512.540    878.504    512.540    514.574    512.540
 67.470   1071.000   1045.229     25.771    512.640   1043.149    512.640    514.697    512.640
 67.570   1195.214   1259.954    -64.740    512.740   1257.853    512.740    514.822    512.740
 67.670   1475.000   1517.945    -42.945    512.840   1515.831    512.840    514.949    512.840
 67.770   1728.854   1799.723    -70.869    512.940   1797.609    512.940    515.080    512.940
 67.870   2064.949   2072.276     -7.328    513.039   2070.175    513.039    515.213    513.039
 67.970   2335.003   2291.931     43.072    513.138   2289.856    513.138    515.350    513.138
 68.070   2427.147   2413.715     13.432    513.236   2411.671    513.236    515.490    513.236
 68.170   2376.000   2408.276    -32.276    513.334   2406.251    513.334    515.634    513.334
 68.270   2213.000   2277.106    -64.106    513.432   2275.071    513.432    515.782    513.432
 68.370   2136.000   2051.627     84.373    513.529   2049.544    513.529    515.934    513.529
 68.470   1760.000   1777.202    -17.202    513.626   1775.038    513.626    516.091    513.626
 68.570   1591.000   1496.809     94.191    513.723   1494.538    513.723    516.252    513.723
 68.670   1294.859   1242.348     52.511    513.819   1239.957    513.819    516.418    513.819
 68.770   1017.000   1032.159    -15.159    513.915   1029.640    513.915    516.590    513.915
 68.870    872.000    872.081     -0.081    514.011    869.432    514.011    516.769    514.011
 68.970    782.000    758.671     23.329    514.106    755.895    514.106    516.956    514.106
 69.070    721.000    683.285     37.715    514.200    680.383    514.200    517.150    514.200
 69.170    641.000    635.766      5.234    514.295    632.738    514.295    517.353    514.295
 69.270    635.878    606.938     28.940    514.388    603.781    514.388    517.565    514.388
 69.370    618.001    589.757     28.245    514.482    586.463    514.482    517.788    514.482
 69.470    573.000    579.437     -6.437    514.574    575.998    514.574    518.022    514.574
 69.570    578.640    573.040      5.600    514.667    569.443    514.667    518.269    514.667
 69.670    593.000    568.903     24.097    514.759    565.134    514.759    518.531    514.759
 69.770    543.000    566.148    -23.148    514.850    562.191    514.850    518.810    514.850
 69.870    537.751    564.332    -26.581    514.941    560.168    514.941    519.107    514.941
 69.970    552.535    563.238    -10.703    515.031    558.846    515.031    519.425    515.031
 70.070    544.090    562.773    -18.683    515.121    558.127    515.121    519.767    515.121
 70.170    564.000    562.906      1.094    515.210    557.980    515.210    520.136    515.210
 70.270    583.274    563.664     19.610    515.299    558.426    515.299    520.536    515.299
 70.370    638.000    565.151     72.849    515.387    559.564    515.387    520.972    515.387
 70.470    571.000    567.596      3.404    515.475    561.618    515.475    521.450    515.475
 70.570    528.000    571.460    -43.460    515.562    565.041    515.562    521.976    515.562
 70.670    568.000    577.594     -9.594    515.649    570.676    515.649    522.560    515.649
 70.770    562.000    587.478    -25.478    515.734    579.988    515.734    523.213    515.734
 70.870    568.000    603.505    -35.505    515.820    595.355    515.820    523.953    515.820
 70.970    656.729    629.230     27.499    515.905    620.304    515.905    524.803    515.905
 71.070    669.000    669.444     -0.444    515.989    659.590    515.989    525.802    515.989
 71.170    715.000    729.858    -14.858    516.072    718.862    516.072    527.008    516.072
 71.270    785.000    816.219    -31.219    516.155    803.775    516.155    528.515    516.155
 71.370    998.000    932.791     65.209    516.237    918.449    516.237    530.465    516.237
 71.470   1035.000   1080.400    -45.400    516.319   1063.498    516.319    533.074    516.319
 71.570   1250.000   1254.476     -4.476    516.400   1234.049    516.400    536.649    516.400
 71.670   1425.000   1443.674    -18.674    516.480   1418.345    516.480    541.605    516.480
 71.770   1590.000   1629.577    -39.577    516.560   1597.454    516.560    548.466    516.560
 71.870   1740.000   1788.086    -48.086    516.639   1746.673    516.639    557.838    516.639
 71.970   1887.000   1893.654     -6.654    516.717   1839.831    516.717    570.347    516.717
 72.070   2037.000   1927.273    109.727    516.795   1857.377    516.795    586.532    516.795
 72.170   1841.000   1885.160    -44.160    516.872   1795.202    516.872    606.711    516.872
 72.270   1721.665   1780.868    -59.203    516.948   1666.918    516.948    630.817    516.948
 72.370   1698.000   1638.374     59.626    517.023   1497.111    517.023    658.235    517.023
 72.470   1521.680   1482.560     39.120    517.098   1311.980    517.098    687.646    517.098
 72.570   1286.269   1333.023    -46.754    517.172   1133.276    517.172    716.899    517.172
 72.670   1171.666   1201.606    -29.940    517.245    975.877    517.245    742.959    517.245
 72.770   1109.000   1092.352     16.648    517.318    847.480    517.318    762.177    517.318
 72.870    933.000   1003.371    -70.371    517.389    749.596    517.389    771.150    517.389
 72.970    921.742    929.977     -8.235    517.460    679.356    517.460    768.067    517.460
 73.070    808.000    867.641    -59.641    517.531    631.550    517.531    753.607    517.531
 73.170    779.333    813.381    -34.048    517.600    600.397    517.600    730.571    517.600
 73.270    715.871    765.675    -49.803    517.669    580.716    517.669    702.617    517.669
 73.370    653.000    723.878    -70.878    517.736    568.481    517.736    673.124    517.736
 73.470    646.000    687.782    -41.782    517.803    560.902    517.803    644.677    517.803
 73.570    642.524    657.347    -14.823    517.870    556.226    517.870    618.986    517.870
 73.670    633.355    632.514      0.841    517.935    553.455    517.935    596.994    517.935
 73.770    582.000    613.083    -31.083    517.999    552.071    517.999    579.015    517.999
 73.870    604.000    598.652      5.348    518.063    551.821    518.063    564.901    518.063
 73.970    562.000    588.626    -26.626    518.126    552.560    518.126    554.203    518.126
 74.070    630.000    582.263     47.737    518.188    554.145    518.188    546.323    518.188
 74.170    583.545    578.728      4.817    518.249    556.365    518.249    540.635    518.249
 74.270    596.000    577.140     18.860    518.309    558.907    518.309    536.572    518.309
 74.370    616.120    576.614     39.507    518.369    561.352    518.369    533.665    518.369
 74.470    557.668    576.300    -18.631    518.427    563.212    518.427    531.555    518.427
 74.570    527.040    575.472    -48.432    518.485    564.015    518.485    529.984    518.485
 74.670    526.073    573.661    -47.588    518.542    563.469    518.542    528.777    518.542
 74.770    646.000    570.763     75.237    518.597    561.584    518.597    527.818    518.597
 74.870    612.059    567.023     45.037    518.652    558.679    518.652    527.033    518.652
 74.970    619.000    562.892     56.108    518.706    555.254    518.706    526.375    518.706
 75.070    538.096    558.885    -20.789    518.759    551.856    518.759    525.814    518.759
 75.170    587.000    555.503     31.497    518.811    549.004    518.811    525.329    518.811
 75.270    543.871    553.219     -9.348    518.863    547.187    518.863    524.907    518.863
 75.370    553.000    552.494      0.506    518.913    546.877    518.913    524.537    518.913
 75.470    571.963    553.811     18.152    518.962    548.563    518.962    524.212    518.962
 75.570    568.000    557.686     10.314    519.010    552.768    519.010    523.924    519.010
 75.670    533.000    564.649    -31.649    519.058    560.027    519.058    523.670    519.058
 75.770    543.000    575.162    -32.162    519.104    570.806    519.104    523.444    519.104
 75.870    558.000    589.478    -31.478    519.149    585.360    519.149    523.242    519.149
 75.970    599.000    607.463     -8.463    519.194    603.561    519.194    523.062    519.194
 76.070    639.000    628.427     10.573    519.237    624.720    519.237    522.902    519.237
 76.170    615.472    651.004    -35.532    519.279    647.475    519.279    522.758    519.279
 76.270    628.838    673.135    -44.298    519.321    669.770    519.321    522.629    519.321
 76.370    677.000    692.179    -15.179    519.361    688.964    519.361    522.512    519.361
 76.470    688.000    705.257    -17.257    519.401    702.185    519.401    522.408    519.401
 76.570    683.000    709.969    -26.969    519.439    707.031    519.439    522.314    519.439
 76.670    706.000    705.313      0.687    519.476    702.503    519.476    522.229    519.476
 76.770    669.000    692.171    -23.171    519.512    689.483    519.512    522.152    519.512
 76.870    666.000    672.870     -6.870    519.547    670.296    519.547    522.082    519.547
 76.970    641.224    650.267     -9.043    519.582    647.799    519.582    522.019    519.582
 77.070    616.000    627.010    -11.010    519.615    624.641    519.615    521.962    519.615
 77.170    569.000    605.174    -36.174    519.647    602.896    519.647    521.910    519.647
 77.270    578.000    586.127     -8.127    519.677    583.932    519.677    521.862    519.677
 77.370    578.573    570.538      8.035    519.707    568.419    519.707    521.819    519.707
 77.470    590.916    558.471     32.445    519.736    556.423    519.736    521.780    519.736
 77.570    538.000    549.602    -11.602    519.764    547.619    519.764    521.744    519.764
 77.670    499.000    543.397    -44.397    519.790    541.474    519.790    521.711    519.790
 77.770    525.000    539.208    -14.208    519.816    537.341    519.816    521.680    519.816
 77.870    515.000    536.455    -21.455    519.840    534.641    519.840    521.653    519.840
 77.970    540.938    534.670      6.268    519.863    532.906    519.863    521.627    519.863
 78.070    518.507    533.511    -15.004    519.885    531.792    519.885    521.603    519.885
 78.170    549.128    532.743     16.384    519.906    531.068    519.906    521.581    519.906
 78.270    540.701    532.222      8.479    519.926    530.586    519.926    521.561    519.926
 78.370    501.525    531.860    -30.336    519.945    530.262    519.945    521.542    519.945
 78.470    553.000    531.614     21.386    519.963    530.051    519.963    521.525    519.963
 78.570    493.751    531.463    -37.712    519.979    529.933    519.979    521.509    519.979
 78.670    549.000    531.405     17.595    519.994    529.904    519.994    521.494    519.994
 78.770    540.000    531.448      8.552    520.008    529.975    520.008    521.481    520.008
 78.870    482.000    531.613    -49.613    520.021    530.164    520.021    521.469    520.021
 78.970    494.000    531.924    -37.924    520.033    530.497    520.033    521.459    520.033
 79.070    532.000    532.415     -0.415    520.044    531.006    520.044    521.452    520.044
 79.170    531.736    533.118     -1.382    520.053    531.722    520.053    521.447    520.053
 79.270    543.000    534.065      8.935    520.062    532.679    520.062    521.446    520.062
 79.370    577.000    535.286     41.714    520.069    533.903    520.069    521.449    520.069
 79.470    541.000    536.805      4.195    520.075    535.419    520.075    521.458    520.075
 79.570    551.000    538.653     12.347    520.079    537.255    520.079    521.472    520.079
 79.670    520.000    540.872    -20.872    520.083    539.455    520.083    521.494    520.083
 79.770    567.000    543.539     23.461    520.085    542.094    520.085    521.524    520.085
 79.870    545.000    546.788     -1.788    520.086    545.306    520.086    521.562    520.086
 79.970    543.000    550.834     -7.834    520.086    549.307    520.086    521.608    520.086
 80.070    531.000    556.005    -25.005    520.085    554.424    520.085    521.660    520.085
 80.170    589.000    562.735     26.265    520.082    561.097    520.082    521.717    520.082
 80.270    588.598    571.524     17.074    520.078    569.826    520.078    521.775    520.078
 80.370    577.000    582.829     -5.829    520.073    581.074    520.073    521.829    520.073
 80.470    625.054    596.948     28.106    520.067    595.145    520.067    521.874    520.067
 80.570    596.497    613.905    -17.408    520.060    612.071    520.060    521.902    520.060
 80.670    667.000    633.369     33.631    520.051    631.525    520.051    521.907    520.051
 80.770    658.000    654.608      3.392    520.041    652.780    520.041    521.886    520.041
 80.870    724.086    676.520     47.565    520.030    674.735    520.030    521.839    520.030
 80.970    670.000    697.747    -27.747    520.017    696.026    520.017    521.769    520.017
 81.070    728.000    716.868     11.132    520.003    715.227    520.003    521.682    520.003
 81.170    772.000    732.591     39.409    519.988    731.039    519.988    521.585    519.988
 81.270    727.000    743.869    -16.869    519.972    742.408    519.972    521.484    519.972
 81.370    708.165    749.986    -41.821    519.955    748.614    519.955    521.383    519.955
 81.470    760.468    750.635      9.833    519.936    749.345    519.936    521.287    519.936
 81.570    733.375    745.933    -12.558    519.916    744.716    519.916    521.197    519.916
 81.670    780.425    736.372     44.053    519.894    735.219    519.894    521.113    519.894
 81.770    722.000    722.800     -0.800    519.872    721.701    519.872    521.038    519.872
 81.870    653.145    706.385    -53.240    519.848    705.330    519.848    520.969    519.848
 81.970    742.000    688.451     53.549    519.823    687.430    519.823    520.907    519.823
 82.070    674.000    670.202      3.798    519.796    669.208    519.796    520.851    519.796
 82.170    586.000    652.506    -66.506    519.768    651.533    519.768    520.799    519.768
 82.270    655.476    635.847     19.630    519.739    634.889    519.739    520.750    519.739
 82.370    657.000    620.423     36.577    519.709    619.477    519.709    520.704    519.709
 82.470    645.956    606.323     39.633    519.677    605.384    519.677    520.660    519.677
 82.570    599.000    593.643      5.357    519.644    592.708    519.644    520.617    519.644
 82.670    582.156    582.522     -0.366    519.610    581.590    519.610    520.574    519.610
 82.770    568.895    573.117     -4.222    519.574    572.186    519.574    520.531    519.574
 82.870    580.000    565.567     14.433    519.538    564.635    519.538    520.488    519.538
 82.970    555.000    559.981     -4.981    519.499    559.046    519.499    520.445    519.499
 83.070    535.000    556.419    -21.419    519.460    555.482    519.460    520.401    519.460
 83.170    588.879    554.878     34.002    519.419    553.937    519.419    520.356    519.419
 83.270    552.000    555.264     -3.264    519.377    554.319    519.377    520.311    519.377
 83.370    525.886    557.374    -31.488    519.333    556.425    519.333    520.265    519.333
 83.470    543.754    560.882    -17.128    519.289    559.928    519.289    520.218    519.289
 83.570    569.907    565.342      4.565    519.243    564.384    519.243    520.170    519.243
 83.670    500.000    570.199    -70.199    519.195    569.236    519.195    520.121    519.195
 83.770    577.000    574.818      2.182    519.146    573.851    519.146    520.071    519.146
 83.870    513.000    578.538    -65.538    519.096    577.569    519.096    520.020    519.096
 83.970    543.950    580.759    -36.809    519.045    579.789    519.045    519.969    519.045
 84.070    589.000    581.060      7.940    518.992    580.091    518.992    519.916    518.992
 84.170    533.000    579.316    -46.316    518.938    578.349    518.938    519.863    518.938
 84.270    625.000    575.724     49.276    518.883    574.760    518.883    519.808    518.883
 84.370    608.648    570.726     37.922    518.826    569.766    518.826    519.753    518.826
 84.470    604.705    564.873     39.832    518.768    563.917    518.768    519.696    518.768
 84.570    574.000    558.712     15.288    518.709    557.759    518.709    519.639    518.709
 84.670    532.000    552.710    -20.710    518.648    551.759    518.648    519.580    518.648
 84.770    547.000    547.222     -0.222    518.586    546.272    518.586    519.521    518.586
 84.870    552.000    542.473      9.527    518.522    541.524    518.522    519.460    518.522
 84.970    503.149    538.569    -35.420    518.458    537.620    518.458    519.399    518.458
 85.070    550.000    535.514     14.486    518.392    534.563    518.392    519.336    518.392
 85.170    570.000    533.240     36.760    518.324    532.286    518.324    519.273    518.324
 85.270    489.053    531.640    -42.587    518.256    530.682    518.256    519.208    518.256
 85.370    545.000    530.594     14.406    518.185    529.632    518.185    519.143    518.185
 85.470    477.000    529.996    -52.996    518.114    529.029    518.114    519.076    518.114
 85.570    513.000    529.765    -16.765    518.041    528.793    518.041    519.009    518.041
 85.670    539.000    529.856      9.144    517.967    528.878    517.967    518.941    517.967
 85.770    478.000    530.266    -52.266    517.892    529.281    517.892    518.871    517.892
 85.870    486.000    531.034    -45.034    517.815    530.041    517.815    518.801    517.815
 85.970    556.716    532.245     24.472    517.737    531.243    517.737    518.730    517.737
 86.070    534.688    534.025      0.663    517.657    533.014    517.657    518.657    517.657
 86.170    544.000    536.531      7.469    517.577    535.509    517.577    518.584    517.577
 86.270    559.000    539.972     19.028    517.495    538.937    517.495    518.510    517.495
 86.370    543.000    544.555     -1.555    517.411    543.505    517.411    518.435    517.411
 86.470    581.570    550.450     31.120    517.326    549.385    517.326    518.359    517.326
 86.570    586.000    557.776     28.224    517.240    556.692    517.240    518.283    517.240
 86.670    556.288    566.547    -10.259    517.153    565.443    517.153    518.205    517.153
 86.770    594.000    576.627     17.373    517.064    575.501    517.064    518.127    517.064
 86.870    612.125    587.702     24.423    516.974    586.552    516.974    518.048    516.974
 86.970    643.000    599.256     43.744    516.883    598.083    516.883    517.968    516.883
 87.070    598.000    610.581    -12.581    516.790    609.385    516.790    517.887    516.790
 87.170    643.939    620.811     23.127    516.696    619.593    516.696    517.806    516.696
 87.270    601.840    629.001    -27.161    516.600    627.764    516.600    517.724    516.600
 87.370    652.000    634.274     17.726    516.504    633.022    516.504    517.641    516.504
 87.470    603.000    636.027    -33.027    516.406    634.762    516.406    517.558    516.406
 87.570    654.308    634.101     20.206    516.306    632.828    516.306    517.474    516.306
 87.670    638.043    628.836      9.207    516.206    627.556    516.206    517.389    516.206
 87.770    622.245    620.956      1.289    516.104    619.672    516.104    517.304    516.104
 87.870    643.000    611.399     31.601    516.000    610.111    516.000    517.219    516.000
 87.970    641.000    601.157     39.843    515.896    599.864    515.896    517.133    515.896
 88.070    647.000    591.168     55.832    515.790    589.868    515.790    517.047    515.790
 88.170    566.000    582.240    -16.240    515.683    580.931    515.683    516.961    515.683
 88.270    615.000    575.008     39.992    515.574    573.688    515.574    516.874    515.574
 88.370    577.000    569.906      7.094    515.465    568.573    515.465    516.787    515.465
 88.470    522.721    567.158    -44.437    515.353    565.809    515.353    516.700    515.353
 88.570    630.000    566.788     63.212    515.241    565.421    515.241    516.613    515.241
 88.670    623.000    568.633     54.367    515.127    567.247    515.127    516.527    515.127
 88.770    609.252    572.364     36.887    515.012    570.957    515.012    516.440    515.012
 88.870    536.132    577.507    -41.375    514.896    576.077    514.896    516.354    514.896
 88.970    580.000    583.471     -3.471    514.779    582.016    514.779    516.269    514.779
 89.070    622.000    589.575     32.425    514.660    588.094    514.660    516.184    514.660
 89.170    650.000    595.096     54.904    514.540    593.586    514.540    516.099    514.540
 89.270    589.802    599.321     -9.519    514.419    597.778    514.419    516.016    514.419
 89.370    593.490    601.645     -8.155    514.296    600.067    514.296    515.934    514.296
 89.470    581.620    601.684    -20.064    514.172    600.065    514.172    515.853    514.172
 89.570    551.000    599.356    -48.356    514.047    597.691    514.047    515.774    514.047
 89.670    588.000    594.895     -6.895    513.921    593.179    513.921    515.697    513.921
 89.770    549.000    588.768    -39.768    513.793    586.995    513.793    515.622    513.793
 89.870    559.000    581.552    -22.552    513.664    579.717    513.664    515.549    513.664
 89.970    578.000    573.833      4.167    513.534    571.931    513.534    515.480    513.534
 90.070    589.142    566.132     23.010    513.403    564.159    513.403    515.414    513.403
 90.170    570.000    558.871     11.129    513.270    556.821    513.270    515.351    513.270
 90.270    543.000    552.353     -9.353    513.136    550.220    513.136    515.294    513.136
 90.370    514.000    546.755    -32.755    513.001    544.534    513.001    515.242    513.001
 90.470    543.000    542.118      0.882    512.865    539.801    512.865    515.196    512.865
 90.570    519.000    538.488    -19.488    512.728    536.067    512.728    515.159    512.728
 90.670    520.848    535.780    -14.931    512.589    533.244    512.589    515.132    512.589
 90.770    518.000    533.864    -15.864    512.449    531.201    512.449    515.117    512.449
 90.870    552.000    532.619     19.381    512.308    529.812    512.308    515.118    512.308
 90.970    528.000    531.938     -3.938    512.166    528.966    512.166    515.140    512.166
 91.070    488.000    531.734    -43.734    512.023    528.568    512.023    515.188    512.023
 91.170    561.731    531.954     29.777    511.878    528.560    511.878    515.271    511.878
 91.270    531.000    532.592     -1.592    511.732    528.921    511.732    515.401    511.732
 91.370    492.000    533.683    -41.683    511.586    529.673    511.586    515.593    511.586
 91.470    519.000    535.310    -16.310    511.437    530.882    511.437    515.862    511.437
 91.570    505.376    537.604    -32.227    511.288    532.655    511.288    516.231    511.288
 91.670    557.000    540.738     16.262    511.138    535.143    511.138    516.725    511.138
 91.770    541.000    544.928     -3.928    510.986    538.532    510.986    517.372    510.986
 91.870    548.000    550.418     -2.418    510.834    543.035    510.834    518.204    510.834
 91.970    582.952    557.466     25.486    510.680    548.876    510.680    519.253    510.680
 92.070    559.000    566.320     -7.320    510.525    556.273    510.525    520.550    510.525
 92.170    581.739    577.188      4.551    510.369    565.407    510.369    522.124    510.369
 92.270    557.000    590.218    -33.218    510.212    576.404    510.212    523.993    510.212
 92.370    578.636    605.460    -26.824    510.054    589.304    510.054    526.170    510.054
 92.470    625.475    622.828      2.647    509.894    604.027    509.894    528.649    509.894
 92.570    663.000    642.091     20.909    509.734    620.363    509.734    531.408    509.734
 92.670    679.000    662.855     16.145    509.573    637.961    509.573    534.405    509.573
 92.770    661.000    684.558    -23.558    509.410    656.329    509.410    537.571    509.410
 92.870    661.647    706.492    -44.845    509.246    674.856    509.246    540.809    509.246
 92.970    730.000    727.851      2.149    509.082    692.862    509.082    543.993    509.082
 93.070    793.000    747.828     45.172    508.916    709.701    508.916    546.962    508.916
 93.170    778.000    765.744     12.256    508.749    724.882    508.749    549.529    508.749
 93.270    785.000    781.165      3.835    508.581    738.170    508.581    551.495    508.581
 93.370    860.000    793.946     66.054    508.413    749.600    508.413    552.677    508.413
 93.470    789.000    804.198    -15.198    508.243    759.417    508.243    552.945    508.243
 93.570    794.118    812.223    -18.105    508.072    767.964    508.072    552.255    508.072
 93.670    861.000    818.456     42.544    507.900    775.617    507.900    550.665    507.900
 93.770    775.318    823.440    -48.121    507.727    782.782    507.727    548.314    507.727
 93.870    827.000    827.833     -0.833    507.554    789.927    507.554    545.391    507.554
 93.970    951.000    832.376    118.624    507.379    797.596    507.379    542.093    507.379
 94.070    880.000    837.788     42.212    507.203    806.321    507.203    538.606    507.203
 94.170    842.585    844.592     -2.008    507.027    816.470    507.027    535.086    507.027
 94.270    932.000    852.940     79.060    506.849    828.074    506.849    531.654    506.849
 94.370    818.705    862.502    -43.797    506.670    840.709    506.670    528.405    506.670
 94.470    876.000    872.449      3.551    506.491    853.484    506.491    525.401    506.491
 94.570    888.000    881.520      6.480    506.311    865.096    506.311    522.684    506.311
 94.670    891.000    888.165      2.835    506.129    873.977    506.129    520.272    506.129
 94.770    945.000    890.759     54.241    505.947    878.502    505.947    518.168    505.947
 94.870    914.000    887.962     26.038    505.764    877.338    505.764    516.359    505.764
 94.970    977.000    878.948     98.052    505.580    869.684    505.580    514.824    505.580
 95.070    823.154    863.664    -40.511    505.396    855.512    505.396    513.536    505.396
 95.170    881.000    842.851     38.149    505.210    835.595    505.210    512.462    505.210
 95.270    835.000    817.878     17.122    505.023    811.334    505.023    511.570    505.023
 95.370    780.000    790.505    -10.505    504.836    784.518    504.836    510.830    504.836
 95.470    828.000    762.649     65.351    504.648    757.092    504.648    510.214    504.648
 95.570    719.000    736.222    -17.222    504.459    730.994    504.459    509.697    504.459
 95.670    721.000    713.027      7.973    504.269    708.045    504.269    509.258    504.269
 95.770    714.503    694.696     19.807    504.079    689.897    504.079    508.881    504.079
 95.870    679.023    682.652     -3.628    503.888    677.985    503.888    508.553    503.888
 95.970    637.966    678.112    -40.145    503.696    673.537    503.696    508.262    503.696
 96.070    664.000    682.090    -18.090    503.503    677.575    503.503    508.002    503.503
 96.170    703.000    695.405      7.595    503.309    690.923    503.309    507.766    503.309
 96.270    686.785    718.662    -31.878    503.115    714.193    503.115    507.549    503.115
 96.370    732.000    752.221    -20.221    502.920    747.744    502.920    507.350    502.920
 96.470    797.000    796.109      0.891    502.725    791.607    502.725    507.167    502.725
 96.570    833.000    849.926    -16.926    502.528    845.384    502.528    506.999    502.528
 96.670    865.000    912.737    -47.737    502.331    908.142    502.331    506.844    502.331
 96.770    942.000    982.980    -40.980    502.134    978.319    502.134    506.702    502.134
 96.870   1045.986   1058.397    -12.411    501.935   1053.659    501.935    506.573    501.935
 96.970   1069.000   1136.028    -67.028    501.736   1131.203    501.736    506.456    501.736
 97.070   1207.000   1212.253     -5.253    501.537   1207.331    501.537    506.353    501.537
 97.170   1351.267   1282.927     68.340    501.336   1277.899    501.336    506.262    501.336
 97.270   1359.549   1343.629     15.919    501.136   1338.485    501.136    506.186    501.136
 97.370   1418.571   1390.084     28.487    500.934   1384.813    500.934    506.125    500.934
 97.470   1426.245   1418.754      7.491    500.732   1413.345    500.732    506.080    500.732
 97.570   1401.194   1427.474    -26.280    500.530   1421.910    500.530    506.053    500.530
 97.670   1467.411   1415.879     51.532    500.327   1410.142    500.327    506.044    500.327
 97.770   1475.000   1385.427     89.573    500.123   1379.494    500.123    506.058    500.123
 97.870   1324.000   1339.021    -15.021    499.919   1332.863    499.919    506.097    499.919
 97.970   1235.139   1280.441    -45.301    499.715   1274.025    499.715    506.165    499.715
 98.070   1234.000   1213.828     20.172    499.509   1207.115    499.509    506.268    499.509
 98.170   1127.000   1143.299    -16.299    499.304   1136.242    499.304    506.413    499.304
 98.270   1137.000   1072.701     64.299    499.098   1065.243    499.098    506.610    499.098
 98.370   1038.127   1005.441     32.686    498.891    997.511    498.891    506.874    498.891
 98.470    898.000    944.450    -46.450    498.685    935.961    498.685    507.221    498.685
 98.570    894.000    892.108      1.892    498.477    882.952    498.477    507.674    498.477
 98.670    895.000    850.280     44.720    498.270    840.319    498.270    508.264    498.270
 98.770    799.000    820.383    -21.383    498.062    809.441    498.062    509.027    498.062
 98.870    814.489    803.454     11.035    497.853    791.310    497.853    510.010    497.853
 98.970    804.543    800.234      4.309    497.644    786.613    497.644    511.269    497.644
 99.070    769.092    811.235    -42.143    497.435    795.793    497.435    512.871    497.435
 99.170    793.912    836.771    -42.860    497.226    819.090    497.226    514.892    497.226
 99.270    847.416    876.960    -29.544    497.016    856.536    497.016    517.418    497.016
 99.370    905.431    931.677    -26.246    496.806    907.914    496.806    520.542    496.806
 99.470    965.000   1000.480    -35.480    496.596    972.687    496.596    524.358    496.596
 99.570   1178.000   1082.513     95.487    496.385   1049.907    496.385    528.959    496.385
 99.670   1239.885   1176.406     63.478    496.175   1138.121    496.175    534.429    496.175
 99.770   1234.000   1280.181    -46.181    495.964   1235.282    495.964    540.838    495.964
 99.870   1392.000   1391.186      0.814    495.753   1338.697    495.753    548.227    495.753
 99.970   1462.000   1506.082    -44.082    495.541   1445.017    495.541    556.606    495.541
100.070   1697.000   1620.913     76.087    495.330   1550.317    495.330    565.943    495.330
100.170   1783.919   1731.290     52.628    495.118   1650.294    495.118    576.154    495.118
100.270   1808.796   1832.719    -23.924    494.906   1740.592    494.906    587.097    494.906
100.370   1975.000   1920.986     54.014    494.694   1817.205    494.694    598.564    494.694
100.470   1944.441   1992.501    -48.060    494.482   1876.819    494.482    610.279    494.482
100.570   2127.718   2044.464     83.254    494.270   1916.987    494.270    621.887    494.270
100.670   2060.535   2074.870    -14.335    494.058   1936.132    494.058    632.957    494.058
100.770   2074.416   2082.482     -8.066    493.846   1933.515    493.846    642.991    493.846
100.870   2086.000   2066.940     19.060    493.634   1909.321    493.634    651.446    493.634
100.970   2091.000   2029.025     61.975    493.422   1864.867    493.422    657.781    493.422
101.070   2024.000   1970.906     53.094    493.209   1802.788    493.209    661.532    493.209
101.170   1951.174   1896.158     55.017    492.997   1726.966    492.997    662.391    492.997
101.270   1780.000   1809.440    -29.440    492.785   1642.150    492.785    660.272    492.785
101.370   1651.000   1715.945    -64.945    492.573   1553.376    492.573    655.327    492.573
101.470   1592.000   1620.798    -28.798    492.361   1465.410    492.361    647.920    492.361
101.570   1540.000   1528.566     11.434    492.150   1382.327    492.150    638.544    492.150
101.670   1378.728   1442.935    -64.207    491.938   1307.264    491.938    627.749    491.938
101.770   1399.000   1366.533     32.467    491.726   1242.316    491.726    616.068    491.726
101.870   1260.000   1300.876    -40.876    491.515   1188.518    491.515    603.983    491.515
101.970   1234.000   1246.395    -12.395    491.304   1145.894    491.304    591.903    491.304
102.070   1196.000   1202.533     -6.533    491.093   1113.555    491.093    580.158    491.093
102.170   1075.000   1167.890    -92.890    490.882   1089.845    490.882    569.007    490.882
102.270   1144.549   1140.410      4.139    490.672   1072.521    490.672    558.636    490.672
102.370   1185.000   1117.618     67.382    490.462   1058.982    490.462    549.170    490.462
102.470   1115.150   1096.897     18.253    490.252   1046.545    490.252    540.677    490.252
102.570   1042.000   1075.806    -33.806    490.043   1032.747    490.043    533.176    490.043
102.670   1053.720   1052.389      1.331    489.833   1015.652    489.833    526.647    489.833
102.770    976.887   1025.402    -48.515    489.625    994.065    489.625    521.039    489.625
102.870    952.000    994.392    -42.392    489.416    967.609    489.416    516.277    489.416
102.970    950.000    959.612     -9.612    489.208    936.623    489.208    512.275    489.208
103.070    902.000    921.831    -19.831    489.001    901.969    489.001    508.939    489.001
103.170    864.000    882.114    -18.114    488.793    864.806    488.793    506.173    488.793
103.270    863.354    841.641     21.712    488.587    826.409    488.587    503.887    488.587
103.370    810.000    801.576      8.424    488.381    788.021    488.381    501.998    488.381
103.470    711.355    762.960    -51.605    488.175    750.759    488.175    500.431    488.175
103.570    767.000    726.683     40.317    487.970    715.578    487.970    499.124    487.970
103.670    709.000    693.413     15.587    487.765    683.197    487.765    498.023    487.765
103.770    711.365    663.596     47.768    487.561    654.110    487.561    497.084    487.561
103.870    588.955    637.464    -48.509    487.358    628.579    487.358    496.273    487.358
103.970    617.000    615.048      1.952    487.155    606.666    487.155    495.562    487.155
104.070    601.000    596.213      4.787    486.953    588.258    486.953    494.929    486.953
104.170    578.000    580.704     -2.704    486.752    573.114    486.752    494.358    486.752
104.270    543.013    568.181    -25.167    486.551    560.907    486.551    493.836    486.551
104.370    576.402    558.263     18.139    486.351    551.267    486.351    493.356    486.351
104.470    596.548    550.564     45.984    486.152    543.813    486.152    492.909    486.152
104.570    553.070    544.715      8.355    485.954    538.183    485.954    492.490    485.954
104.670    497.528    540.387    -42.859    485.756    534.049    485.756    492.095    485.756
104.770    523.000    537.299    -14.299    485.560    531.136    485.560    491.722    485.560
104.870    543.628    535.226      8.402    485.364    529.221    485.364    491.368    485.364
104.970    542.000    534.000      8.000    485.169    528.136    485.169    491.030    485.169
105.070    534.000    533.505      0.495    484.975    527.767    484.975    490.709    484.975
105.170    552.000    533.675     18.325    484.781    528.050    484.781    490.401    484.781
105.270    568.807    534.492     34.315    484.589    528.968    484.589    490.107    484.589
105.370    562.716    535.975     26.741    484.398    530.539    484.398    489.825    484.398
105.470    549.449    538.177     11.272    484.208    532.820    484.208    489.555    484.208
105.570    559.000    541.181     17.819    484.018    535.892    484.018    489.295    484.018
105.670    520.827    545.083    -24.256    483.830    539.853    483.830    489.046    483.830
105.770    583.537    549.988     33.549    483.643    544.808    483.643    488.807    483.643
105.870    526.261    555.989    -29.729    483.457    550.851    483.457    488.577    483.457
105.970    571.000    563.157      7.843    483.273    558.051    483.273    488.356    483.273
106.070    533.000    571.521    -38.521    483.089    566.440    483.089    488.143    483.089
106.170    627.000    581.059     45.941    482.907    575.997    482.907    487.940    482.907
106.270    578.000    591.689    -13.689    482.725    586.638    482.725    487.744    482.725
106.370    574.341    603.260    -28.919    482.545    598.214    482.545    487.556    482.545
106.470    659.000    615.551     43.449    482.367    610.502    482.367    487.376    482.367
106.570    581.000    628.273    -47.273    482.189    623.217    482.189    487.204    482.189
106.670    626.000    641.078    -15.078    482.013    636.009    482.013    487.039    482.013
106.770    644.000    653.573     -9.573    481.839    648.484    481.839    486.882    481.839
106.870    645.000    665.332    -20.332    481.665    660.219    481.665    486.732    481.665
106.970    714.483    675.932     38.550    481.494    670.790    481.494    486.590    481.494
107.070    633.000    684.985    -51.985    481.323    679.808    481.323    486.455    481.323
107.170    704.000    692.188     11.812    481.154    686.971    481.154    486.327    481.154
107.270    701.784    697.373      4.411    480.987    692.111    480.987    486.208    480.987
107.370    748.856    700.542     48.314    480.821    695.230    480.821    486.095    480.821
107.470    654.000    701.879    -47.879    480.657    696.512    480.657    485.991    480.657
107.570    669.000    701.719    -32.719    480.494    696.290    480.494    485.894    480.494
107.670    742.462    700.493     41.968    480.333    694.996    480.333    485.805    480.333
107.770    683.000    698.666    -15.666    480.174    693.094    480.174    485.725    480.174
107.870    683.084    696.677    -13.593    480.016    691.023    480.016    485.653    480.016
107.970    695.000    694.892      0.108    479.860    689.150    479.860    485.589    479.860
108.070    618.000    693.576    -75.576    479.706    687.739    479.706    485.535    479.706
108.170    717.298    692.874     24.424    479.553    686.933    479.553    485.489    479.553
108.270    722.439    692.800     29.639    479.402    686.747    479.402    485.454    479.402
108.370    640.000    693.236    -53.236    479.254    687.065    479.254    485.428    479.254
108.470    642.000    693.948    -51.948    479.107    687.648    479.107    485.412    479.107
108.570    650.498    694.598    -44.100    478.962    688.162    478.962    485.406    478.962
108.670    745.941    694.778     51.163    478.818    688.202    478.818    485.407    478.818
108.770    664.000    694.072    -30.072    478.677    687.341    478.677    485.424    478.677
108.870    679.000    692.083    -13.083    478.538    685.184    478.538    485.454    478.538
108.970    696.517    688.489      8.028    478.401    681.413    478.401    485.497    478.401
109.070    662.186    683.158    -20.972    478.266    675.892    478.266    485.553    478.266
109.170    699.000    676.107     22.893    478.133    668.639    478.133    485.623    478.133
109.270    621.255    667.467    -46.212    478.002    659.783    478.002    485.709    478.002
109.370    641.000    657.500    -16.500    477.874    649.586    477.874    485.811    477.874
109.470    654.000    646.543      7.457    477.747    638.382    477.747    485.929    477.747
109.570    640.000    634.961      5.039    477.623    626.540    477.623    486.064    477.623
109.670    631.000    623.114      7.886    477.501    614.424    477.501    486.209    477.501
109.770    609.000    611.367     -2.367    477.381    602.380    477.381    486.385    477.381
109.870    613.000    600.019     12.981    477.264    590.714    477.264    486.584    477.264
109.970    586.000    589.331     -3.331    477.149    579.685    477.149    486.808    477.149
110.070    590.000    579.508     10.492    477.036    569.497    477.036    487.059    477.036
110.170    636.000    570.702     65.298    476.926    560.297    476.926    487.340    476.926
110.270    555.000    563.006     -8.006    476.818    552.178    476.818    487.654    476.818
110.370    584.000    556.466     27.534    476.713    545.179    476.713    488.005    476.713
110.470    565.000    551.079     13.921    476.611    539.293    476.611    488.399    476.611
110.570    573.000    546.807     26.193    476.511    534.477    476.511    488.843    476.511
110.670    566.000    543.587     22.413    476.413    530.656    476.413    489.344    476.413
110.770    534.000    541.337     -7.337    476.318    527.740    476.318    489.914    476.318
110.870    502.721    539.965    -37.244    476.226    525.625    476.226    490.564    476.226
110.970    548.000    539.381      8.619    476.137    524.203    476.137    491.312    476.137
111.070    572.000    539.499     32.501    476.050    523.369    476.050    492.176    476.050
111.170    541.000    540.244      0.756    475.966    523.023    475.966    493.182    475.966
111.270    527.000    541.556    -14.556    475.885    523.076    475.885    494.359    475.885
111.370    527.000    543.391    -16.391    475.807    523.447    475.807    495.743    475.807
111.470    536.000    545.722     -9.722    475.732    524.068    475.732    497.378    475.732
111.570    559.487    548.544     10.943    475.660    524.881    475.660    499.314    475.660
111.670    579.000    551.870     27.130    475.590    525.840    475.590    501.610    475.590
111.770    510.679    555.732    -45.054    475.524    526.911    475.524    504.336    475.524
111.870    551.000    560.183     -9.183    475.461    528.067    475.461    507.566    475.461
111.970    593.000    565.295     27.705    475.401    529.297    475.401    511.387    475.401
112.070    600.688    571.157     29.531    475.344    530.596    475.344    515.893    475.344
112.170    574.490    577.875     -3.385    475.290    531.972    475.290    521.181    475.290
112.270    593.000    585.568      7.432    475.239    533.438    475.239    527.356    475.239
112.370    570.000    594.363    -24.363    475.192    535.019    475.192    534.522    475.192
112.470    562.000    604.392    -42.392    475.148    536.745    475.148    542.781    475.148
112.570    587.678    615.791    -28.114    475.107    538.656    475.107    552.227    475.107
112.670    608.000    628.692    -20.692    475.069    540.801    475.069    562.944    475.069
112.770    652.000    643.222      8.778    475.035    543.242    475.035    574.998    475.035
112.870    657.000    659.503     -2.503    475.005    546.059    475.005    588.431    475.005
112.970    649.841    677.652    -27.811    474.977    549.355    474.977    603.255    474.977
113.070    662.000    697.782    -35.782    474.954    553.266    474.954    619.449    474.954
113.170    761.779    720.009     41.770    474.934    557.971    474.934    636.949    474.934
113.270    749.000    744.460      4.540    474.917    563.705    474.917    655.647    474.917
113.370    785.000    771.286     13.714    474.905    570.778    474.905    675.384    474.905
113.470    816.000    800.675     15.325    474.895    579.596    474.895    695.943    474.895
113.570    810.000    832.879    -22.879    474.890    590.679    474.890    717.053    474.890
113.670    893.000    868.227     24.773    474.888    604.695    474.888    738.379    474.888
113.770    930.533    907.161     23.372    474.891    622.481    474.891    759.523    474.891
113.870    944.210    950.259     -6.049    474.897    645.076    474.897    780.024    474.897
113.970   1048.279    998.267     50.012    474.907    673.745    474.907    799.362    474.907
114.070   1039.000   1052.132    -13.132    474.921    710.001    474.921    816.972    474.921
114.170   1110.000   1113.040     -3.040    474.938    755.621    474.938    832.265    474.938
114.270   1152.217   1182.452    -30.235    474.960    812.641    474.960    844.661    474.960
114.370   1200.000   1262.133    -62.133    474.986    883.347    474.986    853.640    474.986
114.470   1402.531   1354.169     48.361    475.016    970.235    475.016    858.793    475.016
114.570   1503.000   1460.960     42.040    475.051   1075.950    475.051    859.873    475.051
114.670   1573.000   1585.156    -12.156    475.089   1203.195    475.089    856.828    475.089
114.770   1774.631   1729.550     45.081    475.132   1354.611    475.132    849.808    475.132
114.870   1928.000   1896.905     31.095    475.178   1532.630    475.178    839.146    475.178
114.970   2067.751   2089.743    -21.992    475.230   1739.304    475.230    825.313    475.230
115.070   2277.000   2310.094    -33.094    475.285   1976.107    475.285    808.865    475.285
115.170   2466.617   2559.252    -92.636    475.345   2243.745    475.345    790.390    475.345
115.270   2939.000   2837.532    101.468    475.410   2541.952    475.410    770.473    475.410
115.370   3250.000   3144.066    105.934    475.479   2869.316    475.479    749.657    475.479
115.470   3437.000   3476.638    -39.638    475.552   3223.132    475.552    728.434    475.552
115.570   3783.000   3831.582    -48.582    475.631   3599.306    475.631    707.235    475.631
115.670   4264.197   4203.731     60.466    475.713   3992.308    475.713    686.426    475.713
115.770   4437.000   4586.446   -149.446    475.801   4395.194    475.801    666.311    475.801
115.870   4741.000   4971.703   -230.703    475.893   4799.703    475.893    647.135    475.893
115.970   5257.832   5350.263    -92.430    475.990   5196.407    475.990    629.083    475.990
116.070   5576.854   5711.925   -135.071    476.092   5574.976    476.092    612.290    476.092
116.170   6177.206   6045.891    131.315    476.199   5924.526    476.199    596.842    476.199
116.270   6413.000   6341.116     71.884    476.310   6233.971    476.310    582.780    476.310
116.370   6700.998   6586.924    114.075    476.427   6492.631    476.427    570.110    476.427
116.470   6676.000   6773.672    -97.672    476.548   6690.888    476.548    558.803    476.548
116.570   6747.138   6893.499   -146.361    476.675   6820.936    476.675    548.804    476.675
116.670   7057.000   6941.060    115.940    476.807   6877.499    476.807    540.038    476.807
116.770   6895.000   6914.086    -19.086    476.944   6858.395    476.944    532.416    476.944
116.870   6985.000   6813.633    171.367    477.086   6764.771    477.086    525.840    477.086
116.970   6810.000   6643.940    166.060    477.233   6600.967    477.233    520.205    477.233
117.070   6274.000   6411.949   -137.949    477.386   6374.025    477.386    515.407    477.386
117.170   6126.000   6126.610     -0.610    477.544   6092.991    477.544    511.344    477.544
117.270   5675.228   5798.124   -122.896    477.707   5768.164    477.707    507.921    477.707
117.370   5438.000   5437.260      0.740    477.876   5410.398    477.876    505.048    477.876
117.470   4929.000   5054.767   -125.767    478.051   5030.524    478.051    502.644    478.051
117.570   4665.000   4660.920      4.080    478.231   4638.891    478.231    500.636    478.231
117.670   4219.000   4265.168    -46.168    478.416   4245.011    478.416    498.961    478.416
117.770   3950.000   3875.877     74.123    478.607   3857.307    478.607    497.563    478.607
117.870   3669.000   3500.150    168.850    478.804   3482.932    478.804    496.397    478.804
117.970   3127.230   3143.727    -16.497    479.007   3127.667    479.007    495.422    479.007
118.070   2914.987   2810.965    104.022    479.215   2795.902    479.215    494.606    479.215
118.170   2474.484   2504.867    -30.383    479.430   2490.672    479.430    493.921    479.430
118.270   2198.000   2227.189    -29.189    479.650   2213.755    479.650    493.347    479.650
118.370   1968.000   1978.571    -10.571    479.876   1965.810    479.876    492.864    479.876
118.470   1667.000   1758.701    -91.701    480.108   1746.543    480.108    492.460    480.108
118.570   1524.000   1566.498    -42.498    480.346   1554.884    480.346    492.121    480.346
118.670   1375.000   1400.291    -25.291    480.591   1389.173    480.591    491.840    480.591
118.770   1270.604   1257.996     12.608    480.841   1247.333    480.841    491.609    480.841
118.870   1187.104   1137.280     49.824    481.098   1127.037    481.098    491.422    481.098
118.970   1075.957   1035.702     40.255    481.361   1025.849    481.361    491.275    481.361
119.070    934.258    950.835    -16.577    481.630    941.346    481.630    491.165    481.630
119.170    927.000    880.354     46.646    481.906    871.205    481.906    491.088    481.906
119.270    860.741    822.106     38.634    482.188    813.275    482.188    491.042    482.188
119.370    775.000    774.148      0.852    482.477    765.614    482.477    491.025    482.477
119.470    744.000    734.764      9.236    482.772    726.509    482.772    491.037    482.772
119.570    734.829    702.476     32.353    483.074    694.480    483.074    491.076    483.074
119.670    691.000    676.028     14.972    483.382    668.272    483.382    491.141    483.382
119.770    614.000    654.370    -40.370    483.697    646.837    483.697    491.232    483.697
119.870    623.031    636.639    -13.608    484.019    629.311    484.019    491.348    484.019
119.970    560.000    622.132    -62.132    484.348    614.990    484.348    491.490    484.348
120.070    599.000    610.283    -11.283    484.683    603.309    484.683    491.658    484.683
120.170    588.000    600.639    -12.639    485.026    593.815    485.026    491.851    485.026
120.270    575.028    592.844    -17.816    485.375    586.150    485.375    492.071    485.375
120.370    630.213    586.615     43.598    485.732    580.032    485.732    492.317    485.732
120.470    557.907    581.733    -23.826    486.095    575.240    486.095    492.591    486.095
120.570    578.000    578.026     -0.026    486.466    571.602    486.466    492.893    486.466
120.670    568.000    575.361     -7.361    486.844    568.985    486.844    493.223    486.844
120.770    530.151    573.634    -43.483    487.229    567.284    487.229    493.583    487.229
120.870    550.648    572.765    -22.117    487.622    566.417    487.622    493.974    487.622
120.970    604.000    572.689     31.311    488.022    566.320    488.022    494.396    488.022
121.070    565.000    573.353     -8.353    488.429    566.939    488.429    494.849    488.429
121.170    560.720    574.709    -13.989    488.844    568.227    488.844    495.333    488.844
121.270    576.000    576.713     -0.713    489.266    570.138    489.266    495.850    489.266
121.370    544.000    579.320    -35.320    489.696    572.628    489.696    496.399    489.696
121.470    567.757    582.482    -14.725    490.134    575.649    490.134    496.980    490.134
121.570    589.000    586.144      2.856    490.579    579.147    490.579    497.591    490.579
121.670    633.846    590.245     43.602    491.032    583.063    491.032    498.231    491.032
121.770    558.656    594.714    -36.057    491.493    587.327    491.493    498.899    491.493
121.870    640.140    599.472     40.668    491.962    591.863    491.962    499.593    491.962
121.970    627.834    604.431     23.403    492.439    596.585    492.439    500.310    492.439
122.070    609.000    609.494     -0.494    492.924    601.398    492.924    501.046    492.924
122.170    590.000    614.555    -24.555    493.417    606.202    493.417    501.799    493.417
122.270    626.000    619.503      6.497    493.918    610.891    493.918    502.563    493.918
122.370    646.000    624.225     21.775    494.427    615.353    494.427    503.334    494.427
122.470    621.000    628.605     -7.605    494.945    619.481    494.945    504.106    494.945
122.570    651.429    632.532     18.897    495.471    623.169    495.471    504.873    495.471
122.670    605.000    635.905    -30.905    496.005    626.322    496.005    505.629    496.005
122.770    632.000    638.636     -6.636    496.548    628.860    496.548    506.367    496.548
122.870    692.000    640.659     51.341    497.099    630.722    497.099    507.080    497.099
122.970    618.000    641.931    -23.931    497.659    631.874    497.659    507.762    497.659
123.070    608.936    642.438    -33.502    498.228    632.304    498.228    508.407    498.228
123.170    687.000    642.190     44.810    498.805    632.031    498.805    509.010    498.805
123.270    691.000    641.225     49.775    499.391    631.092    499.391    509.568    499.391
123.370    604.532    639.596    -35.064    499.986    629.544    499.986    510.081    499.986
123.470    672.000    637.376     34.624    500.590    627.458    500.590    510.549    500.590
123.570    607.000    634.645    -27.645    501.202    624.912    501.202    510.975    501.202
123.670    666.000    631.491     34.509    501.824    621.989    501.824    511.363    501.824
123.770    634.000    628.001      5.999    502.455    618.771    502.455    511.719    502.455
123.870    603.000    624.262    -21.262    503.095    615.340    503.095    512.049    503.095
123.970    653.000    620.357     32.643    503.744    611.771    503.744    512.359    503.744
124.070    661.900    616.360     45.541    504.402    608.131    504.402    512.657    504.402
124.170    635.196    612.335     22.861    505.070    604.480    505.070    512.948    505.070
124.270    636.000    608.334     27.666    505.747    600.862    505.747    513.240    505.747
124.370    633.000    604.408     28.592    506.434    597.323    506.434    513.537    506.434
124.470    569.524    600.587    -31.062    507.130    593.888    507.130    513.844    507.130
124.570    609.000    596.891     12.109    507.836    590.573    507.836    514.166    507.836
124.670    551.610    593.333    -41.724    508.551    587.388    508.551    514.506    508.551
124.770    601.000    589.920     11.080    509.276    584.336    509.276    514.868    509.276
124.870    541.000    586.649    -45.649    510.011    581.413    510.011    515.255    510.011
124.970    607.497    583.518     23.979    510.756    578.612    510.756    515.667    510.756
