neutron_powder_diffraction_0180
R_wp: 3.935
Temperature (K): 1074.000
Counts: 84026.00
Wavelength (Ã…): 2.52098
COMMENTS
Test file for demonstrating the .xyy file format in Reel1.0
END OF HEADER
   tth       Y_obs     Y_calc      Y_res    Background    Phase_1_Nuc    Phase_1_Mag    Phase_2_Nuc    Phase_2_Mag
  9.970    547.000    573.719    -26.719    572.948    573.671    572.948    572.995    572.948
 10.070    605.000    573.805     31.195    572.970    573.756    572.970    573.018    572.970
 10.170    612.000    573.894     38.106    572.987    573.845    572.987    573.035    572.987
 10.270    568.545    573.990     -5.446    572.998    573.941    572.998    573.047    572.998
 10.370    592.000    574.094     17.906    573.005    574.045    573.005    573.054    573.005
 10.470    619.000    574.210     44.790    573.007    574.160    573.007    573.056    573.007
 10.570    613.408    574.341     39.067    573.003    574.291    573.003    573.053    573.003
 10.670    594.000    574.494     19.506    572.995    574.444    572.995    573.045    572.995
 10.770    574.257    574.675     -0.418    572.982    574.624    572.982    573.032    572.982
 10.870    611.000    574.894     36.106    572.964    574.843    572.964    573.015    572.964
 10.970    598.168    575.164     23.004    572.942    575.113    572.942    572.992    572.942
 11.070    575.814    575.506      0.308    572.915    575.454    572.915    572.965    572.915
 11.170    585.000    575.948      9.052    572.883    575.895    572.883    572.934    572.883
 11.270    538.329    576.535    -38.206    572.846    576.479    572.846    572.900    572.846
 11.370    598.000    577.343     20.657    572.805    577.286    572.805    572.860    572.805
 11.470    608.000    578.548     29.452    572.760    578.489    572.760    572.815    572.760
 11.570    534.842    580.615    -45.772    572.710    580.554    572.710    572.766    572.710
 11.670    626.000    584.748     41.252    572.655    584.685    572.655    572.712    572.655
 11.770    586.000    593.464     -7.464    572.596    593.395    572.596    572.653    572.596
 11.870    621.370    610.412     10.958    572.533    610.334    572.533    572.591    572.533
 11.970    673.000    637.983     35.017    572.466    637.889    572.466    572.524    572.466
 12.070    730.000    672.311     57.689    572.394    672.197    572.394    572.452    572.394
 12.170    722.577    698.827     23.750    572.318    698.699    572.318    572.377    572.318
 12.270    629.000    699.608    -70.608    572.238    699.479    572.238    572.297    572.238
 12.370    591.000    673.900    -82.900    572.154    673.785    572.154    572.213    572.154
 12.470    639.000    639.307     -0.307    572.066    639.210    572.066    572.125    572.066
 12.570    607.964    611.015     -3.051    571.974    610.934    571.974    572.033    571.974
 12.670    587.000    593.379     -6.379    571.878    593.308    571.878    571.938    571.878
 12.770    594.000    584.182      9.818    571.778    584.115    571.778    571.838    571.778
 12.870    600.000    579.739     20.261    571.674    579.675    571.674    571.734    571.674
 12.970    560.000    577.454    -17.454    571.567    577.390    571.567    571.627    571.567
 13.070    552.000    576.068    -24.068    571.455    576.004    571.455    571.516    571.455
 13.170    560.000    575.092    -15.092    571.340    575.029    571.340    571.401    571.340
 13.270    564.000    574.345    -10.345    571.221    574.282    571.221    571.282    571.221
 13.370    559.000    573.746    -14.746    571.099    573.683    571.099    571.160    571.099
 13.470    557.527    573.248    -15.721    570.972    573.185    570.972    571.034    570.972
 13.570    519.000    572.825    -53.825    570.843    572.761    570.843    570.905    570.843
 13.670    576.000    572.455      3.545    570.710    572.391    570.710    570.772    570.710
 13.770    548.000    572.125    -24.125    570.573    572.061    570.573    570.636    570.573
 13.870    565.000    571.825     -6.825    570.433    571.761    570.433    570.496    570.433
 13.970    578.000    571.549      6.451    570.289    571.484    570.289    570.353    570.289
 14.070    572.000    571.291      0.709    570.142    571.225    570.142    570.208    570.142
 14.170    555.908    571.048    -15.140    569.992    570.982    569.992    570.058    569.992
 14.270    578.638    570.814      7.823    569.839    570.748    569.839    569.905    569.839
 14.370    615.792    570.588     45.205    569.682    570.521    569.682    569.748    569.682
 14.470    559.738    570.368    -10.630    569.522    570.300    569.522    569.589    569.522
 14.570    552.000    570.153    -18.153    569.359    570.085    569.359    569.426    569.359
 14.670    566.321    569.940     -3.619    569.193    569.872    569.193    569.261    569.193
 14.770    593.000    569.730     23.270    569.024    569.662    569.024    569.092    569.024
 14.870    618.000    569.521     48.479    568.851    569.453    568.851    568.920    568.851
 14.970    609.738    569.314     40.424    568.676    569.245    568.676    568.745    568.676
 15.070    549.000    569.107    -20.107    568.498    569.038    568.498    568.567    568.498
 15.170    613.499    568.901     44.599    568.317    568.831    568.317    568.387    568.317
 15.270    587.663    568.694     18.970    568.133    568.624    568.133    568.203    568.133
 15.370    550.000    568.486    -18.486    567.946    568.416    567.946    568.017    567.946
 15.470    550.000    568.279    -18.279    567.757    568.208    567.757    567.828    567.757
 15.570    554.000    568.070    -14.070    567.565    567.998    567.565    567.636    567.565
 15.670    555.000    567.860    -12.860    567.370    567.788    567.370    567.441    567.370
 15.770    579.999    567.649     12.350    567.172    567.577    567.172    567.244    567.172
 15.870    572.000    567.436      4.564    566.972    567.364    566.972    567.044    566.972
 15.970    566.000    567.223     -1.223    566.769    567.150    566.769    566.841    566.769
 16.070    605.243    567.007     38.236    566.563    566.934    566.563    566.636    566.563
 16.170    607.000    566.790     40.210    566.355    566.717    566.355    566.429    566.355
 16.270    590.207    566.572     23.635    566.145    566.498    566.145    566.219    566.145
 16.370    597.000    566.352     30.648    565.932    566.277    565.932    566.006    565.932
 16.470    541.000    566.131    -25.131    565.716    566.056    565.716    565.791    565.716
 16.570    595.878    565.907     29.971    565.499    565.832    565.499    565.574    565.499
 16.670    524.695    565.683    -40.988    565.279    565.606    565.279    565.355    565.279
 16.770    587.000    565.462     21.538    565.056    565.381    565.056    565.137    565.056
 16.870    543.596    565.236    -21.640    564.832    565.153    564.832    564.915    564.832
 16.970    549.000    565.006    -16.006    564.605    564.922    564.605    564.689    564.605
 17.070    532.173    564.774    -32.602    564.376    564.690    564.376    564.460    564.376
 17.170    553.000    564.541    -11.541    564.145    564.456    564.145    564.229    564.145
 17.270    561.000    564.305     -3.305    563.911    564.220    563.911    563.997    563.911
 17.370    528.000    564.069    -36.069    563.676    563.983    563.676    563.762    563.676
 17.470    534.000    563.830    -29.830    563.438    563.743    563.438    563.525    563.438
 17.570    566.951    563.591      3.361    563.199    563.504    563.199    563.286    563.199
 17.670    563.000    563.350     -0.350    562.957    563.262    562.957    563.045    562.957
 17.770    587.866    563.106     24.759    562.714    563.018    562.714    562.802    562.714
 17.870    522.978    562.862    -39.884    562.469    562.773    562.469    562.557    562.469
 17.970    565.000    562.615      2.385    562.221    562.526    562.221    562.311    562.221
 18.070    601.748    562.367     39.381    561.972    562.277    561.972    562.062    561.972
 18.170    525.000    562.117    -37.117    561.722    562.027    561.722    561.812    561.722
 18.270    536.000    561.866    -25.866    561.469    561.775    561.469    561.560    561.469
 18.370    525.000    561.614    -36.614    561.214    561.522    561.214    561.306    561.214
 18.470    599.000    561.360     37.640    560.958    561.267    560.958    561.051    560.958
 18.570    556.819    561.104     -4.286    560.701    561.011    560.701    560.794    560.701
 18.670    551.000    560.847     -9.847    560.441    560.753    560.441    560.535    560.441
 18.770    530.000    560.590    -30.590    560.180    560.495    560.180    560.275    560.180
 18.870    542.000    560.331    -18.331    559.917    560.235    559.917    560.013    559.917
 18.970    586.245    560.070     26.174    559.653    559.974    559.653    559.749    559.653
 19.070    539.000    559.809    -20.809    559.387    559.712    559.387    559.484    559.387
 19.170    558.000    559.547     -1.547    559.120    559.449    559.120    559.218    559.120
 19.270    562.000    559.296      2.704    558.851    559.198    558.851    558.950    558.851
 19.370    546.589    559.042    -12.453    558.581    558.942    558.581    558.681    558.581
 19.470    543.000    558.776    -15.776    558.310    558.676    558.310    558.410    558.310
 19.570    568.000    558.509      9.491    558.037    558.408    558.037    558.138    558.037
 19.670    576.000    558.241     17.759    557.763    558.140    557.763    557.865    557.763
 19.770    548.259    557.972     -9.713    557.487    557.870    557.487    557.590    557.487
 19.870    547.000    557.703    -10.703    557.210    557.599    557.210    557.314    557.210
 19.970    545.000    557.432    -12.432    556.932    557.328    556.932    557.037    556.932
 20.070    534.000    557.161    -23.161    556.653    557.055    556.653    556.758    556.653
 20.170    551.000    556.889     -5.889    556.373    556.782    556.373    556.479    556.373
 20.270    538.000    556.616    -18.616    556.091    556.509    556.091    556.198    556.091
 20.370    534.619    556.342    -21.724    555.808    556.234    555.808    555.917    555.808
 20.470    547.000    556.069     -9.069    555.525    555.959    555.525    555.634    555.525
 20.570    579.000    555.794     23.206    555.240    555.684    555.240    555.350    555.240
 20.670    592.278    555.520     36.758    554.954    555.408    554.954    555.065    554.954
 20.770    522.000    555.245    -33.245    554.667    555.132    554.667    554.779    554.667
 20.870    551.000    554.970     -3.970    554.379    554.856    554.379    554.493    554.379
 20.970    541.894    554.694    -12.800    554.090    554.580    554.090    554.205    554.090
 21.070    541.376    554.419    -13.043    553.800    554.303    553.800    553.916    553.800
 21.170    542.886    554.146    -11.260    553.510    554.027    553.510    553.629    553.510
 21.270    527.000    553.872    -26.872    553.218    553.751    553.218    553.339    553.218
 21.370    524.000    553.597    -29.597    552.926    553.475    552.926    553.048    552.926
 21.470    549.000    553.323     -4.323    552.632    553.199    552.632    552.756    552.632
 21.570    564.000    553.050     10.950    552.338    552.925    552.338    552.464    552.338
 21.670    534.000    552.780    -18.780    552.044    552.653    552.044    552.171    552.044
 21.770    530.090    552.512    -22.422    551.748    552.384    551.748    551.876    551.748
 21.870    570.000    552.250     17.750    551.452    552.120    551.452    551.582    551.452
 21.970    565.000    552.059     12.941    551.155    551.928    551.155    551.286    551.155
 22.070    515.443    551.813    -36.370    550.857    551.680    550.857    550.990    550.857
 22.170    553.000    551.550      1.450    550.559    551.415    550.559    550.694    550.559
 22.270    513.451    551.289    -37.838    550.260    551.153    550.260    550.397    550.260
 22.370    573.659    551.034     22.625    549.961    550.896    549.961    550.099    549.961
 22.470    576.084    550.785     25.299    549.661    550.645    549.661    549.801    549.661
 22.570    582.000    550.580     31.420    549.361    550.438    549.361    549.503    549.361
 22.670    510.336    550.356    -40.019    549.060    550.212    549.060    549.204    549.060
 22.770    538.000    550.140    -12.140    548.758    549.994    548.758    548.904    548.758
 22.870    549.000    549.936     -0.936    548.456    549.788    548.456    548.605    548.456
 22.970    512.683    549.721    -37.037    548.154    549.571    548.154    548.304    548.154
 23.070    516.000    549.515    -33.515    547.851    549.363    547.851    548.004    547.851
 23.170    599.000    549.325     49.675    547.548    549.171    547.548    547.703    547.548
 23.270    564.000    549.155     14.845    547.245    548.999    547.245    547.402    547.245
 23.370    518.000    549.011    -31.011    546.941    548.852    546.941    547.101    546.941
 23.470    590.724    548.898     41.827    546.637    548.736    546.637    546.800    546.637
 23.570    548.000    548.827     -0.827    546.333    548.662    546.333    546.498    546.333
 23.670    534.000    548.813    -14.813    546.028    548.646    546.028    546.197    546.028
 23.770    548.000    548.877     -0.877    545.723    548.707    545.723    545.895    545.723
 23.870    514.267    549.054    -34.788    545.418    548.882    545.418    545.593    545.418
 23.970    547.196    549.409     -2.213    545.113    549.234    545.113    545.291    545.113
 24.070    593.129    550.097     43.032    544.808    549.919    544.808    544.989    544.808
 24.170    545.000    551.527     -6.527    544.502    551.347    544.502    544.687    544.502
 24.270    537.000    554.681    -17.681    544.196    554.499    544.196    544.385    544.196
 24.370    609.000    561.394     47.606    543.891    561.213    543.891    544.084    543.891
 24.470    595.000    573.925     21.075    543.585    573.748    543.585    543.782    543.585
 24.570    574.000    593.074    -19.074    543.279    592.907    543.279    543.480    543.279
 24.670    577.000    615.029    -38.029    542.973    614.874    542.973    543.179    542.973
 24.770    662.834    629.328     33.506    542.667    629.178    542.667    542.878    542.667
 24.870    599.000    625.797    -26.797    542.361    625.640    542.361    542.578    542.361
 24.970    605.522    607.185     -1.663    542.055    607.010    542.055    542.277    542.055
 25.070    556.663    584.962    -28.299    541.749    584.764    541.749    541.977    541.749
 25.170    588.000    567.365     20.635    541.443    567.148    541.443    541.678    541.443
 25.270    512.562    556.389    -43.827    541.138    556.158    541.138    541.379    541.138
 25.370    550.000    550.537     -0.537    540.832    550.295    540.832    541.080    540.832
 25.470    545.233    547.554     -2.321    540.527    547.302    540.527    540.782    540.527
 25.570    571.000    545.903     25.097    540.221    545.642    540.221    540.485    540.221
 25.670    527.000    544.842    -17.842    539.916    544.571    539.916    540.189    539.916
 25.770    551.000    544.061      6.939    539.611    543.781    539.611    539.893    539.611
 25.870    569.000    543.435     25.565    539.307    543.144    539.307    539.599    539.307
 25.970    634.000    542.918     91.082    539.002    542.616    539.002    539.305    539.002
 26.070    543.000    542.491      0.509    538.698    542.177    538.698    539.012    538.698
 26.170    538.267    542.143     -3.875    538.394    541.816    538.394    538.721    538.394
 26.270    551.250    541.865      9.384    538.090    541.525    538.090    538.431    538.090
 26.370    510.000    541.627    -31.627    537.787    541.272    537.787    538.143    537.787
 26.470    536.000    541.416     -5.416    537.484    541.045    537.484    537.856    537.484
 26.570    556.000    541.252     14.748    537.181    540.863    537.181    537.571    537.181
 26.670    543.000    541.136      1.864    536.879    540.727    536.879    537.288    536.879
 26.770    544.043    541.077      2.966    536.577    540.647    536.577    537.008    536.577
 26.870    533.000    541.086     -8.086    536.276    540.632    536.276    536.730    536.276
 26.970    583.549    541.186     42.363    535.975    540.706    535.975    536.455    535.975
 27.070    514.009    541.400    -27.391    535.674    540.890    535.674    536.183    535.674
 27.170    551.000    541.724      9.276    535.374    541.182    535.374    535.916    535.374
 27.270    618.000    542.223     75.777    535.074    541.644    535.074    535.652    535.074
 27.370    581.000    542.968     38.032    534.775    542.348    534.775    535.394    534.775
 27.470    589.000    544.085     44.915    534.476    543.418    534.476    535.142    534.476
 27.570    504.091    545.902    -41.811    534.178    545.181    534.178    534.897    534.178
 27.670    518.000    549.648    -31.648    533.880    548.866    533.880    534.660    533.880
 27.770    602.000    559.794     42.206    533.583    558.938    533.583    534.433    533.583
 27.870    614.941    588.459     26.482    533.287    587.513    533.287    534.217    533.287
 27.970    666.000    655.724     10.276    532.991    654.662    532.991    534.016    532.991
 28.070    777.231    771.817      5.414    532.696    770.611    532.696    533.833    532.696
 28.170    877.952    903.498    -25.546    532.401    902.130    532.401    533.671    532.401
 28.270    975.517    968.398      7.119    532.107    966.873    532.107    533.537    532.107
 28.370    857.087    912.583    -55.496    531.814    910.901    531.814    533.439    531.814
 28.470    804.689    792.916     11.773    531.521    791.028    531.521    533.388    531.521
 28.570    659.000    701.073    -42.073    531.229    698.890    531.229    533.404    531.229
 28.670    661.370    683.317    -21.948    530.938    680.723    530.938    533.519    530.938
 28.770    754.000    732.877     21.123    530.647    729.717    530.647    533.789    530.647
 28.870    816.000    806.387      9.613    530.358    802.428    530.358    534.307    530.358
 28.970    809.000    841.252    -32.252    530.068    836.110    530.068    535.216    530.068
 29.070    825.616    801.069     24.546    529.780    794.152    529.780    536.713    529.780
 29.170    678.000    718.236    -40.236    529.493    708.728    529.493    539.015    529.493
 29.270    679.937    642.809     37.128    529.206    629.725    529.206    542.299    529.206
 29.370    643.249    597.180     46.069    528.920    579.542    528.920    546.561    528.920
 29.470    571.000    577.823     -6.823    528.635    555.072    528.635    551.384    528.635
 29.570    569.883    572.117     -2.234    528.351    544.870    528.351    555.595    528.351
 29.670    593.000    569.811     23.189    528.067    540.504    528.067    557.372    528.067
 29.770    603.000    566.017     36.983    527.785    538.195    527.785    555.604    527.785
 29.870    601.000    560.328     40.672    527.503    536.695    527.503    551.134    527.503
 29.970    569.000    554.188     14.812    527.223    535.642    527.223    545.766    527.223
 30.070    513.457    548.784    -35.327    526.943    534.922    526.943    540.802    526.943
 30.170    578.000    544.630     33.370    526.664    534.518    526.664    536.774    526.664
 30.270    525.876    541.896    -16.020    526.386    534.539    526.386    533.741    526.386
 30.370    575.586    540.866     34.719    526.109    535.422    526.109    531.549    526.109
 30.470    534.965    542.496     -7.531    525.833    538.339    525.833    529.983    525.833
 30.570    566.000    548.794     17.206    525.558    545.498    525.558    528.842    525.558
 30.670    558.059    562.061     -4.002    525.284    559.351    525.284    527.971    525.284
 30.770    597.000    582.168     14.832    525.010    579.873    525.010    527.269    525.010
 30.870    586.000    603.078    -17.078    524.738    601.091    524.738    526.675    524.738
 30.970    659.000    612.633     46.367    524.467    610.892    524.467    526.153    524.467
 31.070    560.000    602.825    -42.825    524.197    601.296    524.197    525.682    524.197
 31.170    560.000    581.078    -21.078    523.928    579.729    523.928    525.248    523.928
 31.270    553.000    559.547     -6.547    523.660    558.348    523.660    524.844    523.660
 31.370    594.000    544.526     49.474    523.394    543.448    523.394    524.464    523.394
 31.470    527.000    536.261     -9.261    523.128    535.284    523.128    524.102    523.128
 31.570    522.745    532.348     -9.602    522.863    531.453    522.863    523.755    522.863
 31.670    510.000    530.524    -20.524    522.599    529.700    522.599    523.421    522.599
 31.770    568.000    529.548     38.452    522.337    528.785    522.337    523.098    522.337
 31.870    542.000    528.924     13.076    522.076    528.214    522.076    522.784    522.076
 31.970    545.000    528.488     16.512    521.816    527.824    521.816    522.478    521.816
 32.070    525.889    528.184     -2.295    521.556    527.561    521.556    522.179    521.556
 32.170    528.705    527.992      0.713    521.299    527.404    521.299    521.885    521.299
 32.270    550.000    527.904     22.096    521.042    527.348    521.042    521.597    521.042
 32.370    548.267    527.921     20.346    520.786    527.393    520.786    521.313    520.786
 32.470    582.000    528.055     53.945    520.532    527.553    520.532    521.034    520.532
 32.570    570.915    528.318     42.597    520.279    527.838    520.279    520.758    520.279
 32.670    512.000    528.733    -16.733    520.027    528.273    520.027    520.486    520.027
 32.770    504.427    529.340    -24.913    519.776    528.898    519.776    520.217    519.776
 32.870    537.000    530.193      6.807    519.527    529.767    519.527    519.951    519.527
 32.970    536.000    531.372      4.628    519.278    530.961    519.278    519.688    519.278
 33.070    550.000    533.003     16.997    519.031    532.605    519.031    519.428    519.031
 33.170    516.242    535.312    -19.070    518.786    534.926    518.786    519.170    518.786
 33.270    530.000    538.828     -8.828    518.541    538.452    518.541    518.914    518.541
 33.370    574.000    544.995     29.005    518.298    544.628    518.298    518.661    518.298
 33.470    514.812    557.616    -42.803    518.056    557.257    518.056    518.410    518.056
 33.570    666.000    584.928     81.072    517.815    584.572    517.815    518.161    517.815
 33.670    643.000    639.924      3.076    517.576    639.566    517.576    517.914    517.576
 33.770    800.000    734.302     65.698    517.338    733.937    517.338    517.669    517.338
 33.870    881.000    864.168     16.832    517.101    863.793    517.101    517.425    517.101
 33.970    976.000    994.135    -18.135    516.866    993.757    516.866    517.184    516.866
 34.070   1059.000   1057.720      1.280    516.632   1057.358    516.632    516.945    516.632
 34.170   1063.000   1009.980     53.020    516.399   1009.648    516.399    516.707    516.399
 34.270    898.000    886.110     11.890    516.168    885.806    516.168    516.471    516.168
 34.370    703.026    752.974    -49.947    515.938    752.684    515.938    516.237    515.938
 34.470    571.000    651.521    -80.521    515.709    651.235    515.709    516.004    515.709
 34.570    571.000    589.987    -18.987    515.482    589.701    515.482    515.774    515.482
 34.670    584.198    558.309     25.888    515.256    558.023    515.256    515.545    515.256
 34.770    543.298    543.243      0.056    515.032    542.958    515.032    515.317    515.032
 34.870    569.000    535.731     33.269    514.808    535.448    514.808    515.092    514.808
 34.970    518.000    531.351    -13.351    514.587    531.070    514.587    514.868    514.587
 35.070    528.000    528.354     -0.354    514.366    528.075    514.366    514.645    514.366
 35.170    512.000    526.100    -14.100    514.148    525.823    514.148    514.424    514.148
 35.270    565.265    524.322     40.943    513.930    524.047    513.930    514.205    513.930
 35.370    509.000    522.879    -13.879    513.714    522.605    513.714    513.988    513.714
 35.470    542.370    521.684     20.687    513.499    521.411    513.499    513.772    513.499
 35.570    509.872    520.680    -10.807    513.286    520.408    513.286    513.557    513.286
 35.670    537.782    519.821     17.960    513.075    519.551    513.075    513.345    513.075
 35.770    502.517    519.077    -16.560    512.864    518.808    512.864    513.134    512.864
 35.870    528.107    518.425      9.682    512.656    518.157    512.656    512.924    512.656
 35.970    473.063    517.848    -44.785    512.448    517.580    512.448    512.716    512.448
 36.070    529.906    517.333     12.573    512.242    517.065    512.242    512.510    512.242
 36.170    507.000    516.871     -9.871    512.038    516.603    512.038    512.305    512.038
 36.270    573.000    516.454     56.546    511.835    516.187    511.835    512.102    511.835
 36.370    520.000    516.079      3.921    511.634    515.812    511.634    511.901    511.634
 36.470    551.981    515.742     36.239    511.434    515.474    511.434    511.701    511.434
 36.570    491.000    515.442    -24.442    511.235    515.175    511.235    511.503    511.235
 36.670    537.849    515.181     22.667    511.038    514.914    511.038    511.306    511.038
 36.770    548.000    514.968     33.032    510.843    514.700    510.843    511.111    510.843
 36.870    491.767    514.825    -23.058    510.649    514.556    510.649    510.918    510.649
 36.970    474.240    514.807    -40.567    510.457    514.538    510.457    510.726    510.457
 37.070    499.157    515.039    -15.881    510.266    514.769    510.266    510.536    510.266
 37.170    511.000    515.739     -4.739    510.076    515.469    510.076    510.347    510.076
 37.270    528.000    517.193     10.807    509.889    516.923    509.889    510.160    509.889
 37.370    516.168    519.614     -3.446    509.702    519.343    509.702    509.975    509.702
 37.470    543.000    522.880     20.120    509.518    522.609    509.518    509.791    509.518
 37.570    520.005    526.259     -6.255    509.334    525.988    509.334    509.609    509.334
 37.670    518.000    528.371    -10.371    509.153    528.100    509.153    509.428    509.153
 37.770    544.059    528.067     15.991    508.973    527.797    508.973    509.250    508.973
 37.870    503.000    525.635    -22.635    508.794    525.365    508.794    509.072    508.794
 37.970    528.000    522.319      5.681    508.617    522.050    508.617    508.897    508.617
 38.070    505.212    519.096    -13.883    508.442    518.825    508.442    508.723    508.442
 38.170    492.448    516.382    -23.935    508.268    516.109    508.268    508.551    508.268
 38.270    505.954    514.318     -8.364    508.095    514.041    508.095    508.380    508.095
 38.370    536.727    512.874     23.853    507.925    512.592    507.925    508.211    507.925
 38.470    463.000    511.911    -48.911    507.755    511.625    507.755    508.044    507.755
 38.570    503.000    511.276     -8.276    507.588    510.987    507.588    507.878    507.588
 38.670    463.000    510.841    -47.841    507.422    510.550    507.422    507.714    507.422
 38.770    502.969    510.519     -7.550    507.257    510.225    507.257    507.552    507.257
 38.870    501.000    510.257     -9.257    507.095    509.961    507.095    507.391    507.095
 38.970    492.000    510.030    -18.030    506.933    509.732    506.933    507.232    506.933
 39.070    470.697    509.826    -39.129    506.774    509.525    506.774    507.075    506.774
 39.170    499.000    509.637    -10.637    506.615    509.333    506.615    506.919    506.615
 39.270    498.000    509.461    -11.461    506.459    509.155    506.459    506.765    506.459
 39.370    492.000    509.296    -17.296    506.304    508.988    506.304    506.613    506.304
 39.470    467.000    509.141    -42.141    506.151    508.830    506.151    506.462    506.151
 39.570    512.510    508.996      3.514    505.999    508.681    505.999    506.313    505.999
 39.670    501.175    508.858     -7.684    505.849    508.541    505.849    506.166    505.849
 39.770    507.000    508.729     -1.729    505.700    508.409    505.700    506.021    505.700
 39.870    499.000    508.608     -9.608    505.553    508.284    505.553    505.877    505.553
 39.970    530.795    508.494     22.301    505.408    508.168    505.408    505.735    505.408
 40.070    463.000    508.390    -45.390    505.264    508.060    505.264    505.594    505.264
 40.170    515.000    508.293      6.707    505.122    507.960    505.122    505.456    505.122
 40.270    518.445    508.207     10.238    504.982    507.870    504.982    505.319    504.982
 40.370    528.000    508.130     19.870    504.843    507.789    504.843    505.184    504.843
 40.470    525.635    508.064     17.570    504.706    507.720    504.706    505.050    504.706
 40.570    518.000    508.011      9.989    504.570    507.663    504.570    504.918    504.570
 40.670    483.000    507.972    -24.972    504.436    507.620    504.436    504.788    504.436
 40.770    504.873    507.949     -3.077    504.303    507.593    504.303    504.660    504.303
 40.870    482.000    507.946    -25.946    504.172    507.585    504.172    504.534    504.172
 40.970    520.000    507.965     12.035    504.043    507.600    504.043    504.409    504.043
 41.070    494.000    508.011    -14.011    503.916    507.641    503.916    504.286    503.916
 41.170    484.000    508.090    -24.090    503.790    507.716    503.790    504.165    503.790
 41.270    457.000    508.212    -51.212    503.665    507.833    503.665    504.045    503.665
 41.370    465.999    508.386    -42.387    503.542    508.002    503.542    503.927    503.542
 41.470    517.000    508.629      8.371    503.421    508.240    503.421    503.811    503.421
 41.570    486.000    508.966    -22.966    503.302    508.572    503.302    503.697    503.302
 41.670    510.000    509.445      0.555    503.184    509.045    503.184    503.585    503.184
 41.770    491.000    510.167    -19.167    503.067    509.762    503.067    503.474    503.067
 41.870    485.000    511.380    -26.380    502.953    510.970    502.953    503.366    502.953
 41.970    511.000    513.641     -2.641    502.840    513.226    502.840    503.259    502.840
 42.070    522.000    518.036      3.964    502.728    517.616    502.728    503.154    502.728
 42.170    525.000    526.260     -1.260    502.618    525.838    502.618    503.050    502.618
 42.270    566.000    540.208     25.792    502.510    539.785    502.510    502.949    502.510
 42.370    553.624    560.801     -7.177    502.403    560.381    502.403    502.849    502.403
 42.470    625.274    586.286     38.989    502.298    585.872    502.298    502.752    502.298
 42.570    571.429    610.767    -39.338    502.195    610.360    502.195    502.656    502.195
 42.670    600.000    624.735    -24.735    502.093    624.329    502.093    502.562    502.093
 42.770    577.344    620.954    -43.610    501.993    620.541    501.993    502.470    501.993
 42.870    593.000    601.624     -8.624    501.894    601.194    501.894    502.380    501.894
 42.970    564.000    575.780    -11.780    501.797    575.329    501.797    502.292    501.797
 43.070    563.000    551.717     11.283    501.702    551.242    501.702    502.206    501.702
 43.170    521.580    533.597    -12.017    501.608    533.101    501.608    502.122    501.608
 43.270    498.000    521.938    -23.938    501.516    521.425    501.516    502.039    501.516
 43.370    517.203    515.280      1.924    501.425    514.752    501.425    501.959    501.425
 43.470    466.000    511.733    -45.733    501.336    511.192    501.336    501.881    501.336
 43.570    530.931    509.838     21.094    501.248    509.284    501.248    501.805    501.248
 43.670    513.393    508.735      4.658    501.163    508.169    501.163    501.731    501.163
 43.770    464.142    508.010    -43.868    501.078    507.430    501.078    501.659    501.078
 43.870    497.000    507.482    -10.482    500.996    506.890    500.996    501.589    500.996
 43.970    542.000    507.077     34.923    500.914    506.471    500.914    501.522    500.914
 44.070    503.346    506.757     -3.411    500.835    506.137    500.835    501.457    500.835
 44.170    466.928    506.502    -39.574    500.757    505.866    500.757    501.394    500.757
 44.270    545.000    506.298     38.702    500.681    505.646    500.681    501.333    500.681
 44.370    500.000    506.134     -6.134    500.606    505.466    500.606    501.275    500.606
 44.470    522.000    506.005     15.995    500.533    505.319    500.533    501.219    500.533
 44.570    512.000    505.904      6.096    500.461    505.200    500.461    501.165    500.461
 44.670    510.000    505.828      4.172    500.391    505.105    500.391    501.114    500.391
 44.770    473.365    505.774    -32.409    500.322    505.030    500.322    501.066    500.322
 44.870    541.162    505.740     35.422    500.255    504.975    500.255    501.021    500.255
 44.970    483.000    505.725    -22.725    500.190    504.937    500.190    500.978    500.190
 45.070    514.000    505.727      8.273    500.126    504.915    500.126    500.938    500.126
 45.170    492.000    505.745    -13.745    500.064    504.908    500.064    500.901    500.064
 45.270    534.000    505.781     28.219    500.003    504.916    500.003    500.867    500.003
 45.370    538.000    505.833     32.167    499.944    504.939    499.944    500.837    499.944
 45.470    478.644    505.902    -27.258    499.886    504.978    499.886    500.810    499.886
 45.570    511.000    505.989      5.011    499.830    505.031    499.830    500.787    499.830
 45.670    499.176    506.094     -6.918    499.775    505.102    499.775    500.767    499.775
 45.770    524.000    506.219     17.781    499.722    505.189    499.722    500.752    499.722
 45.870    493.000    506.366    -13.366    499.670    505.296    499.670    500.741    499.670
 45.970    507.718    506.537      1.180    499.620    505.423    499.620    500.734    499.620
 46.070    501.103    506.735     -5.632    499.572    505.574    499.572    500.733    499.572
 46.170    505.000    506.963     -1.963    499.525    505.751    499.525    500.736    499.525
 46.270    486.000    507.226    -21.226    499.479    505.959    499.479    500.746    499.479
 46.370    527.000    507.530     19.470    499.435    506.203    499.435    500.762    499.435
 46.470    546.161    507.882     38.279    499.393    506.490    499.393    500.784    499.393
 46.570    493.000    508.293    -15.293    499.352    506.829    499.352    500.814    499.352
 46.670    474.692    508.779    -34.087    499.312    507.238    499.312    500.853    499.312
 46.770    466.000    509.369    -43.369    499.274    507.741    499.274    500.900    499.274
 46.870    484.000    510.120    -26.120    499.238    508.397    499.238    500.958    499.238
 46.970    527.000    511.158     15.842    499.203    509.330    499.203    501.028    499.203
 47.070    491.000    512.748    -21.748    499.169    510.802    499.169    501.111    499.169
 47.170    473.716    515.413    -41.697    499.137    513.336    499.137    501.209    499.137
 47.270    483.194    519.950    -36.757    499.106    517.724    499.106    501.324    499.106
 47.370    540.000    527.342     12.658    499.077    524.947    499.077    501.459    499.077
 47.470    497.000    538.349    -41.349    499.049    535.759    499.049    501.617    499.049
 47.570    596.000    552.832     43.168    499.023    550.020    499.023    501.802    499.023
 47.670    536.000    569.042    -33.042    498.998    565.977    498.998    502.020    498.998
 47.770    652.000    583.210     68.790    498.975    579.855    498.975    502.277    498.975
 47.870    609.000    590.322     18.678    498.953    586.639    498.953    502.581    498.953
 47.970    602.330    587.418     14.912    498.932    583.356    498.932    502.943    498.932
 48.070    594.868    576.516     18.352    498.913    572.008    498.913    503.379    498.913
 48.170    590.000    562.508     27.492    498.895    557.461    498.895    503.912    498.895
 48.270    505.332    549.642    -44.310    498.879    543.920    498.879    504.581    498.879
 48.370    534.000    540.240     -6.240    498.864    533.646    498.864    505.446    498.864
 48.470    538.942    534.925      4.017    498.851    527.157    498.851    506.610    498.851
 48.570    547.000    533.310     13.690    498.839    523.903    498.839    508.241    498.839
 48.670    509.000    534.738    -25.738    498.828    522.973    498.828    510.588    498.828
 48.770    555.871    538.767     17.104    498.819    523.582    498.819    514.000    498.819
 48.870    513.753    545.350    -31.597    498.811    525.254    498.811    518.903    498.811
 48.970    549.000    554.760     -5.760    498.804    527.823    498.804    525.736    498.804
 49.070    565.000    567.445     -2.445    498.799    531.410    498.799    534.829    498.799
 49.170    566.544    584.012    -17.467    498.795    536.590    498.795    546.210    498.795
 49.270    581.366    605.597    -24.231    498.793    545.019    498.793    559.360    498.793
 49.370    600.228    635.110    -34.882    498.792    561.005    498.792    572.881    498.792
 49.470    735.000    679.854     55.146    498.792    594.381    498.792    584.238    498.792
 49.570    771.617    755.443     16.174    498.793    663.962    498.793    590.228    498.793
 49.670    862.673    888.381    -25.708    498.796    798.380    498.796    588.719    498.796
 49.770   1106.000   1110.208     -4.208    498.801   1028.573    498.801    580.317    498.801
 49.870   1434.000   1437.602     -3.602    498.806   1368.431    498.806    567.820    498.806
 49.970   1899.955   1844.591     55.364    498.813   1788.970    498.813    554.266    498.813
 50.070   2245.000   2245.471     -0.471    498.821   2202.432    498.821    541.733    498.821
 50.170   2493.000   2509.911    -16.911    498.831   2477.472    498.831    531.243    498.831
 50.270   2454.395   2526.265    -71.870    498.841   2502.132    498.841    523.072    498.841
 50.370   2295.000   2283.581     11.419    498.853   2265.571    498.853    517.053    498.853
 50.470   1928.319   1882.179     46.140    498.867   1868.464    498.867    512.800    498.867
 50.570   1445.000   1456.851    -11.851    498.881   1446.060    498.881    509.866    498.881
 50.670   1062.000   1105.162    -43.162    498.897   1096.351    498.897    507.854    498.897
 50.770    832.000    865.011    -33.011    498.914    857.573    498.914    506.451    498.914
 50.870    633.000    726.630    -93.630    498.933    720.185    498.933    505.443    498.933
 50.970    627.000    657.986    -30.986    498.952    652.295    498.952    504.690    498.952
 51.070    659.032    626.293     32.739    498.973    621.197    498.973    504.108    498.973
 51.170    621.851    608.680     13.171    498.995    604.065    498.995    503.644    498.995
 51.270    636.000    594.008     41.992    499.018    589.787    499.018    503.268    499.018
 51.370    552.000    579.526    -27.526    499.043    575.632    499.043    502.960    499.043
 51.470    570.046    566.041      4.005    499.069    562.422    499.069    502.705    499.069
 51.570    612.000    554.789     57.211    499.096    551.402    499.096    502.495    499.096
 51.670    512.773    546.381    -33.607    499.124    543.192    499.124    502.321    499.124
 51.770    562.000    540.747     21.253    499.153    537.728    499.153    502.178    499.153
 51.870    542.000    537.401      4.599    499.183    534.527    499.183    502.062    499.183
 51.970    561.075    535.748     25.328    499.215    532.999    499.215    501.968    499.215
 52.070    572.000    535.312     36.688    499.248    532.670    499.248    501.893    499.248
 52.170    579.166    535.831     43.335    499.282    533.280    499.282    501.835    499.282
 52.270    544.000    537.272      6.728    499.317    534.798    499.317    501.793    499.317
 52.370    568.000    539.878     28.122    499.353    537.469    499.353    501.764    499.353
 52.470    557.000    544.332     12.668    499.391    541.978    499.391    501.746    499.391
 52.570    580.910    552.103     28.807    499.429    549.793    499.429    501.740    499.429
 52.670    568.956    565.946      3.010    499.469    563.672    499.469    501.743    499.469
 52.770    573.000    590.343    -17.343    499.510    588.096    499.510    501.756    499.510
 52.870    665.090    631.367     33.722    499.552    629.140    499.552    501.777    499.552
 52.970    669.581    695.341    -25.759    499.594    693.126    499.594    501.806    499.594
 53.070    810.775    785.962     24.813    499.638    783.754    499.638    501.843    499.638
 53.170    934.000    900.398     33.602    499.684    898.194    499.684    501.886    499.684
 53.270   1044.000   1025.593     18.407    499.730   1023.389    499.730    501.937    499.730
 53.370   1137.000   1136.513      0.487    499.777   1134.309    499.777    501.994    499.777
 53.470   1212.000   1200.558     11.442    499.825   1198.350    499.825    502.058    499.825
 53.570   1232.665   1193.850     38.815    499.875   1191.633    499.875    502.128    499.875
 53.670   1053.528   1119.394    -65.866    499.925   1117.158    499.925    502.204    499.925
 53.770    980.000   1004.290    -24.290    499.976   1002.022    499.976    502.287    499.976
 53.870    838.482    880.356    -41.874    500.029    878.045    500.029    502.376    500.029
 53.970    742.213    770.413    -28.200    500.082    768.051    500.082    502.472    500.082
 54.070    696.513    685.421     11.092    500.137    683.004    500.137    502.574    500.137
 54.170    640.000    626.723     13.277    500.192    624.245    500.192    502.683    500.192
 54.270    554.705    589.887    -35.182    500.249    587.345    500.249    502.799    500.249
 54.370    613.000    568.492     44.508    500.306    565.881    500.306    502.923    500.306
 54.470    559.000    556.717      2.283    500.364    554.031    500.364    503.054    500.364
 54.570    577.849    550.417     27.432    500.424    547.650    500.424    503.193    500.424
 54.670    581.000    547.103     33.897    500.484    544.249    500.484    503.341    500.484
 54.770    547.000    545.472      1.528    500.545    542.522    500.545    503.497    500.545
 54.870    558.000    544.906     13.094    500.607    541.851    500.607    503.664    500.607
 54.970    575.000    545.137     29.863    500.671    541.968    500.671    503.841    500.671
 55.070    568.000    546.065     21.935    500.735    542.772    500.735    504.029    500.735
 55.170    584.021    547.670     36.351    500.799    544.241    500.799    504.229    500.799
 55.270    543.514    549.987     -6.472    500.865    546.410    500.865    504.443    500.865
 55.370    588.000    553.103     34.897    500.932    549.366    500.932    504.671    500.932
 55.470    570.631    557.185     13.446    501.000    553.271    501.000    504.915    501.000
 55.570    550.000    562.552    -12.552    501.068    558.445    501.068    505.176    501.068
 55.670    537.375    569.880    -32.506    501.137    565.562    501.137    505.457    501.137
 55.770    518.000    580.637    -62.637    501.208    576.086    501.208    505.759    501.208
 55.870    625.000    597.919     27.081    501.279    593.111    501.279    506.085    501.279
 55.970    610.000    627.768    -17.768    501.350    622.676    501.350    506.438    501.350
 56.070    679.000    680.667     -1.667    501.423    675.259    501.423    506.821    501.423
 56.170    795.396    772.263     23.133    501.497    766.501    501.497    507.239    501.497
 56.270    890.000    921.653    -31.653    501.571    915.496    501.571    507.696    501.571
 56.370   1172.000   1145.657     26.343    501.646   1139.061    501.646    508.197    501.646
 56.470   1487.130   1449.106     38.024    501.722   1442.026    501.722    508.749    501.722
 56.570   1761.000   1813.856    -52.856    501.799   1806.248    501.799    509.361    501.799
 56.670   2140.000   2191.014    -51.014    501.876   2182.834    501.876    510.041    501.876
 56.770   2429.000   2501.566    -72.566    501.954   2492.763    501.954    510.801    501.954
 56.870   2671.000   2655.762     15.238    502.033   2646.266    502.033    511.656    502.033
 56.970   2643.337   2599.946     43.391    502.113   2589.646    502.113    512.624    502.113
 57.070   2283.000   2355.988    -72.988    502.193   2344.716    502.193    513.726    502.193
 57.170   2008.000   2003.121      4.879    502.275   1990.668    502.275    514.995    502.275
 57.270   1649.000   1628.660     20.340    502.356   1614.780    502.356    516.473    502.356
 57.370   1258.385   1296.424    -38.039    502.439   1280.824    502.439    518.227    502.439
 57.470   1079.000   1038.636     40.364    502.522   1020.936    502.522    520.357    502.522
 57.570    869.000    860.402      8.598    502.606    840.068    502.606    523.029    502.606
 57.670    759.000    749.876      9.124    502.691    726.113    502.691    526.507    502.691
 57.770    688.872    689.206     -0.334    502.776    660.809    502.776    531.202    502.776
 57.870    673.000    662.517     10.483    502.862    627.672    502.862    537.720    502.862
 57.970    671.000    659.646     11.354    502.949    615.703    502.949    546.892    502.949
 58.070    648.040    676.474    -28.434    503.036    619.740    503.036    559.760    503.036
 58.170    738.078    713.338     24.739    503.124    638.964    503.124    577.477    503.124
 58.270    726.000    772.653    -46.653    503.213    674.719    503.213    601.113    503.213
 58.370    827.238    856.335    -29.097    503.302    728.235    503.302    631.358    503.302
 58.470    939.000    963.525    -24.525    503.391    798.720    503.391    668.142    503.391
 58.570   1046.904   1088.698    -41.794    503.482    881.936    503.482    710.185    503.482
 58.670   1213.000   1220.944     -7.944    503.573    970.022    503.573    754.439    503.573
 58.770   1355.917   1345.147     10.770    503.664   1053.256    503.664    795.510    503.664
 58.870   1434.670   1445.009    -10.339    503.756   1122.994    503.756    825.742    503.756
 58.970   1506.000   1505.913      0.087    503.849   1172.349    503.849    837.404    503.849
 59.070   1508.000   1517.788     -9.788    503.942   1194.765    503.942    826.978    503.942
 59.170   1521.000   1479.808     41.192    504.035   1186.175    504.035    797.699    504.035
 59.270   1541.000   1403.464    137.536    504.130   1150.439    504.130    757.189    504.130
 59.370   1325.000   1308.899     16.101    504.224   1099.986    504.224    713.162    504.224
 59.470   1279.147   1217.213     61.934    504.319   1050.404    504.319    671.129    504.319
 59.570   1181.960   1146.348     35.612    504.415   1016.484    504.415    634.244    504.415
 59.670   1164.728   1111.352     53.376    504.511   1011.920    504.511    603.864    504.511
 59.770   1106.000   1123.362    -17.362    504.608   1047.731    504.608    580.109    504.608
 59.870   1162.935   1185.013    -22.078    504.705   1127.214    504.705    562.318    504.705
 59.970   1360.000   1285.992     74.008    504.803   1241.123    504.803    549.435    504.803
 60.070   1441.000   1401.926     39.074    504.900   1366.248    504.900    540.305    504.900
 60.170   1551.558   1497.377     54.181    504.999   1468.210    504.999    533.881    504.999
 60.270   1517.228   1535.300    -18.072    505.098   1510.817    505.098    529.320    505.098
 60.370   1552.661   1494.304     58.356    505.197   1473.284    505.197    526.009    505.197
 60.470   1458.000   1381.407     76.593    505.297   1363.029    505.297    523.529    505.297
 60.570   1269.000   1225.308     43.692    505.397   1209.001    505.397    521.616    505.397
 60.670   1141.000   1059.344     81.656    505.497   1044.692    505.497    520.106    505.497
 60.770    952.000    909.652     42.348    505.598    896.330    505.598    518.902    505.598
 60.870    759.000    790.971    -31.971    505.699    778.716    505.699    517.949    505.699
 60.970    740.000    707.375     32.625    505.800    695.959    505.800    517.214    505.800
 61.070    608.770    655.838    -47.068    505.902    645.056    505.902    516.680    505.902
 61.170    618.000    630.755    -12.755    506.004    620.417    506.004    516.332    506.004
 61.270    632.000    627.715      4.285    506.107    617.645    506.107    516.158    506.107
 61.370    662.000    645.554     16.446    506.210    635.594    506.210    516.139    506.210
 61.470    696.000    686.508      9.492    506.313    676.527    506.313    516.246    506.313
 61.570    792.000    754.613     37.387    506.416    744.528    506.416    516.430    506.416
 61.670    862.000    852.756      9.244    506.520    842.554    506.520    516.622    506.520
 61.770    940.000    979.055    -39.055    506.624    968.819    506.624    516.729    506.624
 61.870   1069.000   1123.696    -54.696    506.728   1113.607    506.728    516.659    506.728
 61.970   1220.000   1267.422    -47.422    506.832   1257.718    506.832    516.363    506.832
 62.070   1380.000   1382.893     -2.893    506.937   1373.800    506.937    515.859    506.937
 62.170   1382.000   1441.254    -59.254    507.042   1432.928    507.042    515.222    507.042
 62.270   1389.000   1425.082    -36.082    507.147   1417.587    507.147    514.537    507.147
 62.370   1250.000   1339.128    -89.128    507.252   1332.447    507.252    513.874    507.252
 62.470   1126.000   1206.972    -80.972    507.358   1201.033    507.358    513.274    507.358
 62.570   1033.778   1057.911    -24.133    507.464   1052.614    507.464    512.762    507.464
 62.670    911.000    916.427     -5.427    507.569    911.667    507.569    512.343    507.569
 62.770    763.639    797.874    -34.235    507.676    793.553    507.676    512.014    507.676
 62.870    754.525    708.293     46.231    507.782    704.325    507.782    511.764    507.782
 62.970    615.808    646.513    -30.705    507.888    642.829    507.888    511.581    507.888
 63.070    632.548    607.278     25.270    507.995    603.826    507.995    511.451    507.995
 63.170    543.176    584.189    -41.013    508.101    580.929    508.101    511.362    508.101
 63.270    604.615    571.672     32.944    508.208    568.575    508.208    511.303    508.208
 63.370    537.000    565.847    -28.847    508.315    562.890    508.315    511.267    508.315
 63.470    547.000    564.633    -17.633    508.422    561.799    508.422    511.249    508.422
 63.570    558.000    567.509     -9.509    508.529    564.784    508.529    511.244    508.529
 63.670    567.000    575.226     -8.226    508.636    572.598    508.636    511.250    508.636
 63.770    562.000    589.521    -27.521    508.743    586.978    508.743    511.266    508.743
 63.870    651.218    612.744     38.474    508.850    610.275    508.850    511.289    508.850
 63.970    676.000    647.250     28.750    508.957    644.845    508.957    511.320    508.957
 64.070    755.000    694.517     60.483    509.065    692.166    509.065    511.356    509.065
 64.170    741.000    754.089    -13.089    509.172    751.783    509.172    511.399    509.172
 64.270    831.000    822.578      8.422    509.279    820.312    509.279    511.446    509.279
 64.370    973.000    893.029     79.971    509.387    890.802    509.387    511.498    509.387
 64.470    983.000    955.151     27.849    509.494    952.967    509.494    511.554    509.494
 64.570    994.000    997.478     -3.478    509.601    995.344    509.601    511.614    509.601
 64.670   1050.312   1011.802     38.510    509.709   1009.726    509.709    511.677    509.709
 64.770   1038.789    996.818     41.971    509.816    994.804    509.816    511.744    509.816
 64.870    972.000    957.704     14.296    509.923    955.754    509.923    511.814    509.923
 64.970    910.000    903.326      6.674    510.030    901.437    510.030    511.887    510.030
 65.070    851.000    843.330      7.670    510.137    841.496    510.137    511.962    510.137
 65.170    813.631    785.567     28.064    510.244    783.779    510.244    512.041    510.244
 65.270    738.000    734.625      3.375    510.351    732.874    510.351    512.121    510.351
 65.370    730.285    692.021     38.265    510.458    690.300    510.458    512.204    510.458
 65.470    649.000    657.472     -8.472    510.564    655.772    510.564    512.289    510.564
 65.570    627.000    630.102     -3.102    510.671    628.419    510.671    512.376    510.671
 65.670    571.985    608.933    -36.948    510.777    607.262    510.777    512.465    510.777
 65.770    590.000    592.967     -2.967    510.884    591.307    510.884    512.557    510.884
 65.870    583.245    581.272      1.973    510.990    579.621    510.990    512.650    510.990
 65.970    532.000    573.047    -41.047    511.096    571.403    511.096    512.744    511.096
 66.070    546.000    567.638    -21.638    511.202    566.001    511.202    512.841    511.202
 66.170    603.179    564.515     38.664    511.307    562.884    511.307    512.939    511.307
 66.270    611.538    563.256     48.282    511.413    561.630    511.413    513.039    511.413
 66.370    521.649    563.552    -41.903    511.518    561.931    511.518    513.140    511.518
 66.470    552.000    565.242    -13.242    511.623    563.623    511.623    513.243    511.623
 66.570    559.000    568.377     -9.377    511.728    566.757    511.728    513.348    511.728
 66.670    589.000    573.337     15.663    511.832    571.716    511.832    513.455    511.832
 66.770    574.000    581.047     -7.047    511.937    579.422    511.937    513.563    511.937
 66.870    604.312    593.308     11.003    512.041    591.678    512.041    513.673    512.041
 66.970    658.000    613.268     44.732    512.145    611.629    512.145    513.784    512.145
 67.070    623.197    645.904    -22.707    512.248    644.252    512.248    513.897    512.248
 67.170    714.000    698.301     15.699    512.352    696.634    512.352    514.012    512.352
 67.270    782.317    779.342      2.974    512.455    777.657    512.455    514.129    512.455
 67.370    923.869    898.409     25.459    512.557    896.705    512.557    514.247    512.557
 67.470   1079.000   1062.886     16.114    512.660   1061.164    512.660    514.368    512.660
 67.570   1307.487   1274.707     32.780    512.762   1272.972    512.762    514.491    512.762
 67.670   1569.000   1526.740     42.260    512.863   1525.000    512.863    514.616    512.863
 67.770   1825.000   1800.074     24.926    512.965   1798.342    512.965    514.743    512.965
 67.870   1950.000   2063.237   -113.237    513.066   2061.527    513.066    514.872    513.066
 67.970   2339.000   2274.750     64.250    513.167   2273.073    513.167    515.005    513.167
 68.070   2425.000   2391.861     33.139    513.267   2390.222    513.267    515.138    513.267
 68.170   2384.000   2386.640     -2.640    513.367   2385.026    513.367    515.276    513.367
 68.270   2237.802   2260.509    -22.707    513.466   2258.889    513.466    515.417    513.466
 68.370   2095.000   2043.364     51.636    513.566   2041.704    513.566    515.561    513.566
 68.470   1809.000   1778.324     30.676    513.664   1776.590    513.664    515.709    513.664
 68.570   1577.000   1506.205     70.795    513.763   1504.375    513.763    515.862    513.763
 68.670   1219.000   1257.448    -38.448    513.861   1255.507    513.861    516.018    513.861
 68.770   1090.000   1049.906     40.094    513.958   1047.848    513.958    516.180    513.958
 68.870    856.000    889.824    -33.824    514.055    887.651    514.055    516.346    514.055
 68.970    779.000    774.672      4.328    514.152    772.385    514.152    516.519    514.152
 69.070    672.175    696.780    -24.605    514.248    694.384    514.248    516.697    514.248
 69.170    652.222    646.735      5.487    514.343    644.230    514.343    516.883    514.343
 69.270    654.000    615.772     38.228    514.439    613.156    514.439    517.076    514.439
 69.370    569.000    596.972    -27.972    514.533    594.241    514.533    517.278    514.533
 69.470    579.000    585.508     -6.508    514.627    582.655    514.627    517.490    514.627
 69.570    599.000    578.329     20.671    514.721    575.345    514.721    517.713    514.721
 69.670    586.000    573.663     12.337    514.814    570.536    514.814    517.947    514.814
 69.770    611.000    570.546     40.454    514.907    567.262    514.907    518.195    514.907
 69.870    585.000    568.479     16.521    514.999    565.023    514.999    518.458    514.999
 69.970    581.973    567.217     14.757    515.090    563.570    515.090    518.739    515.090
 70.070    610.107    566.645     43.462    515.181    562.789    515.181    519.039    515.181
 70.170    593.000    566.732     26.268    515.272    562.642    515.272    519.361    515.272
 70.270    609.000    567.509     41.491    515.361    563.160    515.361    519.710    515.361
 70.370    527.364    569.096    -41.732    515.451    564.457    515.451    520.088    515.451
 70.470    553.000    571.754    -18.754    515.539    566.790    515.539    520.500    515.539
 70.570    571.921    575.991     -4.070    515.627    570.660    515.627    520.953    515.627
 70.670    554.000    582.722    -28.722    515.715    576.975    515.715    521.453    515.715
 70.770    562.000    593.496    -31.496    515.802    587.275    515.802    522.011    515.802
 70.870    582.000    610.749    -28.749    515.888    603.979    515.888    522.640    515.888
 70.970    637.000    638.005     -1.005    515.973    630.590    515.973    523.361    515.973
 71.070    680.000    679.882      0.118    516.058    671.696    516.058    524.203    516.058
 71.170    723.000    741.735    -18.735    516.142    732.600    516.142    525.217    516.142
 71.270    822.000    828.765     -6.765    516.226    818.429    516.226    526.479    516.226
 71.370    951.000    944.615      6.385    516.309    932.704    516.309    528.109    516.309
 71.470   1056.000   1089.586    -33.586    516.391   1075.548    516.391    530.288    516.391
 71.570   1317.364   1258.923     58.441    516.472   1241.949    516.472    533.278    516.472
 71.670   1433.446   1441.612     -8.166    516.553   1420.540    516.553    537.435    516.553
 71.770   1694.000   1620.096     73.904    516.633   1593.317    516.633    543.210    516.633
 71.870   1719.432   1771.484    -52.052    516.713   1736.868    516.713    551.132    516.713
 71.970   1889.000   1871.483     17.517    516.791   1826.349    516.791    561.750    516.791
 72.070   1912.000   1901.987     10.013    516.869   1843.170    516.869    575.544    516.869
 72.170   1829.000   1859.382    -30.382    516.946   1783.422    516.946    592.803    516.946
 72.270   1680.573   1756.576    -76.002    517.023   1660.048    517.023    613.483    517.023
 72.370   1672.000   1616.408     55.592    517.098   1496.407    517.098    637.059    517.098
 72.470   1473.647   1462.590     11.058    517.173   1317.343    517.173    662.398    517.173
 72.570   1375.369   1313.890     61.479    517.247   1143.491    517.247    687.634    517.247
 72.670   1184.553   1181.922      2.632    517.321    989.094    517.321    710.140    517.321
 72.770   1038.000   1071.138    -33.138    517.393    861.771    517.393    726.752    517.393
 72.870    917.000    980.464    -63.464    517.465    763.403    517.465    734.517    517.465
 72.970    864.000    906.039    -42.039    517.536    691.703    517.536    731.862    517.536
 73.070    869.424    843.822     25.603    517.606    642.042    517.606    719.376    517.606
 73.170    684.000    790.893   -106.893    517.675    609.067    517.675    699.492    517.675
 73.270    695.000    745.483    -50.483    517.744    587.836    517.744    675.382    517.744
 73.370    662.000    706.574    -44.574    517.811    574.404    517.811    649.975    517.811
 73.470    644.000    673.589    -29.589    517.878    565.954    517.878    625.509    517.878
 73.570    665.000    646.186     18.814    517.944    560.664    517.944    603.463    517.944
 73.670    602.000    624.093    -22.093    518.009    557.458    518.009    584.645    518.009
 73.770    586.000    606.988    -20.988    518.073    555.749    518.073    569.316    518.073
 73.870    601.000    594.419      6.581    518.136    555.231    518.136    557.332    518.136
 73.970    543.743    585.801    -42.057    518.198    555.720    518.198    548.292    518.198
 74.070    568.973    580.438    -11.465    518.260    557.049    518.260    541.667    518.260
 74.170    537.914    577.569    -39.654    518.320    559.002    518.320    536.911    518.320
 74.270    538.423    576.395    -37.972    518.380    561.274    518.380    533.531    518.380
 74.370    647.000    576.116     70.884    518.439    563.465    518.439    531.125    518.439
 74.470    623.982    575.962     48.020    518.496    565.113    518.496    529.385    518.496
 74.570    611.000    575.272     35.728    518.553    565.774    518.553    528.094    518.553
 74.670    687.000    573.621    113.379    518.609    565.169    518.609    527.104    518.609
 74.770    653.000    570.925     82.075    518.664    563.312    518.664    526.318    518.664
 74.870    620.000    567.426     52.574    518.718    560.505    518.718    525.676    518.718
 74.970    516.972    563.563    -46.590    518.771    557.227    518.771    525.139    518.771
 75.070    618.000    559.835     58.165    518.823    554.002    518.823    524.681    518.823
 75.170    539.216    556.731    -17.515    518.874    551.338    518.874    524.286    518.874
 75.270    558.000    554.720      3.280    518.924    549.714    518.924    523.943    518.924
 75.370    518.482    554.265    -35.783    518.973    549.602    518.973    523.644    518.973
 75.470    529.000    555.847    -26.847    519.021    551.489    519.021    523.380    519.021
 75.570    581.000    559.967     21.033    519.069    555.883    519.069    523.149    519.069
 75.670    552.000    567.122    -15.122    519.115    563.282    519.115    522.944    519.115
 75.770    582.000    577.720      4.280    519.160    574.100    519.160    522.763    519.160
 75.870    621.035    591.954     29.081    519.204    588.532    519.204    522.602    519.204
 75.970    604.916    609.646     -4.730    519.247    606.401    519.247    522.459    519.247
 76.070    624.248    630.095     -5.847    519.288    627.011    519.288    522.331    519.288
 76.170    681.127    651.983     29.144    519.329    649.046    519.329    522.218    519.329
 76.270    691.000    673.348     17.652    519.369    670.546    519.369    522.116    519.369
 76.370    671.000    691.684    -20.684    519.408    689.007    519.408    522.025    519.408
 76.470    688.000    704.255    -16.255    519.446    701.695    519.446    521.943    519.446
 76.570    664.434    708.772    -44.338    519.482    706.324    519.482    521.870    519.482
 76.670    707.000    704.281      2.719    519.518    701.941    519.518    521.804    519.518
 76.770    654.000    691.622    -37.622    519.552    689.383    519.552    521.744    519.552
 76.870    669.000    673.011     -4.011    519.586    670.868    519.586    521.691    519.586
 76.970    619.221    651.162    -31.941    519.618    649.108    519.618    521.642    519.618
 77.070    595.000    628.588    -33.588    519.649    626.617    519.649    521.599    519.649
 77.170    581.000    607.260    -26.260    519.679    605.365    519.679    521.559    519.679
 77.270    539.000    588.495    -49.495    519.708    586.670    519.708    521.523    519.708
 77.370    538.000    572.969    -34.969    519.736    571.208    519.736    521.490    519.736
 77.470    565.000    560.809      4.191    519.762    559.107    519.762    521.460    519.762
 77.570    523.569    551.745    -28.176    519.788    550.097    519.788    521.433    519.788
 77.670    561.000    545.261     15.739    519.812    543.663    519.812    521.408    519.812
 77.770    507.000    540.789    -33.789    519.835    539.238    519.835    521.385    519.835
 77.870    579.000    537.811     41.189    519.857    536.303    519.857    521.364    519.857
 77.970    563.000    535.848     27.152    519.878    534.381    519.878    521.344    519.878
 78.070    538.000    534.554      3.446    519.898    533.125    519.898    521.326    519.898
 78.170    559.638    533.689     25.948    519.917    532.296    519.917    521.309    519.917
 78.270    539.000    533.100      5.900    519.934    531.740    519.934    521.293    519.934
 78.370    542.000    532.691      9.309    519.950    531.363    519.950    521.278    519.950
 78.470    522.000    532.414    -10.414    519.965    531.115    519.965    521.264    519.965
 78.570    554.000    532.245     21.755    519.979    530.973    519.979    521.251    519.979
 78.670    523.959    532.179     -8.220    519.992    530.931    519.992    521.239    519.992
 78.770    493.000    532.224    -39.224    520.003    530.999    520.003    521.228    520.003
 78.870    541.000    532.397      8.603    520.014    531.192    520.014    521.218    520.014
 78.970    524.000    532.721     -8.721    520.023    531.534    520.023    521.209    520.023
 79.070    544.000    533.223     10.777    520.030    532.051    520.030    521.202    520.030
 79.170    519.000    533.937    -14.937    520.037    532.775    520.037    521.197    520.037
 79.270    520.432    534.888    -14.457    520.042    533.734    520.042    521.195    520.042
 79.370    532.000    536.104     -4.104    520.047    534.951    520.047    521.196    520.047
 79.470    476.000    537.608    -61.608    520.049    536.451    520.049    521.202    520.049
 79.570    527.329    539.434    -12.105    520.051    538.267    520.051    521.214    520.051
 79.670    516.000    541.633    -25.633    520.051    540.448    520.051    521.231    520.051
 79.770    577.730    544.290     33.440    520.051    543.079    520.051    521.256    520.051
 79.870    534.000    547.545    -13.545    520.049    546.301    520.049    521.287    520.049
 79.970    564.000    551.621     12.379    520.045    550.336    520.045    521.325    520.045
 80.070    530.130    556.842    -26.712    520.041    555.510    520.041    521.369    520.041
 80.170    518.000    563.637    -45.637    520.035    562.253    520.035    521.416    520.035
 80.270    565.000    572.487     -7.487    520.028    571.049    520.028    521.464    520.028
 80.370    604.000    583.825     20.175    520.019    582.338    520.019    521.509    520.019
 80.470    581.347    597.926    -16.579    520.010    596.396    520.010    521.546    520.010
 80.570    614.000    614.789     -0.789    519.999    613.231    519.999    521.567    519.999
 80.670    626.000    634.065     -8.065    519.986    632.498    519.986    521.568    519.986
 80.770    681.000    655.016     25.984    519.973    653.464    519.973    521.546    519.973
 80.870    680.349    676.543      3.806    519.958    675.029    519.958    521.499    519.958
 80.970    704.000    697.308      6.692    519.942    695.851    519.942    521.432    519.942
 81.070    692.091    715.924    -23.833    519.924    714.539    519.924    521.350    519.924
 81.170    759.000    731.142     27.858    519.906    729.836    519.906    521.259    519.906
 81.270    766.939    741.967     24.972    519.886    740.741    519.886    521.165    519.886
 81.370    760.000    747.731     12.269    519.864    746.584    519.864    521.071    519.864
 81.470    707.227    748.166    -40.939    519.842    747.091    519.842    520.980    519.842
 81.570    774.000    743.409     30.591    519.818    742.399    519.818    520.894    519.818
 81.670    704.000    733.956    -29.956    519.793    733.002    519.793    520.815    519.793
 81.770    715.000    720.635     -5.635    519.766    719.727    519.766    520.742    519.766
 81.870    708.000    704.576      3.424    519.738    703.706    519.738    520.676    519.738
 81.970    646.000    687.055    -41.055    519.709    686.214    519.709    520.615    519.709
 82.070    686.000    669.227     16.773    519.678    668.409    519.678    520.559    519.678
 82.170    632.000    651.924    -19.924    519.646    651.123    519.646    520.506    519.646
 82.270    635.000    635.606     -0.606    519.613    634.817    519.613    520.456    519.613
 82.370    602.539    620.464    -17.926    519.578    619.684    519.578    520.408    519.578
 82.470    635.901    606.589     29.312    519.543    605.814    519.543    520.362    519.543
 82.570    621.000    594.085     26.915    519.505    593.313    519.505    520.316    519.505
 82.670    542.390    583.103    -40.712    519.467    582.331    519.467    520.270    519.467
 82.770    569.000    573.804     -4.804    519.427    573.032    519.427    520.224    519.427
 82.870    558.000    566.333     -8.333    519.386    565.559    519.386    520.178    519.386
 82.970    587.675    560.797     26.878    519.343    560.021    519.343    520.131    519.343
 83.070    526.171    557.254    -31.084    519.299    556.475    519.299    520.083    519.299
 83.170    577.021    555.694     21.327    519.254    554.910    519.254    520.035    519.254
 83.270    479.000    556.017    -77.017    519.207    555.228    519.207    519.985    519.207
 83.370    604.000    558.018     45.982    519.159    557.225    519.159    519.935    519.159
 83.470    579.000    561.377     17.623    519.110    560.579    519.110    519.884    519.110
 83.570    590.092    565.658     24.434    519.059    564.855    519.059    519.831    519.059
 83.670    540.000    570.323    -30.323    519.007    569.515    519.007    519.778    519.007
 83.770    529.984    574.758    -44.775    518.953    573.947    518.953    519.724    518.953
 83.870    578.000    578.327     -0.327    518.898    577.513    518.898    519.669    518.898
 83.970    556.596    580.447    -23.851    518.842    579.633    518.842    519.612    518.842
 84.070    573.201    580.712     -7.511    518.785    579.899    518.785    519.555    518.785
 84.170    546.000    579.000    -33.000    518.726    578.189    518.726    519.496    518.726
 84.270    584.000    575.500      8.500    518.665    574.691    518.665    519.437    518.665
 84.370    551.729    570.635    -18.906    518.604    569.830    518.604    519.376    518.604
 84.470    543.000    564.936    -21.936    518.541    564.135    518.541    519.315    518.541
 84.570    567.000    558.927      8.073    518.476    558.129    518.476    519.252    518.476
 84.670    563.000    553.059      9.941    518.411    552.264    518.411    519.188    518.411
 84.770    520.334    547.675    -27.341    518.344    546.881    518.344    519.123    518.344
 84.870    511.029    542.998    -31.968    518.275    542.205    518.275    519.057    518.275
 84.970    531.000    539.134     -8.134    518.205    538.341    518.205    518.990    518.205
 85.070    544.563    536.094      8.469    518.134    535.299    518.134    518.922    518.134
 85.170    573.805    533.819     39.986    518.062    533.023    518.062    518.852    518.062
 85.270    550.000    532.211     17.789    517.988    531.412    517.988    518.782    517.988
 85.370    499.000    531.159    -32.159    517.912    530.357    517.912    518.711    517.912
 85.470    533.000    530.564      2.436    517.836    529.757    517.836    518.638    517.836
 85.570    539.000    530.349      8.651    517.758    529.537    517.758    518.565    517.758
 85.670    556.589    530.474     26.115    517.678    529.657    517.678    518.490    517.678
 85.770    506.403    530.939    -24.536    517.597    530.116    517.597    518.414    517.597
 85.870    506.927    531.786    -24.858    517.515    530.956    517.515    518.338    517.515
 85.970    560.543    533.099     27.444    517.432    532.261    517.432    518.260    517.432
 86.070    557.560    535.004     22.556    517.347    534.158    517.347    518.181    517.347
 86.170    577.000    537.662     39.338    517.261    536.806    517.261    518.101    517.261
 86.270    545.000    541.253      3.747    517.173    540.386    517.173    518.020    517.173
 86.370    589.471    545.961     43.510    517.084    545.081    517.084    517.939    517.084
 86.470    544.000    551.943     -7.943    516.994    551.047    516.994    517.856    516.994
 86.570    552.605    559.293     -6.688    516.902    558.380    516.902    517.772    516.902
 86.670    563.000    568.004     -5.004    516.809    567.074    516.809    517.688    516.809
 86.770    581.000    577.933      3.067    516.715    576.982    516.715    517.602    516.715
 86.870    569.400    588.766    -19.366    516.619    587.794    516.619    517.515    516.619
 86.970    597.000    600.008     -3.008    516.522    599.015    516.522    517.428    516.522
 87.070    608.884    610.985     -2.102    516.424    609.972    516.424    517.340    516.424
 87.170    613.368    620.874     -7.507    516.324    619.842    516.324    517.251    516.324
 87.270    642.661    628.778     13.883    516.223    627.729    516.223    517.161    516.223
 87.370    657.000    633.865     23.135    516.121    632.802    516.121    517.070    516.121
 87.470    625.000    635.560    -10.560    516.017    634.488    516.017    516.979    516.017
 87.570    664.000    633.720     30.280    515.912    632.642    515.912    516.887    515.912
 87.670    580.242    628.671    -48.429    515.806    627.589    515.806    516.794    515.806
 87.770    656.000    621.100     34.900    515.698    620.015    515.698    516.700    515.698
 87.870    655.000    611.918     43.082    515.589    610.831    515.589    516.606    515.589
 87.970    610.000    602.076      7.924    515.478    600.987    515.478    516.511    515.478
 88.070    590.227    592.457     -2.230    515.367    591.364    515.367    516.416    515.367
 88.170    604.000    583.830     20.170    515.254    582.732    515.254    516.321    515.254
 88.270    563.000    576.802    -13.802    515.139    575.697    515.139    516.225    515.139
 88.370    567.000    571.793     -4.793    515.024    570.677    515.024    516.128    515.024
 88.470    594.000    569.026     24.974    514.907    567.898    514.907    516.031    514.907
 88.570    586.000    568.532     17.468    514.789    567.392    514.789    515.935    514.789
 88.670    593.000    570.165     22.835    514.669    569.010    514.669    515.838    514.669
 88.770    580.000    573.616      6.384    514.548    572.445    514.548    515.741    514.548
 88.870    594.000    578.436     15.564    514.426    577.247    514.426    515.644    514.426
 88.970    624.000    584.060     39.940    514.303    582.851    514.303    515.547    514.303
 89.070    617.000    589.836     27.164    514.178    588.607    514.178    515.451    514.178
 89.170    611.000    595.066     15.934    514.052    593.813    514.052    515.355    514.052
 89.270    599.000    599.062     -0.062    513.925    597.783    513.925    515.259    513.925
 89.370    606.000    601.237      4.763    513.796    599.928    513.796    515.165    513.796
 89.470    582.000    601.214    -19.214    513.666    599.871    513.666    515.071    513.666
 89.570    625.627    598.912     26.715    513.535    597.531    513.535    514.978    513.535
 89.670    620.000    594.552     25.448    513.403    593.128    513.403    514.887    513.403
 89.770    566.936    588.581    -21.645    513.269    587.108    513.269    514.798    513.269
 89.870    615.440    581.550     33.889    513.134    580.026    513.134    514.710    513.134
 89.970    573.000    574.022     -1.022    512.998    572.440    512.998    514.625    512.998
 90.070    541.000    566.495    -25.495    512.861    564.853    512.861    514.542    512.861
 90.170    577.000    559.376     17.624    512.722    557.667    512.722    514.462    512.722
 90.270    522.000    552.957    -30.957    512.583    551.178    512.583    514.386    512.583
 90.370    569.000    547.419     21.581    512.442    545.566    512.442    514.315    512.442
 90.470    546.000    542.841      3.159    512.300    540.907    512.300    514.249    512.300
 90.570    527.000    539.215    -12.215    512.156    537.193    512.156    514.189    512.156
 90.670    579.000    536.475     42.525    512.012    534.358    512.012    514.136    512.012
 90.770    507.000    534.519    -27.519    511.866    532.296    511.866    514.095    511.866
 90.870    500.000    533.236    -33.236    511.719    530.892    511.719    514.066    511.719
 90.970    517.000    532.519    -15.519    511.571    530.036    511.571    514.055    511.571
 91.070    513.442    532.288    -18.847    511.421    529.643    511.421    514.066    511.421
 91.170    508.000    532.495    -24.495    511.271    529.658    511.271    514.107    511.271
 91.270    537.000    533.094      3.906    511.119    530.025    511.119    514.186    511.119
 91.370    529.000    534.186     -5.186    510.966    530.833    510.966    514.317    510.966
 91.470    559.000    535.844     23.156    510.812    532.139    510.812    514.513    510.812
 91.570    524.000    538.179    -14.179    510.657    534.036    510.657    514.794    510.657
 91.670    498.000    541.360    -43.360    510.501    536.671    510.501    515.182    510.501
 91.770    568.211    545.593     22.618    510.343    540.225    510.343    515.701    510.343
 91.870    570.933    551.113     19.820    510.185    544.906    510.185    516.379    510.185
 91.970    555.916    558.166     -2.250    510.025    550.929    510.025    517.245    510.025
 92.070    548.000    566.985    -18.985    509.864    558.500    509.864    518.327    509.864
 92.170    552.000    577.766    -25.766    509.702    567.792    509.702    519.650    509.702
 92.270    592.000    590.640      1.360    509.540    578.916    509.540    521.231    509.540
 92.370    646.986    605.642     41.344    509.376    591.896    509.376    523.082    509.376
 92.470    624.167    622.683      1.484    509.210    606.648    509.210    525.199    509.210
 92.570    622.566    641.528    -18.962    509.044    622.956    509.044    527.564    509.044
 92.670    693.000    661.793     31.207    508.877    640.473    508.877    530.138    508.877
 92.770    699.000    682.937     16.063    508.709    658.717    508.709    532.864    508.709
 92.870    717.348    704.268     13.080    508.539    677.081    508.539    535.655    508.539
 92.970    733.222    725.007      8.215    508.369    694.900    508.369    538.402    508.369
 93.070    712.352    744.386    -32.034    508.198    711.543    508.198    540.964    508.198
 93.170    771.071    761.770      9.301    508.025    726.541    508.025    543.176    508.025
 93.270    794.000    776.771     17.229    507.852    739.680    507.852    544.865    507.852
 93.370    759.918    789.286    -29.367    507.678    751.017    507.678    545.869    507.678
 93.470    837.000    799.460     37.540    507.502    760.812    507.502    546.075    507.502
 93.570    760.000    807.611    -47.611    507.326    769.420    507.326    545.445    507.326
 93.670    841.000    814.169     26.831    507.149    777.220    507.149    544.028    507.149
 93.770    813.659    819.655     -5.996    506.970    784.611    506.970    541.947    506.970
 93.870    835.000    824.688     10.312    506.791    792.048    506.791    539.367    506.791
 93.970    849.609    829.959     19.649    506.611    800.045    506.611    536.463    506.611
 94.070    893.000    836.132     56.868    506.430    809.106    506.430    533.396    506.430
 94.170    827.000    843.677    -16.677    506.248    819.565    506.248    530.302    506.248
 94.270    889.000    852.705     36.295    506.065    831.425    506.065    527.289    506.065
 94.370    861.000    862.856     -1.856    505.881    844.246    505.881    524.437    505.881
 94.470    895.000    873.285     21.715    505.696    857.129    505.696    521.804    505.696
 94.570    825.025    882.733    -57.708    505.511    868.777    505.511    519.423    505.511
 94.670    855.384    889.666    -34.282    505.324    877.642    505.324    517.311    505.324
 94.770    909.000    892.506     16.494    505.137    882.144    505.137    515.468    505.137
 94.870    929.000    889.916     39.084    504.949    880.960    504.949    513.884    504.949
 94.970    881.000    881.116     -0.116    504.760    873.325    504.760    512.538    504.760
 95.070    837.807    866.083    -28.276    504.570    859.242    504.570    511.407    504.570
 95.170    881.000    845.573     35.427    504.380    839.494    504.380    510.461    504.380
 95.270    828.000    820.950      7.050    504.188    815.475    504.188    509.671    504.188
 95.370    775.797    794.002    -18.206    503.996    788.998    503.996    509.012    503.996
 95.470    790.000    766.639     23.361    503.803    761.996    503.803    508.459    503.803
 95.570    707.719    740.767    -33.047    503.610    736.399    503.610    507.990    503.610
 95.670    715.000    718.185     -3.185    503.415    714.026    503.415    507.585    503.415
 95.770    698.054    700.525     -2.470    503.220    696.518    503.220    507.233    503.220
 95.870    735.173    689.208     45.965    503.024    685.310    503.024    506.922    503.024
 95.970    675.000    685.440    -10.440    502.828    681.618    502.828    506.644    502.828
 96.070    637.628    690.217    -52.589    502.630    686.443    502.630    506.390    502.630
 96.170    677.000    704.320    -27.320    502.432    700.571    502.432    506.157    502.432
 96.270    711.000    728.307    -17.307    502.234    724.566    502.234    505.941    502.234
 96.370    738.434    762.472    -24.037    502.035    758.722    502.035    505.740    502.035
 96.470    775.602    806.775    -31.173    501.835    803.003    501.835    505.551    501.835
 96.570    872.139    860.758     11.382    501.634    856.951    501.634    505.374    501.634
 96.670    900.000    923.443    -23.443    501.433    919.591    501.433    505.208    501.433
 96.770   1025.000    993.255     31.745    501.231    989.348    501.231    505.053    501.231
 96.870   1056.303   1067.962    -11.659    501.029   1063.991    501.029    504.909    501.029
 96.970   1118.177   1144.664    -26.487    500.826   1140.620    500.826    504.775    500.826
 97.070   1209.000   1219.833    -10.833    500.622   1215.708    500.622    504.651    500.622
 97.170   1288.000   1289.431     -1.431    500.418   1285.219    500.418    504.540    500.418
 97.270   1369.000   1349.153     19.847    500.214   1344.846    500.214    504.439    500.214
 97.370   1398.000   1394.828      3.172    500.009   1390.418    500.009    504.352    500.009
 97.470   1517.000   1423.007     93.993    499.803   1418.484    499.803    504.278    499.803
 97.570   1498.000   1431.588     66.412    499.597   1426.939    499.597    504.218    499.597
 97.670   1410.933   1420.221     -9.288    499.391   1415.430    499.391    504.175    499.391
 97.770   1434.000   1390.346     43.654    499.184   1385.393    499.184    504.150    499.184
 97.870   1378.031   1344.811     33.220    498.976   1339.673    498.976    504.145    498.976
 97.970   1340.737   1287.319     53.418    498.769   1281.967    498.769    504.165    498.769
 98.070   1233.000   1221.916     11.084    498.560   1216.316    498.560    504.214    498.560
 98.170   1189.962   1152.622     37.340    498.352   1146.734    498.352    504.299    498.352
 98.270   1095.000   1083.195     11.805    498.143   1076.972    498.143    504.427    498.143
 98.370   1070.000   1016.990     53.010    497.934   1010.373    497.934    504.610    497.934
 98.470    946.000    956.885    -10.885    497.724    949.800    497.724    504.862    497.724
 98.570    871.226    905.255    -34.029    497.514    897.610    497.514    505.204    497.514
 98.670    878.000    863.992     14.008    497.304    855.672    497.304    505.661    497.304
 98.770    782.000    834.549    -52.549    497.093    825.406    497.093    506.263    497.093
 98.870    776.000    818.001    -42.001    496.882    807.849    496.882    507.052    496.882
 98.970    780.000    815.117    -35.117    496.671    803.721    496.671    508.075    496.671
 99.070    868.693    826.402     42.291    496.460    813.470    496.460    509.390    496.460
 99.170    843.000    852.177     -9.177    496.248    837.353    496.248    511.064    496.248
 99.270    912.008    892.520     19.487    496.036    875.370    496.036    513.172    496.036
 99.370    941.000    947.237     -6.237    495.824    927.248    495.824    515.794    495.824
 99.470    980.513   1015.809    -35.296    495.612    992.386    495.612    519.014    495.612
 99.570   1145.496   1097.297     48.198    495.400   1069.762    495.400    522.914    495.400
 99.670   1138.900   1190.256    -51.356    495.188   1157.856    495.188    527.571    495.188
 99.770   1267.000   1292.645    -25.645    494.975   1254.567    494.975    533.044    494.975
 99.870   1357.412   1401.779    -44.367    494.763   1357.170    494.763    539.374    494.763
 99.970   1603.000   1514.321     88.679    494.550   1462.317    494.550    546.572    494.550
100.070   1671.000   1626.358     44.642    494.337   1566.122    494.337    554.610    494.337
100.170   1746.000   1733.595     12.405    494.124   1664.362    494.124    563.417    494.124
100.270   1859.000   1831.673     27.327    493.912   1752.799    493.912    572.871    493.912
100.370   1926.000   1916.552      9.448    493.699   1827.572    493.699    582.790    493.699
100.470   2013.000   1984.834     28.166    493.486   1885.525    493.486    592.932    493.486
100.570   2076.000   2033.914     42.086    493.273   1924.359    493.273    602.989    493.273
100.670   2056.000   2061.968     -5.968    493.061   1942.626    493.061    612.585    493.061
100.770   2110.000   2067.914     42.086    492.848   1939.677    492.848    621.285    492.848
100.870   2043.686   2051.509     -7.823    492.636   1915.744    492.636    628.613    492.636
100.970   2040.973   2013.595     27.378    492.423   1872.139    492.423    634.100    492.423
101.070   1872.764   1956.334    -83.570    492.211   1811.430    492.211    637.338    492.211
101.170   1895.000   1883.219     11.781    491.999   1737.379    491.999    638.058    491.999
101.270   1762.525   1798.759    -36.234    491.787   1654.573    491.787    636.185    491.787
101.370   1720.000   1707.944     12.056    491.576   1567.867    491.576    631.853    491.576
101.470   1534.000   1615.667    -81.667    491.364   1481.839    491.364    625.378    491.364
101.570   1523.000   1526.259     -3.259    491.153   1400.388    491.153    617.194    491.153
101.670   1372.499   1443.191    -70.692    490.942   1326.509    490.942    607.777    490.942
101.770   1366.000   1368.923     -2.923    490.732   1262.195    490.732    597.596    490.732
101.870   1368.980   1304.865     64.116    490.521   1208.438    490.521    587.071    490.521
101.970   1236.000   1251.412    -15.412    490.311   1165.277    490.311    576.557    490.311
102.070   1235.627   1208.040     27.587    490.102   1131.897    490.102    566.344    490.102
102.170   1122.000   1173.429    -51.429    489.893   1106.757    489.893    556.657    489.893
102.270   1169.000   1145.644     23.356    489.684   1087.757    489.684    547.658    489.684
102.370   1166.474   1122.343     44.131    489.475   1072.448    489.475    539.455    489.475
102.470   1163.000   1101.041     61.959    489.267   1058.287    489.267    532.105    489.267
102.570   1031.000   1079.411    -48.411    489.060   1042.932    489.060    525.624    489.060
102.670   1065.000   1055.585      9.415    488.853   1024.532    488.853    519.991    488.853
102.770   1042.000   1028.372     13.628    488.647   1001.945    488.647    515.160    488.647
102.870   1044.135    997.338     46.797    488.441    974.800    488.441    511.065    488.441
102.970    984.224    962.726     21.499    488.235    943.418    488.235    507.628    488.235
103.070    951.090    925.267     25.822    488.031    908.615    488.031    504.765    488.031
103.170    871.000    885.978    -14.978    487.826    871.489    487.826    502.393    487.826
103.270    890.347    845.977     44.369    487.623    833.241    487.623    500.433    487.623
103.370    787.000    806.367    -19.367    487.420    795.043    487.420    498.812    487.420
103.470    824.000    768.144     55.856    487.218    757.956    487.218    497.466    487.218
103.570    777.025    732.146     44.879    487.016    722.876    487.016    496.341    487.016
103.670    732.000    699.021     32.979    486.816    690.494    486.816    495.390    486.816
103.770    708.432    669.211     39.220    486.616    661.292    486.616    494.575    486.616
103.870    659.000    642.954     16.046    486.417    635.536    486.417    493.868    486.417
103.970    644.639    620.300     24.339    486.218    613.301    486.218    493.245    486.218
104.070    635.842    601.143     34.699    486.021    594.499    486.021    492.688    486.021
104.170    564.000    585.259    -21.259    485.824    578.919    485.824    492.182    485.824
104.270    584.000    572.334     11.666    485.628    566.258    485.628    491.719    485.628
104.370    561.000    562.015     -1.015    485.434    556.170    485.434    491.289    485.434
104.470    564.000    553.932     10.068    485.240    548.291    485.240    490.887    485.240
104.570    569.000    547.725     21.275    485.047    542.267    485.047    490.510    485.047
104.670    565.619    543.088     22.532    484.855    537.793    484.855    490.153    484.855
104.770    569.000    539.741     29.259    484.664    534.592    484.664    489.814    484.664
104.870    574.000    537.459     36.541    484.474    532.442    484.474    489.491    484.474
104.970    545.000    536.072      8.928    484.285    531.173    484.285    489.183    484.285
105.070    532.000    535.463     -3.463    484.098    530.669    484.098    488.888    484.098
105.170    558.528    535.562     22.967    483.911    530.863    483.911    488.606    483.911
105.270    564.520    536.344     28.176    483.726    531.729    483.726    488.335    483.726
105.370    548.000    537.823     10.177    483.542    533.283    483.542    488.074    483.542
105.470    530.000    540.048    -10.048    483.359    535.574    483.359    487.824    483.359
105.570    501.654    543.092    -41.438    483.177    538.675    483.177    487.583    483.177
105.670    529.000    547.045    -18.045    482.997    542.677    482.997    487.351    482.997
105.770    511.000    552.001    -41.001    482.817    547.675    482.817    487.128    482.817
105.870    584.000    558.045     25.955    482.640    553.753    482.640    486.913    482.640
105.970    594.000    565.237     28.763    482.463    560.973    482.463    486.706    482.463
106.070    571.000    573.601     -2.601    482.288    569.358    482.288    486.506    482.288
106.170    587.000    583.110      3.890    482.114    578.882    482.114    486.314    482.114
106.270    574.825    593.678    -18.853    481.942    589.460    481.942    486.130    481.942
106.370    620.000    605.157     14.843    481.771    600.943    481.771    485.952    481.771
106.470    623.000    617.332      5.668    481.602    613.116    481.602    485.782    481.602
106.570    626.542    629.925     -3.383    481.435    625.702    481.435    485.618    481.435
106.670    648.738    642.599      6.139    481.268    638.365    481.268    485.461    481.268
106.770    627.000    654.974    -27.974    481.104    650.725    481.104    485.310    481.104
106.870    664.000    666.641     -2.641    480.941    662.371    480.941    485.167    480.941
106.970    658.000    677.186    -19.186    480.780    672.893    480.780    485.030    480.780
107.070    660.000    686.231    -26.231    480.620    681.910    480.620    484.900    480.620
107.170    647.000    693.477    -46.477    480.463    689.124    480.463    484.776    480.463
107.270    657.975    698.755    -40.779    480.306    694.364    480.306    484.659    480.306
107.370    700.616    702.059     -1.443    480.152    697.627    480.152    484.550    480.152
107.470    726.582    703.557     23.025    480.000    699.080    480.000    484.447    480.000
107.570    693.000    703.569    -10.569    479.849    699.041    479.849    484.351    479.849
107.670    712.000    702.504      9.496    479.700    697.920    479.700    484.262    479.700
107.770    685.000    700.805    -15.805    479.554    696.160    479.554    484.181    479.554
107.870    654.000    698.891    -44.891    479.409    694.179    479.409    484.107    479.409
107.970    722.508    697.114     25.394    479.266    692.330    479.266    484.041    479.266
108.070    737.566    695.726     41.840    479.125    690.867    479.125    483.978    479.125
108.170    696.000    694.877      1.123    478.986    689.934    478.986    483.928    478.986
108.270    678.000    694.585    -16.585    478.850    689.550    478.850    483.887    478.850
108.370    660.000    694.747    -34.747    478.715    689.613    478.715    483.855    478.715
108.470    682.547    695.146    -12.600    478.582    689.907    478.582    483.831    478.582
108.570    680.000    695.472    -15.472    478.452    690.119    478.452    483.818    478.452
108.670    655.000    695.345    -40.345    478.324    689.871    478.324    483.814    478.324
108.770    674.000    694.364    -20.364    478.198    688.760    478.198    483.820    478.198
108.870    706.248    692.158     14.090    478.075    686.416    478.075    483.837    478.075
108.970    670.000    688.446    -18.446    477.954    682.557    477.954    483.865    477.954
109.070    675.810    683.067     -7.257    477.835    677.030    477.835    483.896    477.835
109.170    679.223    676.041      3.182    477.718    669.836    477.718    483.948    477.718
109.270    716.849    667.502     49.346    477.604    661.118    477.604    484.014    477.604
109.370    657.000    657.703     -0.703    477.493    651.126    477.493    484.094    477.493
109.470    620.439    646.960    -26.521    477.384    640.179    477.384    484.189    477.384
109.570    643.000    635.622      7.378    477.277    628.622    477.277    484.300    477.277
109.670    672.000    624.034     47.966    477.173    616.801    477.173    484.427    477.173
109.770    609.267    612.520     -3.253    477.072    605.038    477.072    484.573    477.072
109.870    577.971    601.366    -23.396    476.973    593.618    476.973    484.738    476.973
109.970    622.000    590.796     31.204    476.877    582.764    476.877    484.924    476.877
110.070    599.000    581.035     17.965    476.783    572.698    476.783    485.133    476.783
110.170    605.000    572.245     32.755    476.693    563.581    476.693    485.368    476.693
110.270    589.000    564.504     24.496    476.605    555.487    476.605    485.631    476.605
110.370    562.000    557.856      4.144    476.520    548.457    476.520    485.925    476.520
110.470    549.263    552.308     -3.045    476.438    542.495    476.438    486.256    476.438
110.570    556.000    547.832      8.168    476.359    537.565    476.359    486.629    476.359
110.670    514.000    544.373    -30.373    476.282    533.607    476.282    487.050    476.282
110.770    561.000    541.858     19.142    476.209    530.538    476.209    487.529    476.209
110.870    514.000    540.204    -26.204    476.139    528.266    476.139    488.075    476.139
110.970    533.549    539.324     -5.776    476.072    526.691    476.072    488.703    476.072
111.070    587.000    539.138     47.862    476.008    525.713    476.008    489.428    476.008
111.170    564.559    539.569     24.990    475.947    525.239    475.947    490.272    475.947
111.270    544.000    540.556      3.444    475.889    525.179    475.889    491.260    475.889
111.370    496.412    542.052    -45.640    475.834    525.457    475.834    492.423    475.834
111.470    530.000    544.023    -14.023    475.783    526.003    475.783    493.796    475.783
111.570    568.703    546.456     22.247    475.735    526.760    475.735    495.424    475.735
111.670    527.000    549.355    -22.355    475.690    527.680    475.690    497.356    475.690
111.770    548.000    552.741     -4.741    475.649    528.728    475.649    499.652    475.649
111.870    528.000    556.655    -28.655    475.611    529.879    475.611    502.378    475.611
111.970    555.000    561.156     -6.156    475.576    531.116    475.576    505.607    475.576
112.070    559.133    566.321     -7.188    475.545    532.436    475.545    509.421    475.545
112.170    583.199    572.240     10.959    475.518    533.843    475.518    513.905    475.518
112.270    594.000    579.019     14.981    475.494    535.353    475.494    519.149    475.494
112.370    576.664    586.771    -10.107    475.474    536.987    475.474    525.246    475.474
112.470    661.000    595.617     65.383    475.457    538.777    475.457    532.286    475.457
112.570    621.000    605.680     15.320    475.445    540.762    475.445    540.351    475.445
112.670    616.000    617.084     -1.084    475.435    542.991    475.435    549.516    475.435
112.770    652.000    629.952     22.048    475.430    545.528    475.430    559.840    475.430
112.870    594.847    644.402    -49.555    475.429    548.454    475.429    571.362    475.429
112.970    695.000    660.556     34.444    475.431    551.876    475.431    584.095    475.431
113.070    674.685    678.536     -3.851    475.437    555.932    475.437    598.023    475.437
113.170    690.000    698.470     -8.470    475.448    560.807    475.448    613.091    475.448
113.270    688.000    720.509    -32.509    475.462    566.741    475.462    629.208    475.462
113.370    692.633    744.831    -52.197    475.480    574.051    475.480    646.235    475.480
113.470    769.000    771.661     -2.661    475.503    583.148    475.503    663.988    475.503
113.570    745.543    801.292    -55.749    475.529    594.562    475.529    682.228    475.529
113.670    814.000    834.108    -20.108    475.560    608.964    475.560    700.668    475.560
113.770    919.939    870.607     49.332    475.595    627.199    475.595    718.960    475.595
113.870    923.139    911.429     11.710    475.634    650.308    475.634    736.706    475.634
113.970    885.000    957.390    -72.390    475.678    679.554    475.678    753.454    475.678
114.070    962.000   1009.504    -47.504    475.726    716.444    475.726    768.714    475.726
114.170   1052.000   1069.021    -17.021    475.778    762.739    475.778    781.975    475.778
114.270   1156.000   1137.455     18.545    475.835    820.453    475.835    792.735    475.835
114.370   1235.000   1216.605     18.395    475.896    891.837    475.896    800.541    475.896
114.470   1285.906   1308.564    -22.658    475.962    979.340    475.962    805.039    475.962
114.570   1458.000   1415.704     42.296    476.033   1085.547    476.033    806.015    476.033
114.670   1524.000   1540.609    -16.609    476.108   1213.088    476.108    803.422    476.108
114.770   1692.705   1685.968      6.738    476.188   1364.520    476.188    797.393    476.188
114.870   1914.000   1854.410     59.590    476.272   1542.184    476.272    788.214    476.272
114.970   2133.000   2048.296     84.704    476.361   1748.034    476.361    776.296    476.361
115.070   2326.053   2269.492     56.561    476.456   1983.453    476.456    762.120    476.456
115.170   2592.000   2519.126     72.874    476.555   2249.060    476.555    746.198    476.555
115.270   2862.000   2797.370     64.630    476.659   2544.522    476.659    729.035    476.659
115.370   3135.000   3103.242     31.758    476.767   2868.385    476.767    711.105    476.767
115.470   3516.967   3434.452     82.515    476.881   3217.938    476.881    692.832    476.881
115.570   3706.000   3787.309    -81.309    477.000   3589.115    477.000    674.591    477.000
115.670   4241.294   4156.674     84.620    477.125   3976.464    477.125    656.701    477.125
115.770   4482.000   4535.989    -53.989    477.254   4373.164    477.254    639.423    477.254
115.870   4671.000   4917.366   -246.366    477.388   4771.119    477.388    622.970    477.388
115.970   5247.999   5291.754    -43.755    477.528   5161.119    477.528    607.503    477.528
116.070   5472.000   5649.176   -177.176    477.673   5533.071    477.673    593.136    477.673
116.170   5986.000   5979.049      6.951    477.824   5876.322    477.824    579.944    477.824
116.270   6415.446   6270.605    144.841    477.980   6180.071    477.980    567.959    477.980
116.370   6522.000   6513.433      8.567    478.141   6433.903    478.141    557.185    478.141
116.470   6581.657   6698.129   -116.472    478.308   6628.440    478.308    547.594    478.308
116.570   6896.000   6817.032     78.968    478.480   6756.068    478.480    539.136    478.480
116.670   6871.569   6864.936      6.633    478.659   6811.644    478.659    531.746    478.659
116.770   6753.516   6839.635    -86.119    478.842   6793.037    478.842    525.343    478.842
116.870   6702.410   6742.164    -39.753    479.032   6701.365    479.032    519.841    479.032
116.970   6581.481   6576.661      4.820    479.227   6540.851    479.227    515.148    479.227
117.070   6359.595   6349.892      9.703    479.428   6318.350    479.428    511.173    479.428
117.170   5984.000   6070.590    -86.590    479.635   6042.678    479.635    507.827    479.635
117.270   5554.000   5748.749   -194.749    479.848   5723.914    479.848    505.028    479.848
117.370   5171.000   5394.864   -223.864    480.067   5372.628    480.067    502.697    480.067
117.470   5153.235   5019.436    133.800    480.292   4999.389    480.292    500.765    480.292
117.570   4586.000   4632.509    -46.509    480.523   4614.309    480.523    499.169    480.523
117.670   4272.000   4243.336     28.664    480.760   4226.690    480.760    497.855    480.760
117.770   3920.000   3860.116     59.884    481.003   3844.786    481.003    496.775    481.003
117.870   3509.171   3489.833     19.337    481.253   3475.619    481.253    495.891    481.253
117.970   3131.218   3138.153     -6.934    481.509   3124.891    481.509    495.168    481.509
118.070   2773.293   2809.394    -36.101    481.771   2796.951    481.771    494.579    481.771
118.170   2438.786   2506.567    -67.781    482.040   2494.834    482.040    494.102    482.040
118.270   2289.000   2231.463     57.537    482.315   2220.352    482.315    493.717    482.315
118.370   1971.476   1984.784    -13.308    482.597   1974.223    482.597    493.410    482.597
118.470   1786.000   1766.297     19.703    482.885   1756.228    482.885    493.170    482.885
118.570   1532.000   1575.008    -43.008    483.180   1565.383    483.180    492.985    483.180
118.670   1463.382   1409.335     54.047    483.482   1400.113    483.482    492.850    483.482
118.770   1214.000   1267.279    -53.279    483.790   1258.429    483.790    492.758    483.790
118.870   1071.000   1146.583    -75.583    484.106   1138.077    484.106    492.704    484.106
118.970   1060.000   1044.874     15.126    484.428   1036.687    484.428    492.685    484.428
119.070    975.000    959.778     15.222    484.757    951.890    484.757    492.698    484.757
119.170    872.000    889.014    -17.014    485.093    881.405    485.093    492.740    485.093
119.270    872.089    830.457     41.632    485.436    823.111    485.436    492.810    485.436
119.370    746.331    782.187    -35.855    485.786    775.086    485.786    492.906    485.786
119.470    763.123    742.502     20.621    486.143    735.631    486.143    493.027    486.143
119.570    733.000    709.931     23.069    486.508    703.274    486.508    493.173    486.508
119.670    675.907    683.221     -7.315    486.879    676.764    486.879    493.342    486.879
119.770    660.000    661.326     -1.326    487.258    655.054    487.258    493.535    487.258
119.870    614.000    643.381    -29.381    487.645    637.279    487.645    493.750    487.645
119.970    660.182    628.682     31.500    488.039    622.734    488.039    493.989    488.039
120.070    628.000    616.662     11.338    488.440    610.854    488.440    494.251    488.440
120.170    619.801    606.867     12.934    488.849    601.183    488.849    494.536    488.849
120.270    551.000    598.939    -47.939    489.266    593.362    489.266    494.845    489.266
120.370    549.929    592.595    -42.665    489.690    587.109    489.690    495.179    489.690
120.470    568.906    587.612    -18.707    490.122    582.200    490.122    495.538    490.122
120.570    631.000    583.819     47.181    490.562    578.464    490.562    495.922    490.562
120.670    524.000    581.081    -57.081    491.010    575.763    491.010    496.332    491.010
120.770    608.000    579.291     28.709    491.465    573.992    491.465    496.770    491.465
120.870    559.000    578.367    -19.367    491.929    573.067    491.929    497.235    491.929
120.970    615.000    578.241     36.759    492.401    572.920    492.401    497.728    492.401
121.070    537.848    578.857    -41.009    492.880    573.495    492.880    498.250    492.880
121.170    582.000    580.166      1.834    493.368    574.742    493.368    498.802    493.368
121.270    559.064    582.121    -23.057    493.865    576.614    493.865    499.382    493.865
121.370    596.697    584.675     12.022    494.369    579.064    494.369    499.992    494.369
121.470    591.000    587.777      3.223    494.882    582.042    494.882    500.631    494.882
121.570    590.295    591.373     -1.078    495.403    585.494    495.403    501.299    495.403
121.670    634.550    595.401     39.149    495.933    589.359    495.933    501.993    495.933
121.770    590.000    599.791     -9.791    496.471    593.569    496.471    502.713    496.471
121.870    556.302    604.464    -48.163    497.018    598.048    497.018    503.458    497.018
121.970    602.000    609.335     -7.335    497.574    602.711    497.574    504.224    497.574
122.070    628.750    614.308     14.442    498.138    607.466    498.138    505.009    498.138
122.170    577.431    619.282    -41.850    498.711    612.215    498.711    505.810    498.711
122.270    644.000    624.148     19.852    499.293    616.853    499.293    506.622    499.293
122.370    665.860    628.796     37.065    499.884    621.274    499.884    507.443    499.884
122.470    597.854    633.114    -35.260    500.484    625.371    500.484    508.266    500.484
122.570    624.000    636.995    -12.995    501.093    629.042    501.093    509.087    501.093
122.670    624.000    640.340    -16.340    501.711    632.195    501.711    509.900    501.711
122.770    650.201    643.065      7.136    502.339    634.750    502.339    510.699    502.339
122.870    661.747    645.106     16.641    502.975    636.649    502.975    511.478    502.975
122.970    659.000    646.421     12.579    503.621    637.857    503.621    512.232    503.621
123.070    683.000    646.996     36.004    504.277    638.364    504.277    512.956    504.277
123.170    685.185    646.842     38.343    504.941    638.185    504.941    513.645    504.941
123.270    647.000    645.992      1.008    505.616    637.356    505.616    514.298    505.616
123.370    633.000    644.501    -11.501    506.300    635.932    506.300    514.913    506.300
123.470    642.000    642.436     -0.436    506.993    633.982    506.993    515.491    506.993
123.570    610.797    639.875    -29.079    507.697    631.579    507.697    516.034    507.697
123.670    632.213    636.902     -4.690    508.410    628.805    508.410    516.546    508.410
123.770    587.132    633.601    -46.470    509.133    625.738    509.133    517.032    509.133
123.870    619.540    630.056    -10.516    509.866    622.457    509.866    517.498    509.866
123.970    612.000    626.344    -14.344    510.609    619.035    510.609    517.949    510.609
124.070    642.000    622.538     19.462    511.362    615.537    511.362    518.391    511.362
124.170    604.386    618.700    -14.314    512.125    612.020    512.125    518.829    512.125
124.270    628.000    614.883     13.117    512.899    608.534    512.899    519.270    512.899
124.370    596.354    611.131    -14.777    513.682    605.114    513.682    519.718    513.682
124.470    593.203    607.474    -14.270    514.476    601.790    514.476    520.176    514.476
124.570    617.031    603.934     13.097    515.281    598.579    515.281    520.650    515.281
124.670    607.000    600.524      6.476    516.096    595.492    516.096    521.140    516.096
124.770    623.774    597.252     26.523    516.922    592.531    516.922    521.652    516.922
124.870    627.000    594.118     32.882    517.758    589.696    517.758    522.188    517.758
124.970    633.000    591.119     41.881    518.605    586.981    518.605    522.750    518.605
