neutron_powder_diffraction_0235
R_wp: 4.047
Temperature (K): 1031.714
Counts: 83900.00
Wavelength (Ã…): 2.52098
COMMENTS
Test file for demonstrating the .xyy file format in Reel1.0
END OF HEADER
   tth       Y_obs     Y_calc      Y_res    Background    Phase_1_Nuc    Phase_1_Mag    Phase_2_Nuc    Phase_2_Mag
  9.970    600.000    566.627     33.373    566.082    566.596    566.082    566.113    566.082
 10.070    615.000    566.868     48.132    566.277    566.836    566.277    566.309    566.277
 10.170    616.000    567.110     48.890    566.466    567.078    566.466    566.497    566.466
 10.270    563.000    567.366     -4.366    566.647    567.334    566.647    566.679    566.647
 10.370    569.000    567.616      1.384    566.822    567.583    566.822    566.855    566.822
 10.470    543.000    567.866    -24.866    566.990    567.832    566.990    567.024    566.990
 10.570    583.000    568.123     14.877    567.151    568.089    567.151    567.185    567.151
 10.670    599.522    568.393     31.129    567.305    568.357    567.305    567.340    567.305
 10.770    605.000    568.679     36.321    567.453    568.643    567.453    567.489    567.453
 10.870    591.000    568.989     22.011    567.593    568.952    567.593    567.630    567.593
 10.970    579.000    569.333      9.667    567.728    569.295    567.728    567.765    567.728
 11.070    553.000    569.734    -16.734    567.855    569.686    567.855    567.902    567.855
 11.170    623.000    570.198     52.802    567.977    570.145    567.977    568.028    567.977
 11.270    610.000    570.757     39.243    568.091    570.704    568.091    568.143    568.091
 11.370    549.741    571.467    -21.725    568.200    571.413    568.200    568.252    568.200
 11.470    633.000    572.436     60.564    568.302    572.382    568.302    568.354    568.302
 11.570    601.000    573.974     27.026    568.398    573.918    568.398    568.451    568.398
 11.670    597.000    577.055     19.945    568.488    576.998    568.488    568.541    568.488
 11.770    624.051    584.285     39.766    568.572    584.223    568.572    568.625    568.572
 11.870    638.000    600.530     37.470    568.649    600.459    568.649    568.703    568.649
 11.970    653.000    630.568     22.432    568.721    630.480    568.721    568.775    568.721
 12.070    727.998    671.761     56.237    568.787    671.646    568.787    568.845    568.787
 12.170    703.196    706.487     -3.290    568.846    706.350    568.846    568.908    568.846
 12.270    698.000    710.272    -12.272    568.900    710.133    568.900    568.962    568.900
 12.370    651.000    679.653    -28.653    568.948    679.530    568.948    569.010    568.948
 12.470    611.000    637.700    -26.700    568.991    637.600    568.991    569.053    568.991
 12.570    599.000    605.059     -6.059    569.028    604.977    569.028    569.090    569.028
 12.670    613.000    586.713     26.287    569.059    586.641    569.059    569.122    569.059
 12.770    544.581    578.458    -33.877    569.084    578.390    569.084    569.148    569.084
 12.870    554.000    575.049    -21.049    569.105    574.982    569.105    569.168    569.105
 12.970    579.000    573.471      5.529    569.119    573.405    569.119    569.183    569.119
 13.070    533.000    572.552    -39.552    569.128    572.486    569.128    569.193    569.128
 13.170    589.892    571.922     17.970    569.132    571.856    569.132    569.197    569.132
 13.270    597.000    571.457     25.543    569.131    571.391    569.131    569.196    569.131
 13.370    570.000    571.099     -1.099    569.124    571.032    569.124    569.189    569.124
 13.470    566.000    570.814     -4.814    569.112    570.748    569.112    569.178    569.112
 13.570    542.000    570.583    -28.583    569.095    570.516    569.095    569.161    569.095
 13.670    537.000    570.388    -33.388    569.073    570.321    569.073    569.140    569.073
 13.770    529.963    570.220    -40.257    569.046    570.153    569.046    569.113    569.046
 13.870    534.000    570.073    -36.073    569.014    570.005    569.014    569.082    569.014
 13.970    608.992    569.942     39.050    568.977    569.872    568.977    569.047    568.977
 14.070    560.132    569.820     -9.688    568.936    569.748    568.936    569.007    568.936
 14.170    575.312    569.706      5.606    568.889    569.633    568.889    568.962    568.889
 14.270    570.045    569.596      0.449    568.837    569.522    568.837    568.911    568.837
 14.370    537.000    569.490    -32.490    568.781    569.415    568.781    568.856    568.781
 14.470    618.979    569.386     49.594    568.721    569.310    568.721    568.796    568.721
 14.570    536.949    569.282    -32.333    568.655    569.206    568.655    568.731    568.655
 14.670    593.000    569.179     23.821    568.585    569.103    568.585    568.661    568.585
 14.770    569.000    569.076     -0.076    568.511    568.999    568.511    568.587    568.511
 14.870    536.000    568.971    -32.971    568.432    568.894    568.432    568.509    568.432
 14.970    505.000    568.865    -63.865    568.348    568.787    568.348    568.426    568.348
 15.070    517.754    568.757    -51.003    568.260    568.679    568.260    568.338    568.260
 15.170    514.000    568.649    -54.649    568.168    568.571    568.168    568.247    568.168
 15.270    568.000    568.539     -0.539    568.072    568.461    568.072    568.151    568.072
 15.370    565.323    568.425     -3.102    567.971    568.346    567.971    568.050    567.971
 15.470    568.000    568.308     -0.308    567.866    568.228    567.866    567.946    567.866
 15.570    519.565    568.187    -48.623    567.758    568.107    567.758    567.838    567.758
 15.670    626.000    568.064     57.936    567.645    567.984    567.645    567.725    567.645
 15.770    574.000    567.939      6.061    567.528    567.857    567.528    567.609    567.528
 15.870    582.000    567.811     14.189    567.407    567.729    567.407    567.488    567.407
 15.970    579.000    567.680     11.320    567.282    567.598    567.282    567.364    567.282
 16.070    542.000    567.545    -25.545    567.153    567.463    567.153    567.235    567.153
 16.170    555.000    567.407    -12.407    567.020    567.324    567.020    567.103    567.020
 16.270    555.000    567.266    -12.266    566.883    567.182    566.883    566.967    566.883
 16.370    558.000    567.121     -9.121    566.743    567.037    566.743    566.827    566.743
 16.470    542.323    566.975    -24.652    566.599    566.889    566.599    566.685    566.599
 16.570    560.000    566.825     -6.825    566.452    566.737    566.452    566.539    566.452
 16.670    521.611    566.671    -45.060    566.300    566.583    566.300    566.388    566.300
 16.770    583.000    566.514     16.486    566.146    566.425    566.146    566.234    566.146
 16.870    537.524    566.353    -28.830    565.987    566.265    565.987    566.076    565.987
 16.970    541.000    566.190    -25.190    565.825    566.101    565.825    565.915    565.825
 17.070    548.000    566.024    -18.024    565.660    565.934    565.660    565.750    565.660
 17.170    545.000    565.854    -20.854    565.491    565.764    565.491    565.582    565.491
 17.270    556.961    565.682     -8.721    565.319    565.591    565.319    565.410    565.319
 17.370    595.192    565.507     29.686    565.144    565.415    565.144    565.236    565.144
 17.470    615.435    565.328     50.107    564.965    565.236    564.965    565.058    564.965
 17.570    542.000    565.147    -23.147    564.784    565.054    564.784    564.877    564.784
 17.670    568.000    564.963      3.037    564.599    564.869    564.599    564.692    564.599
 17.770    571.952    564.776      7.176    564.410    564.682    564.410    564.505    564.410
 17.870    530.245    564.588    -34.342    564.219    564.493    564.219    564.314    564.219
 17.970    599.000    564.396     34.604    564.025    564.300    564.025    564.121    564.025
 18.070    572.617    564.201      8.416    563.828    564.104    563.828    563.924    563.828
 18.170    543.000    564.003    -21.003    563.627    563.906    563.627    563.724    563.627
 18.270    580.000    563.802     16.198    563.424    563.704    563.424    563.522    563.424
 18.370    558.000    563.599     -5.599    563.218    563.500    563.218    563.317    563.218
 18.470    547.000    563.393    -16.393    563.009    563.293    563.009    563.108    563.009
 18.570    585.000    563.184     21.816    562.797    563.084    562.797    562.898    562.797
 18.670    480.000    562.976    -82.976    562.583    562.872    562.583    562.687    562.583
 18.770    558.000    562.767     -4.767    562.366    562.658    562.366    562.475    562.366
 18.870    517.639    562.551    -44.912    562.146    562.441    562.146    562.256    562.146
 18.970    598.789    562.333     36.455    561.923    562.222    561.923    562.034    561.923
 19.070    507.000    562.113    -55.113    561.698    562.001    561.698    561.810    561.698
 19.170    597.000    561.890     35.110    561.470    561.778    561.470    561.583    561.470
 19.270    609.134    561.665     47.469    561.240    561.552    561.240    561.354    561.240
 19.370    608.585    561.438     47.147    561.007    561.323    561.007    561.122    561.007
 19.470    556.000    561.208     -5.208    560.772    561.093    560.772    560.888    560.772
 19.570    585.095    560.977     24.119    560.535    560.860    560.535    560.651    560.535
 19.670    596.150    560.744     35.407    560.295    560.626    560.295    560.412    560.295
 19.770    535.000    560.508    -25.508    560.053    560.389    560.053    560.171    560.053
 19.870    511.000    560.271    -49.271    559.808    560.151    559.808    559.928    559.808
 19.970    565.649    560.033      5.616    559.561    559.912    559.561    559.682    559.561
 20.070    560.497    559.792      0.705    559.312    559.670    559.312    559.434    559.312
 20.170    587.000    559.549     27.451    559.061    559.426    559.061    559.184    559.061
 20.270    551.000    559.304     -8.304    558.808    559.180    558.808    558.932    558.808
 20.370    558.000    559.058     -1.058    558.552    558.933    558.552    558.677    558.552
 20.470    548.000    558.819    -10.819    558.295    558.693    558.295    558.421    558.295
 20.570    607.340    558.584     48.756    558.035    558.456    558.035    558.163    558.035
 20.670    578.412    558.334     20.078    557.774    558.206    557.774    557.903    557.774
 20.770    586.000    558.082     27.918    557.510    557.952    557.510    557.640    557.510
 20.870    579.000    557.829     21.171    557.245    557.698    557.245    557.376    557.245
 20.970    526.000    557.575    -31.575    556.978    557.442    556.978    557.110    556.978
 21.070    549.000    557.319     -8.319    556.709    557.185    556.709    556.843    556.709
 21.170    564.000    557.063      6.937    556.438    556.927    556.438    556.573    556.438
 21.270    616.000    556.805     59.195    556.165    556.668    556.165    556.302    556.165
 21.370    577.957    556.547     21.410    555.891    556.409    555.891    556.029    555.891
 21.470    533.174    556.288    -23.114    555.614    556.149    555.614    555.754    555.614
 21.570    569.000    556.029     12.971    555.337    555.888    555.337    555.478    555.337
 21.670    591.000    555.774     35.226    555.057    555.631    555.057    555.200    555.057
 21.770    570.276    555.568     14.708    554.776    555.423    554.776    554.921    554.776
 21.870    563.000    555.416      7.584    554.493    555.270    554.493    554.640    554.493
 21.970    560.000    555.168      4.832    554.209    555.019    554.209    554.357    554.209
 22.070    518.623    554.909    -36.286    553.924    554.759    553.924    554.074    553.924
 22.170    582.314    554.652     27.662    553.636    554.500    553.636    553.788    553.636
 22.270    528.000    554.396    -26.396    553.348    554.242    553.348    553.502    553.348
 22.370    602.831    554.141     48.690    553.058    553.986    553.058    553.214    553.058
 22.470    550.000    553.889     -3.889    552.766    553.731    552.766    552.924    552.766
 22.570    512.266    553.639    -41.374    552.474    553.479    552.474    552.634    552.474
 22.670    581.000    553.395     27.605    552.180    553.231    552.180    552.344    552.180
 22.770    538.000    553.154    -15.154    551.884    552.986    551.884    552.053    551.884
 22.870    551.305    552.922     -1.616    551.588    552.751    551.588    551.759    551.588
 22.970    542.682    552.730    -10.048    551.290    552.557    551.290    551.464    551.290
 23.070    569.000    552.538     16.462    550.991    552.362    550.991    551.167    550.991
 23.170    554.000    552.330      1.670    550.691    552.152    550.691    550.870    550.691
 23.270    577.443    552.134     25.309    550.390    551.952    550.390    550.571    550.390
 23.370    550.000    551.954     -1.954    550.087    551.770    550.087    550.272    550.087
 23.470    556.813    551.798      5.014    549.784    551.611    549.784    549.972    549.784
 23.570    553.000    551.674      1.326    549.480    551.483    549.480    549.671    549.480
 23.670    542.000    551.590     -9.590    549.174    551.397    549.174    549.369    549.174
 23.770    513.000    551.562    -38.562    548.868    551.365    548.868    549.066    548.868
 23.870    546.000    551.613     -5.613    548.561    551.413    548.561    548.762    548.561
 23.970    587.657    551.786     35.871    548.252    551.583    548.252    548.458    548.252
 24.070    539.000    552.179    -13.179    547.943    551.971    547.943    548.153    547.943
 24.170    566.000    553.075     12.925    547.633    552.864    547.633    547.847    547.633
 24.270    550.000    555.310     -5.310    547.323    555.097    547.323    547.541    547.323
 24.370    557.000    560.844     -3.844    547.011    560.630    547.011    547.234    547.011
 24.470    579.323    572.786      6.537    546.699    572.576    546.699    546.926    546.699
 24.570    590.000    593.343     -3.343    546.386    593.143    546.386    546.619    546.386
 24.670    601.000    619.312    -18.312    546.072    619.126    546.072    546.310    546.072
 24.770    605.679    638.665    -32.986    545.758    638.487    545.758    546.002    545.758
 24.870    633.000    637.611     -4.611    545.443    637.427    545.443    545.693    545.443
 24.970    557.000    616.849    -59.849    545.127    616.644    545.127    545.383    545.127
 25.070    606.000    590.490     15.510    544.811    590.258    544.811    545.074    544.811
 25.170    590.000    569.987     20.013    544.494    569.734    544.494    544.764    544.494
 25.270    599.000    558.040     40.960    544.176    557.770    544.176    544.455    544.176
 25.370    562.000    552.272      9.728    543.858    551.990    543.858    544.145    543.858
 25.470    540.000    549.660     -9.660    543.540    549.368    543.540    543.835    543.540
 25.570    554.607    548.323      6.285    543.221    548.020    543.221    543.526    543.221
 25.670    583.000    547.458     35.542    542.902    547.145    542.902    543.217    542.902
 25.770    539.000    546.807     -7.807    542.582    546.483    542.582    542.908    542.582
 25.870    571.000    546.285     24.715    542.262    545.949    542.262    542.599    542.262
 25.970    538.000    545.857     -7.857    541.942    545.508    541.942    542.291    541.942
 26.070    520.000    545.500    -25.500    541.621    545.138    541.621    541.984    541.621
 26.170    509.305    545.202    -35.897    541.300    544.825    541.300    541.677    541.300
 26.270    501.000    544.953    -43.953    540.979    544.560    540.979    541.372    540.979
 26.370    574.000    544.753     29.247    540.657    544.342    540.657    541.067    540.657
 26.470    501.588    544.601    -43.013    540.335    544.172    540.335    540.764    540.335
 26.570    596.000    544.502     51.498    540.013    544.052    540.013    540.463    540.013
 26.670    561.054    544.461     16.593    539.691    543.989    539.691    540.163    539.691
 26.770    572.476    544.489     27.987    539.369    543.993    539.369    539.865    539.369
 26.870    551.000    544.614      6.386    539.046    544.090    539.046    539.570    539.046
 26.970    497.908    544.859    -46.951    538.724    544.305    538.724    539.277    538.724
 27.070    576.000    545.202     30.798    538.401    544.614    538.401    538.988    538.401
 27.170    542.070    545.713     -3.643    538.078    545.087    538.078    538.703    538.078
 27.270    549.000    546.454      2.546    537.755    545.787    537.755    538.422    537.755
 27.370    582.000    547.531     34.469    537.433    546.815    537.433    538.146    537.433
 27.470    571.000    549.092     21.908    537.110    548.323    537.110    537.877    537.110
 27.570    510.909    551.568    -40.659    536.787    550.737    536.787    537.615    536.787
 27.670    535.000    556.402    -21.402    536.465    555.500    536.465    537.362    536.465
 27.770    573.000    568.177      4.823    536.142    567.191    536.142    537.120    536.142
 27.870    619.000    598.019     20.981    535.819    596.929    535.819    536.891    535.819
 27.970    662.000    662.595     -0.595    535.497    661.375    535.497    536.677    535.497
 28.070    775.000    769.427      5.573    535.175    768.048    535.175    536.484    535.175
 28.170    930.000    890.734     39.266    534.853    889.176    534.853    536.315    534.853
 28.270    987.000    956.421     30.579    534.531    954.680    534.531    536.177    534.531
 28.370    968.000    915.289     52.711    534.209    913.358    534.209    536.079    534.209
 28.470    836.000    810.859     25.141    533.888    808.686    533.888    536.035    533.888
 28.570    669.000    723.487    -54.487    533.567    720.979    533.567    536.064    533.567
 28.670    713.000    699.936     13.064    533.246    696.968    533.246    536.203    533.246
 28.770    715.000    740.643    -25.643    532.925    737.036    532.925    536.513    532.925
 28.870    791.504    809.117    -17.613    532.605    804.592    532.605    537.105    532.605
 28.970    871.728    846.049     25.679    532.285    840.151    532.285    538.167    532.285
 29.070    833.000    812.381     20.619    531.965    804.375    531.965    539.972    531.965
 29.170    709.000    734.393    -25.393    531.646    723.191    531.646    542.860    531.646
 29.270    643.244    659.787    -16.543    531.327    643.988    531.327    547.139    531.327
 29.370    601.000    612.620    -11.620    531.009    590.738    531.009    552.898    531.009
 29.470    558.798    591.941    -33.143    530.691    562.964    530.691    559.670    530.691
 29.570    623.000    586.103     36.897    530.373    550.553    530.373    565.922    530.373
 29.670    637.000    583.996     53.004    530.056    545.000    530.056    569.050    530.056
 29.770    530.691    579.514    -48.823    529.740    542.053    529.740    567.198    529.740
 29.870    616.000    572.022     43.978    529.424    540.155    529.424    561.288    529.424
 29.970    571.323    563.594      7.729    529.108    538.813    529.108    553.887    529.108
 30.070    537.449    556.070    -18.621    528.793    537.866    528.793    546.995    528.793
 30.170    598.592    550.259     48.333    528.479    537.271    528.479    541.464    528.479
 30.270    565.778    546.348     19.430    528.165    537.115    528.165    537.395    528.165
 30.370    553.000    544.486      8.514    527.852    537.790    527.852    534.544    527.852
 30.470    574.542    545.413     29.128    527.539    540.373    527.539    532.574    527.539
 30.570    555.418    550.905      4.513    527.227    546.943    527.227    531.178    527.227
 30.670    582.000    563.176     18.824    526.916    559.937    526.916    530.134    526.916
 30.770    619.000    582.375     36.625    526.605    579.643    526.605    529.302    526.605
 30.870    590.000    603.133    -13.133    526.295    600.776    526.295    528.601    526.295
 30.970    620.714    613.850      6.864    525.986    611.792    525.986    527.988    525.986
 31.070    553.613    605.928    -52.316    525.678    604.122    525.678    527.437    525.678
 31.170    627.000    585.243     41.757    525.370    583.651    525.370    526.931    525.370
 31.270    522.683    563.582    -40.899    525.063    562.166    525.063    526.461    525.063
 31.370    527.000    547.839    -20.839    524.757    546.569    524.757    526.018    524.757
 31.470    522.000    538.833    -16.833    524.451    537.681    524.451    525.598    524.451
 31.570    586.000    534.408     51.592    524.146    533.356    524.146    525.195    524.146
 31.670    510.000    532.291    -22.291    523.843    531.323    523.843    524.808    523.843
 31.770    529.000    531.145     -2.145    523.540    530.250    523.540    524.433    523.540
 31.870    536.633    530.403      6.230    523.238    529.571    523.238    524.068    523.238
 31.970    571.670    529.870     41.801    522.936    529.092    522.936    523.712    522.936
 32.070    520.000    529.479     -9.479    522.636    528.750    522.636    523.364    522.636
 32.170    553.000    529.201     23.799    522.337    528.514    522.337    523.022    522.337
 32.270    507.493    529.026    -21.533    522.038    528.377    522.038    522.687    522.038
 32.370    587.000    528.957     58.043    521.740    528.341    521.740    522.356    521.740
 32.470    589.000    528.998     60.002    521.444    528.411    521.444    522.029    521.444
 32.570    505.603    529.162    -23.559    521.148    528.602    521.148    521.707    521.148
 32.670    502.000    529.474    -27.474    520.853    528.937    520.853    521.389    520.853
 32.770    549.000    529.971     19.029    520.560    529.455    520.560    521.074    520.560
 32.870    536.000    530.700      5.300    520.267    530.204    520.267    520.762    520.267
 32.970    592.000    531.736     60.264    519.975    531.258    519.975    520.452    519.975
 33.070    547.000    533.193     13.807    519.684    532.730    519.684    520.146    519.684
 33.170    526.000    535.272     -9.272    519.395    534.823    519.395    519.842    519.395
 33.270    579.000    538.427     40.573    519.106    537.991    519.106    519.540    519.106
 33.370    557.320    543.901     13.419    518.819    543.476    518.819    519.241    518.819
 33.470    542.000    555.073    -13.073    518.532    554.657    518.532    518.943    518.532
 33.570    526.227    579.626    -53.399    518.247    579.214    518.247    518.648    518.247
 33.670    619.000    630.459    -11.459    517.963    630.047    517.963    518.355    517.963
 33.770    737.470    720.597     16.873    517.680    720.178    517.680    518.063    517.680
 33.870    796.142    849.133    -52.991    517.398    848.703    517.398    517.774    517.398
 33.970    983.857    983.994     -0.137    517.117    983.560    517.117    517.486    517.117
 34.070   1019.668   1059.540    -39.872    516.837   1059.121    516.837    517.200    516.837
 34.170   1072.076   1024.799     47.277    516.559   1024.412    516.559    516.916    516.559
 34.270    888.000    905.687    -17.687    516.281    905.329    516.281    516.633    516.281
 34.370    791.000    769.035     21.965    516.005    768.695    516.005    516.352    516.005
 34.470    635.000    661.403    -26.403    515.730    661.068    515.730    516.073    515.730
 34.570    533.000    594.807    -61.807    515.457    594.474    515.457    515.795    515.457
 34.670    584.000    560.188     23.812    515.184    559.855    515.184    515.519    515.184
 34.770    537.000    543.782     -6.782    514.913    543.451    514.913    515.244    514.913
 34.870    527.000    535.752     -8.752    514.643    535.424    514.643    514.971    514.643
 34.970    548.000    531.174     16.826    514.374    530.848    514.374    514.699    514.374
 35.070    547.000    528.083     18.917    514.107    527.760    514.107    514.429    514.107
 35.170    483.000    525.765    -42.765    513.841    525.444    513.841    514.161    513.841
 35.270    523.000    523.935     -0.935    513.576    523.616    513.576    513.894    513.576
 35.370    526.297    522.446      3.851    513.312    522.129    513.312    513.629    513.312
 35.470    532.000    521.208     10.792    513.050    520.892    513.050    513.365    513.050
 35.570    545.542    520.158     25.384    512.789    519.844    512.789    513.103    512.789
 35.670    468.319    519.254    -50.935    512.529    518.941    512.529    512.842    512.529
 35.770    517.093    518.463     -1.370    512.271    518.151    512.271    512.583    512.271
 35.870    514.000    517.764     -3.764    512.014    517.453    512.014    512.325    512.014
 35.970    479.550    517.138    -37.588    511.759    516.827    511.759    512.069    511.759
 36.070    497.000    516.573    -19.573    511.505    516.263    511.505    511.814    511.505
 36.170    529.000    516.059     12.941    511.252    515.749    511.252    511.561    511.252
 36.270    474.916    515.589    -40.673    511.000    515.280    511.000    511.309    511.000
 36.370    521.756    515.158      6.598    510.750    514.849    510.750    511.059    510.750
 36.470    484.544    514.762    -30.218    510.502    514.453    510.502    510.811    510.502
 36.570    483.000    514.400    -31.400    510.255    514.091    510.255    510.564    510.255
 36.670    538.000    514.071     23.929    510.009    513.762    510.009    510.318    510.009
 36.770    527.000    513.780     13.220    509.765    513.471    509.765    510.075    509.765
 36.870    553.265    513.541     39.724    509.522    513.231    509.522    509.832    509.522
 36.970    506.000    513.392     -7.392    509.281    513.081    509.281    509.591    509.281
 37.070    505.085    513.436     -8.351    509.041    513.125    509.041    509.352    509.041
 37.170    540.599    513.889     26.710    508.802    513.577    508.802    509.115    508.802
 37.270    468.343    515.091    -46.748    508.565    514.778    508.565    508.879    508.565
 37.370    509.000    517.384     -8.384    508.330    517.070    508.330    508.644    508.330
 37.470    498.646    520.794    -22.148    508.096    520.480    508.096    508.411    508.096
 37.570    533.000    524.642      8.358    507.863    524.327    507.863    508.180    507.863
 37.670    512.000    527.429    -15.429    507.632    527.115    507.632    507.951    507.632
 37.770    516.000    527.647    -11.647    507.403    527.333    507.403    507.723    507.403
 37.870    507.000    525.222    -18.222    507.175    524.909    507.175    507.496    507.175
 37.970    499.000    521.514    -22.514    506.948    521.201    506.948    507.271    506.948
 38.070    541.000    517.833     23.167    506.723    517.519    506.723    507.048    506.723
 38.170    534.000    514.775     19.225    506.500    514.458    506.500    506.827    506.500
 38.270    516.000    512.505      3.495    506.278    512.184    506.278    506.607    506.278
 38.370    526.000    510.950     15.050    506.058    510.624    506.058    506.388    506.058
 38.470    484.000    509.926    -25.926    505.839    509.596    505.839    506.172    505.839
 38.570    477.000    509.250    -32.250    505.622    508.917    505.622    505.957    505.622
 38.670    500.391    508.781     -8.390    505.406    508.445    505.406    505.744    505.406
 38.770    511.000    508.425      2.575    505.192    508.086    505.192    505.532    505.192
 38.870    532.167    508.128     24.038    504.980    507.786    504.980    505.322    504.980
 38.970    511.026    507.863      3.163    504.769    507.519    504.769    505.114    504.769
 39.070    539.000    507.618     31.382    504.560    507.270    504.560    504.907    504.560
 39.170    506.000    507.387     -1.387    504.352    507.036    504.352    504.703    504.352
 39.270    520.484    507.167     13.317    504.146    506.814    504.146    504.499    504.146
 39.370    506.190    506.957     -0.767    503.941    506.601    503.941    504.298    503.941
 39.470    475.000    506.757    -31.757    503.739    506.397    503.739    504.098    503.739
 39.570    519.155    506.564     12.591    503.537    506.201    503.537    503.900    503.537
 39.670    555.000    506.379     48.621    503.338    506.013    503.338    503.704    503.338
 39.770    553.150    506.201     46.949    503.140    505.832    503.140    503.510    503.140
 39.870    517.000    506.031     10.969    502.943    505.658    502.943    503.317    502.943
 39.970    569.000    505.868     63.132    502.749    505.492    502.749    503.126    502.749
 40.070    539.661    505.713     33.948    502.556    505.333    502.556    502.937    502.556
 40.170    479.718    505.566    -25.848    502.364    505.181    502.364    502.749    502.364
 40.270    541.610    505.428     36.182    502.174    505.039    502.174    502.564    502.174
 40.370    518.991    505.298     13.692    501.986    504.905    501.986    502.380    501.986
 40.470    469.000    505.179    -36.179    501.800    504.782    501.800    502.197    501.800
 40.570    494.000    505.071    -11.071    501.615    504.669    501.615    502.017    501.615
 40.670    493.000    504.976    -11.976    501.432    504.569    501.432    501.839    501.432
 40.770    518.000    504.895     13.105    501.250    504.484    501.250    501.662    501.250
 40.870    554.249    504.832     49.418    501.070    504.415    501.070    501.487    501.070
 40.970    460.000    504.788    -44.788    500.892    504.367    500.892    501.314    500.892
 41.070    509.000    504.769      4.231    500.716    504.342    500.716    501.143    500.716
 41.170    479.000    504.779    -25.779    500.541    504.347    500.541    500.974    500.541
 41.270    536.000    504.826     31.174    500.368    504.388    500.368    500.806    500.368
 41.370    480.000    504.919    -24.919    500.196    504.476    500.196    500.640    500.196
 41.470    499.000    505.071     -6.071    500.027    504.622    500.027    500.477    500.027
 41.570    479.379    505.305    -25.926    499.859    504.850    499.859    500.315    499.859
 41.670    536.000    505.655     30.345    499.692    505.194    499.692    500.155    499.692
 41.770    511.000    506.202      4.798    499.528    505.735    499.528    499.997    499.528
 41.870    516.874    507.140      9.734    499.365    506.666    499.365    499.841    499.365
 41.970    474.000    508.933    -34.933    499.203    508.453    499.203    499.687    499.203
 42.070    476.164    512.560    -36.397    499.044    512.074    499.044    499.534    499.044
 42.170    477.224    519.691    -42.467    498.886    519.200    498.886    499.384    498.886
 42.270    537.000    532.426      4.574    498.730    531.933    498.730    499.236    498.730
 42.370    578.000    552.205     25.795    498.575    551.714    498.575    499.090    498.575
 42.470    586.000    577.958      8.042    498.422    577.472    498.422    498.945    498.422
 42.570    578.000    604.324    -26.324    498.271    603.843    498.271    498.803    498.271
 42.670    636.779    621.721     15.058    498.122    621.243    498.122    498.663    498.122
 42.770    587.000    621.447    -34.447    497.974    620.963    497.974    498.525    497.974
 42.870    589.122    603.606    -14.484    497.828    603.105    497.828    498.388    497.828
 42.970    589.922    576.984     12.938    497.684    576.459    497.684    498.254    497.684
 43.070    587.240    551.105     36.135    497.541    550.555    497.541    498.123    497.541
 43.170    571.479    531.248     40.231    497.401    530.675    497.401    497.993    497.401
 43.270    499.726    518.423    -18.697    497.261    517.830    497.261    497.865    497.261
 43.370    497.000    511.168    -14.168    497.124    510.558    497.124    497.740    497.124
 43.470    507.000    507.383     -0.383    496.988    506.759    496.988    497.617    496.988
 43.570    468.000    505.412    -37.412    496.854    504.773    496.854    497.496    496.854
 43.670    476.588    504.287    -27.699    496.722    503.634    496.722    497.377    496.722
 43.770    494.000    503.550     -9.550    496.592    502.882    496.592    497.261    496.592
 43.870    482.000    503.010    -21.010    496.463    502.327    496.463    497.147    496.463
 43.970    539.000    502.588     36.412    496.336    501.889    496.336    497.035    496.336
 44.070    495.000    502.248     -7.248    496.210    501.533    496.210    496.926    496.210
 44.170    495.000    501.971     -6.971    496.086    501.238    496.086    496.820    496.086
 44.270    479.705    501.743    -22.038    495.964    500.992    495.964    496.716    495.964
 44.370    537.306    501.554     35.752    495.844    500.784    495.844    496.614    495.844
 44.470    477.000    501.398    -24.398    495.726    500.609    495.726    496.516    495.726
 44.570    482.755    501.271    -18.515    495.609    500.460    495.609    496.420    495.609
 44.670    460.000    501.167    -41.167    495.494    500.334    495.494    496.327    495.494
 44.770    518.000    501.085     16.915    495.380    500.229    495.380    496.236    495.380
 44.870    522.000    501.023     20.977    495.268    500.143    495.268    496.149    495.268
 44.970    520.000    500.980     19.020    495.158    500.073    495.158    496.065    495.158
 45.070    468.000    500.954    -32.954    495.050    500.019    495.050    495.985    495.050
 45.170    497.000    500.945     -3.945    494.943    499.981    494.943    495.907    494.943
 45.270    508.000    500.953      7.047    494.839    499.958    494.839    495.833    494.839
 45.370    515.000    500.978     14.022    494.735    499.950    494.735    495.763    494.735
 45.470    467.968    501.020    -33.052    494.634    499.957    494.634    495.697    494.634
 45.570    526.637    501.080     25.557    494.534    499.979    494.534    495.635    494.534
 45.670    507.000    501.160      5.840    494.436    500.019    494.436    495.577    494.436
 45.770    494.291    501.259     -6.968    494.339    500.075    494.339    495.523    494.339
 45.870    489.000    501.381    -12.381    494.245    500.151    494.245    495.475    494.245
 45.970    464.336    501.528    -37.192    494.152    500.247    494.152    495.432    494.152
 46.070    501.000    501.701     -0.701    494.060    500.367    494.060    495.394    494.060
 46.170    495.000    501.902     -6.902    493.971    500.510    493.971    495.362    493.971
 46.270    493.000    502.139     -9.139    493.883    500.684    493.883    495.337    493.883
 46.370    459.397    502.417    -43.020    493.796    500.894    493.796    495.319    493.796
 46.470    505.000    502.742      2.258    493.712    501.145    493.712    495.309    493.712
 46.570    490.000    503.124    -13.124    493.629    501.445    493.629    495.307    493.629
 46.670    542.126    503.576     38.550    493.547    501.808    493.547    495.314    493.547
 46.770    491.846    504.120    -12.274    493.468    502.254    493.468    495.332    493.468
 46.870    480.000    504.802    -24.802    493.390    502.828    493.390    495.362    493.390
 46.970    522.353    505.723     16.629    493.314    503.630    493.314    495.405    493.314
 47.070    545.000    507.109     37.891    493.239    504.882    493.239    495.463    493.239
 47.170    529.438    509.412     20.027    493.166    507.035    493.166    495.538    493.166
 47.270    507.000    513.399     -6.399    493.095    510.855    493.095    495.632    493.095
 47.370    509.000    520.108    -11.108    493.025    517.372    493.025    495.749    493.025
 47.470    535.000    530.488      4.512    492.957    527.533    492.957    495.892    492.957
 47.570    541.188    544.712     -3.524    492.891    541.507    492.891    496.066    492.891
 47.670    622.000    561.361     60.639    492.826    557.869    492.826    496.277    492.826
 47.770    576.000    576.897     -0.897    492.763    573.077    492.763    496.532    492.763
 47.870    580.000    586.235     -6.235    492.701    582.041    492.701    496.839    492.701
 47.970    591.000    585.649      5.351    492.642    581.026    492.642    497.211    492.642
 48.070    597.830    576.063     21.767    492.583    570.937    492.583    497.665    492.583
 48.170    562.000    562.113     -0.113    492.527    556.383    492.527    498.225    492.527
 48.270    561.777    548.591     13.186    492.472    542.112    492.472    498.928    492.472
 48.370    529.605    538.428     -8.823    492.419    530.992    492.419    499.840    492.419
 48.470    505.529    532.629    -27.101    492.367    523.918    492.367    501.069    492.367
 48.570    543.000    530.929     12.071    492.317    520.439    492.317    502.801    492.317
 48.670    489.000    532.670    -43.670    492.268    519.597    492.268    505.336    492.268
 48.770    583.803    537.423     46.380    492.221    520.520    492.221    509.120    492.221
 48.870    573.100    545.241     27.860    492.176    522.668    492.176    514.744    492.176
 48.970    534.000    556.598    -22.598    492.132    525.851    492.132    522.874    492.132
 49.070    563.151    572.204     -9.054    492.090    530.195    492.090    534.093    492.090
 49.170    544.000    592.859    -48.859    492.049    536.264    492.049    548.637    492.049
 49.270    660.000    619.636     40.364    492.010    545.600    492.010    566.036    492.010
 49.370    674.000    654.797     19.203    491.973    562.093    491.973    584.660    491.973
 49.470    723.000    703.928     19.072    491.937    594.532    491.937    601.305    491.937
 49.570    823.000    779.498     43.502    491.903    659.833    491.903    611.520    491.903
 49.670    942.000    904.198     37.802    491.870    784.296    491.870    611.691    491.870
 49.770   1118.000   1107.959     10.041    491.839    997.935    491.839    601.740    491.839
 49.870   1434.000   1411.540     22.460    491.809   1317.993    491.809    585.194    491.809
 49.970   1756.000   1799.846    -43.846    491.781   1724.921    491.781    566.530    491.781
 50.070   2194.000   2201.169     -7.169    491.754   2143.772    491.754    549.011    491.754
 50.170   2593.000   2492.398    100.602    491.729   2449.768    491.729    534.315    491.729
 50.270   2428.000   2550.704   -122.704    491.706   2519.546    491.706    522.942    491.706
 50.370   2324.172   2342.605    -18.433    491.683   2319.784    491.683    514.676    491.683
 50.470   1960.000   1957.117      2.883    491.663   1940.042    491.663    508.939    491.663
 50.570   1509.000   1530.321    -21.321    491.644   1517.083    491.644    505.064    491.644
 50.670   1204.080   1165.484     38.595    491.626   1154.794    491.626    502.456    491.626
 50.770    965.024    907.798     57.226    491.610    898.840    491.610    500.664    491.610
 50.870    733.000    753.758    -20.758    491.596    746.035    491.596    499.384    491.596
 50.970    650.000    674.413    -24.413    491.583    667.617    491.583    498.426    491.583
 51.070    627.000    636.926     -9.926    491.571    630.858    491.571    497.679    491.571
 51.170    650.000    616.514     33.486    491.561    611.034    491.561    497.078    491.561
 51.270    627.378    599.863     27.515    491.552    594.863    491.552    496.584    491.552
 51.370    603.000    583.138     19.862    491.545    578.535    491.545    496.173    491.545
 51.470    583.658    567.157     16.501    491.539    562.888    491.539    495.828    491.539
 51.570    531.000    553.544    -22.544    491.535    549.556    491.535    495.536    491.535
 51.670    575.000    543.211     31.789    491.532    539.462    491.532    495.290    491.532
 51.770    488.200    536.164    -47.964    491.530    532.620    491.530    495.080    491.530
 51.870    559.000    531.814     27.186    491.530    528.445    491.530    494.903    491.530
 51.970    560.522    529.407     31.115    491.532    526.189    491.532    494.752    491.532
 52.070    542.000    528.326     13.674    491.534    525.237    491.534    494.626    491.534
 52.170    480.491    528.203    -47.712    491.538    525.225    491.538    494.519    491.538
 52.270    573.541    528.922     44.620    491.544    526.037    491.544    494.431    491.544
 52.370    547.000    530.610     16.390    491.551    527.804    491.551    494.358    491.551
 52.470    561.000    533.751     27.249    491.559    531.011    491.559    494.300    491.559
 52.570    547.783    539.480      8.303    491.569    536.794    491.569    494.255    491.569
 52.670    543.000    550.094     -7.094    491.580    547.451    491.580    494.222    491.580
 52.770    543.000    569.634    -26.634    491.592    567.025    491.592    494.200    491.592
 52.870    647.000    604.100     42.900    491.606    601.517    491.606    494.187    491.606
 52.970    710.000    660.553     49.447    491.621    657.986    491.621    494.184    491.621
 53.070    785.000    744.483     40.517    491.638    741.925    491.638    494.190    491.638
 53.170    871.000    855.635     15.365    491.655    853.082    491.655    494.205    491.655
 53.270    982.000    983.612     -1.612    491.675    981.060    491.675    494.227    491.675
 53.370   1118.000   1105.320     12.680    491.695   1102.767    491.695    494.257    491.695
 53.470   1093.000   1187.663    -94.663    491.717   1185.107    491.717    494.295    491.717
 53.570   1156.000   1200.992    -44.992    491.740   1198.427    491.740    494.341    491.740
 53.670   1121.000   1139.685    -18.685    491.764   1137.099    491.764    494.394    491.764
 53.770    995.587   1027.324    -31.737    491.789   1024.703    491.789    494.454    491.789
 53.870    921.000    898.401     22.599    491.816    895.732    491.816    494.522    491.816
 53.970    725.000    780.211    -55.211    491.844    777.487    491.844    494.598    491.844
 54.070    669.000    687.251    -18.251    491.874    684.464    491.874    494.681    491.874
 54.170    581.000    622.670    -41.670    491.904    619.815    491.904    494.772    491.904
 54.270    572.000    582.326    -10.326    491.936    579.399    491.936    494.871    491.936
 54.370    571.366    559.245     12.122    491.969    556.240    491.969    494.979    491.969
 54.470    578.000    546.861     31.139    492.004    543.772    492.004    495.096    492.004
 54.570    557.000    540.457     16.543    492.039    537.277    492.039    495.222    492.039
 54.670    571.000    537.217     33.783    492.076    533.937    492.076    495.358    492.076
 54.770    552.000    535.689     16.311    492.114    532.300    492.114    495.504    492.114
 54.870    517.000    535.204    -18.204    492.153    531.697    492.153    495.662    492.153
 54.970    567.000    535.482     31.518    492.194    531.846    492.194    495.831    492.194
 55.070    559.000    536.419     22.581    492.235    532.642    492.235    496.014    492.235
 55.170    548.317    537.995     10.322    492.278    534.064    492.278    496.210    492.278
 55.270    563.667    540.242     23.426    492.322    536.143    492.322    496.422    492.322
 55.370    563.483    543.236     20.247    492.367    538.954    492.367    496.650    492.367
 55.470    577.915    547.121     30.793    492.413    542.639    492.413    496.896    492.413
 55.570    552.000    552.162     -0.162    492.460    547.461    492.460    497.162    492.460
 55.670    529.482    558.900    -29.418    492.508    553.958    492.508    497.450    492.508
 55.770    546.000    568.507    -22.507    492.558    563.301    492.558    497.763    492.558
 55.870    612.000    583.520     28.480    492.609    578.023    492.609    498.103    492.609
 55.970    655.878    609.069     46.808    492.660    603.250    492.660    498.473    492.660
 56.070    634.000    654.477    -20.477    492.713    648.299    492.713    498.878    492.713
 56.170    741.000    734.441      6.559    492.767    727.862    492.767    499.322    492.767
 56.270    817.000    868.201    -51.201    492.822    861.174    492.822    499.810    492.822
 56.370   1061.870   1074.812    -12.942    492.878   1067.285    492.878    500.349    492.878
 56.470   1353.000   1363.846    -10.846    492.935   1355.768    492.935    500.945    492.935
 56.570   1767.000   1723.602     43.398    492.993   1714.921    492.993    501.608    492.993
 56.670   2065.087   2111.362    -46.274    493.052   2102.025    493.052    502.348    493.052
 56.770   2340.000   2451.369   -111.369    493.112   2441.321    493.112    503.179    493.112
 56.870   2628.000   2650.203    -22.203    493.174   2639.366    493.174    504.116    493.174
 56.970   2652.598   2640.121     12.477    493.236   2628.373    493.236    505.179    493.236
 57.070   2453.000   2425.747     27.253    493.299   2412.906    493.299    506.393    493.299
 57.170   2173.000   2080.198     92.802    493.363   2066.034    493.363    507.791    493.363
 57.270   1773.088   1696.360     76.729    493.428   1680.606    493.428    509.418    493.428
 57.370   1317.927   1346.841    -28.914    493.495   1329.182    493.495    511.340    493.495
 57.470   1121.000   1070.998     50.002    493.562   1051.033    493.562    513.659    493.562
 57.570    888.000    878.089      9.911    493.630    855.258    493.630    516.546    493.630
 57.670    784.016    757.583     26.432    493.699    731.054    493.699    520.279    493.699
 57.770    713.000    691.067     21.933    493.769    659.552    493.769    525.311    493.769
 57.870    607.449    661.366    -53.917    493.839    622.867    493.839    532.349    493.839
 57.970    699.411    657.099     42.311    493.911    608.589    493.911    542.421    493.911
 58.070    682.000    673.452      8.548    493.984    610.527    493.984    556.899    493.984
 58.170    733.000    710.630     22.370    494.057    627.252    494.057    577.414    494.057
 58.270    772.838    771.487      1.352    494.132    659.952    494.132    605.633    494.132
 58.370    908.402    858.870     49.532    494.207    710.181    494.207    642.850    494.207
 58.470   1019.294    973.058     46.237    494.283    777.839    494.283    689.446    494.283
 58.570   1069.000   1109.550    -40.550    494.360    859.618    494.360    744.230    494.360
 58.670   1234.000   1257.611    -23.611    494.438    948.302    494.438    803.687    494.438
 58.770   1367.604   1400.747    -33.143    494.517   1034.035    494.517    861.178    494.517
 58.870   1490.000   1519.986    -29.986    494.596   1107.769    494.596    906.779    494.596
 58.970   1627.475   1597.698     29.777    494.677   1162.837    494.677    929.524    494.677
 59.070   1629.000   1620.676      8.324    494.758   1192.636    494.758    922.807    494.758
 59.170   1532.000   1585.292    -53.292    494.840   1191.371    494.840    888.790    494.840
 59.270   1530.000   1502.346     27.654    494.922   1160.525    494.922    836.779    494.922
 59.370   1384.950   1394.422     -9.473    495.006   1111.792    495.006    777.662    495.006
 59.470   1233.000   1286.126    -53.126    495.090   1061.296    495.090    719.922    495.090
 59.570   1247.000   1197.437     49.563    495.175   1023.858    495.175    668.721    495.175
 59.670   1211.753   1144.098     67.655    495.261   1012.831    495.261    626.451    495.261
 59.770   1073.000   1138.427    -65.427    495.347   1040.119    495.347    593.527    495.347
 59.870   1188.000   1185.417      2.583    495.434   1111.575    495.434    569.092    495.434
 59.970   1314.000   1277.613     36.387    495.522   1221.265    495.522    551.633    495.522
 60.070   1429.000   1392.981     36.019    495.611   1348.849    495.611    539.465    495.611
 60.170   1582.000   1496.737     85.263    495.700   1461.086    495.700    531.058    495.700
 60.270   1570.619   1549.462     21.157    495.790   1519.786    495.790    525.193    495.790
 60.370   1564.000   1523.951     40.049    495.881   1498.613    495.881    520.995    495.881
 60.470   1574.000   1420.992    153.008    495.972   1398.921    495.972    517.883    495.972
 60.570   1314.000   1266.926     47.074    496.064   1247.397    496.064    515.491    496.064
 60.670   1104.394   1096.577      7.817    496.156   1079.073    496.156    513.604    496.156
 60.770    996.000    938.835     57.165    496.250    922.962    496.250    512.095    496.250
 60.870    826.336    810.976     15.360    496.343    796.411    496.343    510.895    496.343
 60.970    708.000    718.843    -10.843    496.438    705.307    496.438    509.965    496.438
 61.070    659.000    660.204     -1.204    496.533    647.443    496.533    509.285    496.533
 61.170    603.937    629.350    -25.413    496.628    617.122    496.628    508.844    496.628
 61.270    642.000    621.185     20.815    496.725    609.260    496.725    508.630    496.725
 61.370    633.000    633.700     -0.700    496.821    621.864    496.821    508.626    496.821
 61.470    641.000    668.546    -27.546    496.919    656.617    496.919    508.799    496.919
 61.570    696.842    729.815    -32.973    497.016    717.667    497.016    509.094    497.016
 61.670    783.000    821.310    -38.310    497.115    808.904    497.115    509.421    497.115
 61.770    934.000    942.884     -8.884    497.214    930.306    497.214    509.659    497.214
 61.870   1073.000   1086.864    -13.864    497.313   1074.340    497.313    509.676    497.313
 61.970   1198.000   1235.847    -37.847    497.413   1223.700    497.413    509.379    497.413
 62.070   1349.000   1363.163    -14.163    497.513   1351.725    497.513    508.772    497.513
 62.170   1437.000   1438.229     -1.229    497.614   1427.745    497.614    507.942    497.614
 62.270   1385.000   1438.839    -53.839    497.716   1429.426    497.716    507.011    497.716
 62.370   1411.990   1364.302     47.689    497.817   1355.960    497.817    506.087    497.817
 62.470   1240.000   1235.987      4.013    497.920   1228.632    497.920    505.241    497.920
 62.570   1131.205   1084.507     46.698    498.022   1078.009    498.022    504.512    498.022
 62.670    913.132    936.932    -23.800    498.125    931.150    498.125    503.913    498.125
 62.770    767.000    811.029    -44.029    498.229    805.827    498.229    503.441    498.229
 62.870    696.000    714.564    -18.564    498.333    709.825    498.333    503.082    498.333
 62.970    646.000    647.281     -1.281    498.437    642.909    498.437    502.816    498.437
 63.070    617.000    604.124     12.876    498.542    600.045    498.542    502.623    498.542
 63.170    583.000    578.439      4.561    498.647    574.599    498.647    502.486    498.647
 63.270    542.511    564.217    -21.706    498.752    560.577    498.752    502.389    498.752
 63.370    526.000    557.142    -31.142    498.858    553.673    498.858    502.322    498.858
 63.470    552.000    554.761     -2.761    498.964    551.440    498.964    502.278    498.964
 63.570    519.015    556.250    -37.235    499.071    553.061    499.071    502.251    499.071
 63.670    547.069    562.117    -15.048    499.177    559.044    499.177    502.237    499.177
 63.770    574.169    573.944      0.225    499.284    570.975    499.284    502.235    499.284
 63.870    630.000    594.079     35.921    499.392    591.201    499.392    502.243    499.392
 63.970    659.000    625.119     33.881    499.499    622.319    499.499    502.259    499.499
 64.070    629.255    669.070    -39.815    499.607    666.338    499.607    502.283    499.607
 64.170    722.000    726.244     -4.244    499.715    723.569    499.715    502.313    499.715
 64.270    806.084    794.127     11.957    499.824    791.503    499.824    502.351    499.824
 64.370    842.000    866.550    -24.550    499.932    863.974    499.932    502.393    499.932
 64.470    947.000    933.652     13.348    500.041    931.126    500.041    502.441    500.041
 64.570   1045.939    983.574     62.365    500.150    981.104    500.150    502.494    500.150
 64.670    982.049   1006.495    -24.446    500.260   1004.090    500.260    502.552    500.260
 64.770   1000.000    998.853      1.147    500.369    996.517    500.369    502.613    500.369
 64.870    980.000    964.207     15.793    500.479    961.941    500.479    502.679    500.479
 64.970    983.000    911.055     71.945    500.589    908.858    500.589    502.748    500.589
 65.070    868.000    849.772     18.228    500.699    847.636    500.699    502.820    500.699
 65.170    784.000    789.464     -5.464    500.809    787.381    500.809    502.896    500.809
 65.270    682.652    735.841    -53.189    500.919    733.802    500.919    502.975    500.919
 65.370    725.000    691.012     33.988    501.030    689.008    501.030    503.057    501.030
 65.470    615.344    654.733    -39.389    501.140    652.757    501.140    503.142    501.140
 65.570    615.000    625.911    -10.911    501.251    623.956    501.251    503.230    501.251
 65.670    593.000    603.395    -10.395    501.362    601.457    501.362    503.320    501.362
 65.770    569.332    586.149    -16.817    501.472    584.223    501.472    503.412    501.472
 65.870    568.000    573.279     -5.279    501.583    571.364    501.583    503.507    501.583
 65.970    571.000    564.039      6.961    501.694    562.136    501.694    503.603    501.694
 66.070    583.000    557.807     25.193    501.805    555.913    501.805    503.702    501.805
 66.170    535.000    554.044    -19.044    501.916    552.158    501.916    503.803    501.916
 66.270    569.000    552.284     16.716    502.028    550.404    502.028    503.907    502.028
 66.370    522.000    552.156    -30.156    502.139    550.280    502.139    504.013    502.139
 66.470    563.356    553.418      9.938    502.250    551.546    502.250    504.122    502.250
 66.570    599.556    556.016     43.539    502.361    554.145    502.361    504.232    502.361
 66.670    563.000    560.175      2.825    502.472    558.303    502.472    504.345    502.472
 66.770    561.000    566.564     -5.564    502.583    564.688    502.583    504.460    502.583
 66.870    529.386    576.597    -47.212    502.694    574.714    502.694    504.577    502.694
 66.970    596.506    592.876      3.630    502.805    590.984    502.805    504.696    502.805
 67.070    558.000    619.745    -61.745    502.916    617.838    502.916    504.817    502.916
 67.170    646.000    663.745    -17.745    503.027    661.821    503.027    504.941    503.027
 67.270    755.000    733.632     21.368    503.138    731.687    503.138    505.067    503.138
 67.370    845.811    839.462      6.349    503.249    837.492    503.249    505.195    503.249
 67.470    923.791    990.395    -66.604    503.359    988.402    503.359    505.326    503.359
 67.570   1169.000   1191.233    -22.233    503.470   1189.221    503.470    505.460    503.470
 67.670   1460.609   1438.348     22.261    503.580   1436.325    503.580    505.596    503.580
 67.770   1778.892   1716.179     62.713    503.690   1714.159    503.690    505.735    503.690
 67.870   2013.000   1995.551     17.449    503.800   1993.550    503.800    505.878    503.800
 67.970   2273.000   2235.114     37.886    503.910   2233.146    503.910    506.023    503.910
 68.070   2395.000   2388.371      6.629    504.020   2386.441    504.020    506.172    504.020
 68.170   2415.774   2418.920     -3.146    504.130   2417.017    504.130    506.324    504.130
 68.270   2310.000   2318.604     -8.604    504.239   2316.698    504.239    506.480    504.239
 68.370   2094.000   2112.628    -18.628    504.348   2110.678    504.348    506.641    504.348
 68.470   1836.443   1845.539     -9.096    504.457   1843.510    504.457    506.805    504.457
 68.570   1571.000   1562.613      8.387    504.566   1560.479    504.566    506.975    504.566
 68.670   1267.944   1299.041    -31.097    504.675   1296.787    504.675    507.150    504.675
 68.770    985.000   1076.491    -91.491    504.783   1074.110    504.783    507.330    504.783
 68.870    909.000    903.622      5.378    504.891    901.114    504.891    507.517    504.891
 68.970    754.000    778.912    -24.912    504.999    776.281    504.999    507.710    504.999
 69.070    657.735    694.638    -36.903    505.106    691.885    505.106    507.911    505.106
 69.170    626.095    640.742    -14.648    505.214    637.870    505.214    508.120    505.214
 69.270    633.270    607.661     25.609    505.321    604.665    505.321    508.338    505.321
 69.370    637.000    587.785     49.215    505.427    584.660    505.427    508.566    505.427
 69.470    548.082    575.799    -27.716    505.534    572.538    505.534    508.805    505.534
 69.570    597.000    568.362     28.638    505.640    564.953    505.640    509.056    505.640
 69.670    610.000    563.546     46.454    505.745    559.976    505.745    509.321    505.745
 69.770    583.507    560.316     23.191    505.851    556.570    505.851    509.601    505.851
 69.870    540.000    558.143    -18.143    505.956    554.203    505.956    509.899    505.956
 69.970    551.000    556.764     -5.764    506.060    552.611    506.060    510.216    506.060
 70.070    587.059    556.056     31.003    506.165    551.666    506.165    510.555    506.165
 70.170    570.000    555.970     14.030    506.268    551.318    506.268    510.920    506.268
 70.270    521.193    556.511    -35.319    506.372    551.569    506.372    511.314    506.372
 70.370    571.199    557.756     13.443    506.475    552.488    506.475    511.741    506.475
 70.470    536.000    559.881    -23.881    506.577    554.250    506.577    512.206    506.577
 70.570    563.000    563.250     -0.250    506.680    557.210    506.680    512.716    506.680
 70.670    540.988    568.555    -27.567    506.781    562.051    506.781    513.279    506.781
 70.770    589.080    577.028     12.052    506.883    569.998    506.883    513.905    506.883
 70.870    597.000    590.723      6.277    506.983    583.087    506.983    514.607    506.983
 70.970    630.000    612.796     17.204    507.084    604.455    507.084    515.406    507.084
 71.070    638.917    647.662     -8.745    507.184    638.486    507.184    516.331    507.184
 71.170    652.000    700.842    -48.842    507.283    690.650    507.283    517.431    507.283
 71.270    789.786    778.277     11.509    507.382    766.812    507.382    518.782    507.382
 71.370    894.000    885.001      8.999    507.480    871.881    507.480    520.508    507.480
 71.470   1016.000   1023.268     -7.268    507.578   1007.919    507.578    522.804    507.578
 71.570   1184.344   1190.518     -6.175    507.675   1172.076    507.675    525.961    507.675
 71.670   1350.000   1377.734    -27.734    507.772   1354.922    507.772    530.396    507.772
 71.770   1509.371   1568.701    -59.330    507.868   1539.690    507.868    536.667    507.868
 71.870   1801.000   1740.616     60.384    507.964   1702.894    507.964    545.463    507.964
 71.970   1869.624   1867.029      2.594    508.059   1817.322    508.059    557.552    508.059
 72.070   1857.122   1924.961    -67.839    508.154   1859.250    508.154    573.679    508.154
 72.170   1943.000   1905.111     37.889    508.248   1818.813    508.248    594.401    508.248
 72.270   1776.212   1817.179    -40.967    508.341   1705.528    508.341    619.894    508.341
 72.370   1670.000   1684.289    -14.289    508.434   1542.929    508.434    649.737    508.434
 72.470   1599.000   1532.427     66.573    508.526   1358.215    508.526    682.711    508.526
 72.570   1429.000   1382.988     46.012    508.617   1174.962    508.617    716.636    508.617
 72.670   1274.000   1249.631     24.369    508.708   1010.054    508.708    748.288    508.708
 72.770   1073.746   1137.806    -64.060    508.798    873.039    508.798    773.571    508.798
 72.870    999.842   1046.245    -46.403    508.887    766.871    508.887    788.267    508.887
 72.970    962.637    970.053     -7.416    508.976    689.569    508.976    789.463    508.976
 73.070    903.333    904.132     -0.799    509.064    636.282    509.064    776.915    509.064
 73.170    813.409    845.215    -31.806    509.152    601.184    509.152    753.181    509.152
 73.270    775.000    791.982    -16.982    509.239    578.827    509.239    722.392    509.239
 73.370    760.003    744.262     15.742    509.325    564.845    509.325    688.740    509.325
 73.470    597.000    702.333   -105.333    509.410    556.132    509.410    655.610    509.410
 73.570    630.718    666.542    -35.824    509.495    550.693    509.495    625.344    509.495
 73.670    629.000    637.082     -8.082    509.578    547.365    509.578    599.298    509.578
 73.770    576.000    613.869    -37.869    509.662    545.530    509.662    578.004    509.662
 73.870    584.935    596.503    -11.569    509.744    544.887    509.744    561.367    509.744
 73.970    609.000    584.313     24.687    509.826    545.278    509.826    548.872    509.826
 74.070    585.000    576.440      8.560    509.906    546.571    509.906    539.791    509.906
 74.170    608.392    571.929     36.463    509.986    548.586    509.986    533.351    509.986
 74.270    609.190    569.801     39.390    510.066    551.049    510.066    528.845    510.066
 74.370    621.000    569.094     51.906    510.144    553.578    510.144    525.694    510.144
 74.470    637.000    568.901     68.099    510.222    555.703    510.222    523.458    510.222
 74.570    586.917    568.418     18.499    510.299    556.930    510.299    521.830    510.299
 74.670    536.571    567.059    -30.488    510.375    556.878    510.375    520.600    510.375
 74.770    630.000    564.583     65.417    510.450    555.440    510.450    519.636    510.450
 74.870    596.000    561.133     34.867    510.524    552.840    510.524    518.856    510.524
 74.970    547.409    557.117     -9.707    510.597    549.540    510.597    518.208    510.597
 75.070    557.748    553.051      4.697    510.670    546.089    510.670    517.660    510.670
 75.170    570.000    549.451     20.549    510.742    543.024    510.742    517.190    510.742
 75.270    558.000    546.804     11.196    510.813    540.848    510.813    516.784    510.813
 75.370    578.000    545.579     32.421    510.883    540.038    510.883    516.432    510.883
 75.470    538.000    546.250     -8.250    510.952    541.079    510.952    516.125    510.952
 75.570    541.000    549.321     -8.321    511.020    544.482    511.020    515.857    511.020
 75.670    563.000    555.315      7.685    511.087    550.771    511.087    515.622    511.087
 75.770    534.356    564.709    -30.352    511.153    560.431    511.153    515.416    511.153
 75.870    560.380    577.820    -17.440    511.219    573.781    511.219    515.235    511.219
 75.970    646.000    594.642     51.358    511.283    590.819    511.283    515.077    511.283
 76.070    613.000    614.672     -1.672    511.347    611.043    511.347    514.937    511.347
 76.170    608.324    636.775    -28.450    511.409    633.322    511.409    514.814    511.409
 76.270    690.000    659.130     30.870    511.471    655.840    511.471    514.707    511.471
 76.370    660.000    679.294    -19.294    511.531    676.154    511.531    514.612    511.531
 76.470    697.000    694.459      2.541    511.591    691.458    511.591    514.529    511.591
 76.570    654.000    702.041    -48.041    511.650    699.173    511.650    514.456    511.650
 76.670    721.000    700.550     20.450    511.707    697.808    511.707    514.393    511.707
 76.770    669.713    690.233    -20.520    511.764    687.610    511.764    514.338    511.764
 76.870    703.000    672.951     30.049    511.820    670.441    511.820    514.290    511.820
 76.970    681.000    651.405     29.595    511.874    648.999    511.874    514.249    511.874
 77.070    627.820    628.325     -0.505    511.928    626.016    511.928    514.213    511.928
 77.170    573.032    605.976    -32.944    511.980    603.756    511.980    514.183    511.980
 77.270    559.000    585.957    -26.957    512.032    583.820    512.032    514.157    512.032
 77.370    554.000    569.170    -15.170    512.082    567.109    512.082    514.136    512.082
 77.470    549.000    555.894     -6.894    512.132    553.903    512.132    514.118    512.132
 77.570    496.215    545.936    -49.720    512.180    544.009    512.180    514.103    512.180
 77.670    557.931    538.811     19.121    512.227    536.943    512.227    514.092    512.227
 77.770    522.000    533.916    -11.916    512.274    532.105    512.274    514.083    512.274
 77.870    517.000    530.661    -13.661    512.319    528.901    512.319    514.077    512.319
 77.970    542.000    528.538     13.462    512.363    526.826    512.363    514.073    512.363
 78.070    481.757    527.164    -45.408    512.406    525.498    512.406    514.071    512.406
 78.170    522.000    526.269     -4.269    512.447    524.645    512.447    514.071    512.447
 78.270    537.910    525.675     12.236    512.488    524.090    512.488    514.072    512.488
 78.370    547.000    525.274     21.726    512.528    523.727    512.528    514.074    512.528
 78.470    539.000    525.009     13.991    512.566    523.495    512.566    514.078    512.566
 78.570    489.000    524.847    -35.847    512.603    523.366    512.603    514.084    512.603
 78.670    479.000    524.766    -45.766    512.639    523.315    512.639    514.090    512.639
 78.770    572.000    524.767     47.233    512.674    523.343    512.674    514.098    512.674
 78.870    569.000    524.915     44.085    512.708    523.515    512.708    514.107    512.708
 78.970    477.027    525.204    -48.177    512.741    523.826    512.741    514.118    512.741
 79.070    561.325    525.660     35.666    512.773    524.301    512.773    514.131    512.773
 79.170    521.824    526.314     -4.490    512.803    524.969    512.803    514.146    512.803
 79.270    574.140    527.198     46.942    512.832    525.864    512.832    514.165    512.832
 79.370    519.000    528.344     -9.344    512.860    527.014    512.860    514.188    512.860
 79.470    576.420    529.782     46.638    512.887    528.449    512.887    514.217    512.887
 79.570    489.000    531.545    -42.545    512.912    530.201    512.912    514.252    512.912
 79.670    544.490    533.680     10.810    512.937    532.316    512.937    514.296    512.937
 79.770    559.864    536.265     23.599    512.960    534.871    512.960    514.349    512.960
 79.870    562.000    539.424     22.576    512.982    537.989    512.982    514.412    512.982
 79.970    498.000    543.353    -45.353    513.003    541.866    513.003    514.484    513.003
 80.070    548.529    548.342      0.187    513.022    546.793    513.022    514.566    513.022
 80.170    577.104    554.791     22.313    513.040    553.172    513.040    514.655    513.040
 80.270    526.000    563.180    -37.180    513.057    561.487    513.057    514.748    513.057
 80.370    575.149    573.985      1.163    513.073    572.219    513.073    514.840    513.073
 80.470    581.000    587.567     -6.567    513.088    585.735    513.088    514.923    513.088
 80.570    580.000    604.045    -24.045    513.101    602.162    513.101    514.991    513.101
 80.670    602.000    623.201    -21.201    513.113    621.292    513.113    515.034    513.113
 80.770    666.496    644.418     22.078    513.123    642.513    513.123    515.046    513.123
 80.870    627.000    666.672    -39.672    513.133    664.803    513.133    515.026    513.133
 80.970    671.000    688.626    -17.626    513.141    686.822    513.141    514.976    513.141
 81.070    715.235    708.812      6.423    513.148    707.096    513.148    514.903    513.148
 81.170    724.000    725.847     -1.847    513.154    724.231    513.154    514.815    513.154
 81.270    793.381    738.570     54.812    513.158    737.059    513.158    514.721    513.158
 81.370    799.000    746.144     52.856    513.161    744.737    513.161    514.626    513.161
 81.470    783.000    748.168     34.832    513.162    746.858    513.162    514.536    513.162
 81.570    749.000    744.725      4.275    513.163    743.502    513.163    514.453    513.163
 81.670    806.000    736.298     69.702    513.162    735.151    513.162    514.379    513.162
 81.770    697.000    723.677    -26.677    513.160    722.592    513.160    514.314    513.160
 81.870    661.798    707.932    -46.133    513.156    706.898    513.156    514.259    513.156
 81.970    661.000    690.328    -29.328    513.151    689.335    513.151    514.211    513.151
 82.070    672.000    672.102     -0.102    513.145    671.139    513.145    514.171    513.145
 82.170    628.839    654.202    -25.363    513.137    653.262    513.137    514.137    513.137
 82.270    607.694    637.192    -29.497    513.128    636.269    513.128    514.107    513.128
 82.370    637.000    621.312     15.688    513.118    620.401    513.118    514.079    513.118
 82.470    582.000    606.658    -24.658    513.107    605.756    513.107    514.054    513.107
 82.570    646.899    593.334     53.565    513.094    592.437    513.094    514.031    513.094
 82.670    601.000    581.496     19.504    513.079    580.602    513.079    514.008    513.079
 82.770    558.516    571.328    -12.812    513.064    570.435    513.064    513.984    513.064
 82.870    597.597    563.005     34.591    513.047    562.112    513.047    513.961    513.047
 82.970    569.134    556.662     12.472    513.028    555.767    513.028    513.937    513.028
 83.070    553.593    552.388      1.204    513.008    551.491    513.008    513.913    513.008
 83.170    554.000    550.206      3.794    512.987    549.305    512.987    513.888    512.987
 83.270    608.000    550.054     57.946    512.965    549.149    512.965    513.862    512.965
 83.370    562.000    551.763     10.237    512.941    550.853    512.941    513.835    512.941
 83.470    546.000    555.043     -9.043    512.915    554.128    512.915    513.808    512.915
 83.570    534.000    559.475    -25.475    512.889    558.555    512.889    513.779    512.889
 83.670    601.000    564.523     36.477    512.861    563.598    512.861    513.749    512.861
 83.770    599.751    569.549     30.202    512.831    568.620    512.831    513.719    512.831
 83.870    528.000    573.859    -45.859    512.800    572.926    512.800    513.687    512.800
 83.970    573.552    576.778     -3.226    512.768    575.843    512.768    513.655    512.768
 84.070    554.000    577.776    -23.776    512.734    576.841    512.734    513.621    512.734
 84.170    573.000    576.610     -3.610    512.699    575.678    512.699    513.586    512.699
 84.270    568.252    573.396     -5.145    512.663    572.467    512.663    513.550    512.663
 84.370    572.418    568.549      3.870    512.625    567.624    512.625    513.514    512.625
 84.470    562.000    562.638     -0.638    512.586    561.718    512.586    513.476    512.586
 84.570    577.000    556.256     20.744    512.545    555.339    512.545    513.437    512.545
 84.670    554.000    549.920      4.080    512.503    549.007    512.503    513.396    512.503
 84.770    560.000    544.037     15.963    512.459    543.126    512.459    513.355    512.459
 84.870    520.000    538.877    -18.877    512.414    537.966    512.414    513.313    512.414
 84.970    547.871    534.580     13.292    512.368    533.670    512.368    513.269    512.368
 85.070    536.000    531.175      4.825    512.320    530.263    512.320    513.225    512.320
 85.170    498.000    528.606    -30.606    512.271    527.692    512.271    513.179    512.271
 85.270    522.000    526.769     -4.769    512.220    525.852    512.220    513.133    512.220
 85.370    498.000    525.539    -27.539    512.168    524.618    512.168    513.085    512.168
 85.470    547.000    524.798     22.202    512.115    523.873    512.115    513.036    512.115
 85.570    498.000    524.453    -26.453    512.060    523.522    512.060    512.986    512.060
 85.670    506.397    524.441    -18.044    512.004    523.505    512.004    512.935    512.004
 85.770    514.000    524.743    -10.743    511.946    523.800    511.946    512.883    511.946
 85.870    512.000    525.379    -13.379    511.886    524.429    511.886    512.830    511.886
 85.970    531.000    526.414      4.586    511.826    525.457    511.826    512.775    511.826
 86.070    545.000    527.957     17.043    511.764    526.991    511.764    512.720    511.764
 86.170    509.000    530.155    -21.155    511.700    529.178    511.700    512.664    511.700
 86.270    538.000    533.187      4.813    511.635    532.199    511.635    512.606    511.635
 86.370    562.000    537.247     24.753    511.569    536.246    511.569    512.548    511.569
 86.470    557.000    542.522     14.478    511.501    541.506    511.501    512.488    511.501
 86.570    531.000    549.146    -18.146    511.432    548.113    511.432    512.428    511.432
 86.670    511.186    557.181    -45.995    511.361    556.129    511.361    512.366    511.361
 86.770    553.000    566.579    -13.579    511.289    565.506    511.289    512.304    511.289
 86.870    624.266    577.097     47.169    511.215    576.002    511.215    512.241    511.215
 86.970    575.000    588.316    -13.316    511.140    587.198    511.140    512.177    511.140
 87.070    621.000    599.625     21.375    511.064    598.484    511.064    512.111    511.064
 87.170    576.524    610.240    -33.716    510.986    609.078    510.986    512.046    510.986
 87.270    617.812    619.257     -1.445    510.906    618.075    510.906    511.979    510.906
 87.370    659.359    625.765     33.594    510.826    624.565    510.826    511.911    510.826
 87.470    603.987    629.028    -25.041    510.743    627.816    510.743    511.843    510.743
 87.570    616.420    628.694    -12.274    510.660    627.472    510.660    511.774    510.660
 87.670    674.154    624.900     49.255    510.575    623.671    510.575    511.704    510.575
 87.770    649.000    618.225     30.775    510.488    616.993    510.488    511.633    510.488
 87.870    636.000    609.525     26.475    510.400    608.289    510.400    511.562    510.400
 87.970    621.637    599.760     21.878    510.311    598.520    510.311    511.490    510.311
 88.070    557.455    589.875    -32.420    510.220    588.629    510.220    511.418    510.220
 88.170    611.000    580.720     30.280    510.128    579.468    510.128    511.345    510.128
 88.270    597.000    572.996     24.004    510.034    571.734    510.034    511.272    510.034
 88.370    591.000    567.221     23.779    509.939    565.947    509.939    511.199    509.939
 88.470    556.000    563.712     -7.712    509.842    562.424    509.842    511.125    509.842
 88.570    562.000    562.585     -0.585    509.744    561.282    509.744    511.051    509.744
 88.670    598.151    563.766     34.385    509.645    562.445    509.645    510.977    509.645
 88.770    537.864    567.000    -29.136    509.544    565.660    509.544    510.903    509.544
 88.870    643.000    571.874     71.126    509.442    570.514    509.442    510.828    509.442
 88.970    580.000    577.838      2.162    509.339    576.457    509.339    510.753    509.339
 89.070    592.000    584.233      7.767    509.234    582.828    509.234    510.680    509.234
 89.170    629.000    590.321     38.679    509.127    588.889    509.127    510.607    509.127
 89.270    631.719    595.341     36.378    509.019    593.880    509.019    510.535    509.019
 89.370    597.000    598.592     -1.592    508.910    597.099    508.910    510.464    508.910
 89.470    603.000    599.556      3.444    508.799    598.026    508.799    510.394    508.799
 89.570    580.000    598.018    -18.018    508.687    596.445    508.687    510.325    508.687
 89.670    623.231    594.115     29.116    508.574    592.495    508.574    510.257    508.574
 89.770    606.672    588.280     18.392    508.459    586.607    508.459    510.192    508.459
 89.870    615.000    581.105     33.895    508.343    579.374    508.343    510.128    508.343
 89.970    554.000    573.218    -19.218    508.225    571.424    508.225    510.067    508.225
 90.070    578.514    565.193     13.321    508.106    563.331    508.106    510.009    508.106
 90.170    533.000    557.507    -24.507    507.986    555.573    507.986    509.954    507.986
 90.270    575.700    550.514     25.186    507.864    548.502    507.864    509.903    507.864
 90.370    542.480    544.439     -1.960    507.741    542.344    507.741    509.857    507.741
 90.470    487.000    539.390    -52.390    507.617    537.206    507.617    509.817    507.617
 90.570    505.669    535.375    -29.705    507.491    533.094    507.491    509.783    507.491
 90.670    545.948    532.326     13.622    507.364    529.940    507.364    509.757    507.364
 90.770    549.129    530.129     19.000    507.235    527.627    507.235    509.742    507.235
 90.870    480.132    528.629    -48.497    507.105    525.998    507.105    509.740    507.105
 90.970    506.000    527.739    -21.739    506.974    524.960    506.974    509.755    506.974
 91.070    548.625    527.379     21.246    506.842    524.429    506.842    509.793    506.842
 91.170    511.205    527.458    -16.253    506.708    524.306    506.708    509.860    506.708
 91.270    525.002    527.947     -2.944    506.573    524.551    506.573    509.967    506.573
 91.370    493.891    528.862    -34.972    506.436    525.169    506.436    510.127    506.436
 91.470    512.390    530.271    -17.881    506.298    526.209    506.298    510.357    506.298
 91.570    509.519    532.287    -22.767    506.159    527.762    506.159    510.679    506.159
 91.670    520.000    535.072    -15.072    506.019    529.965    506.019    511.119    506.019
 91.770    533.000    538.834     -5.834    505.877    532.994    505.877    511.709    505.877
 91.870    561.293    543.817     17.476    505.734    537.055    505.734    512.485    505.734
 91.970    570.000    550.287     19.713    505.589    542.376    505.589    513.485    505.589
 92.070    547.000    558.520    -11.520    505.444    549.194    505.444    514.751    505.444
 92.170    595.000    568.761     26.239    505.297    557.713    505.297    516.321    505.297
 92.270    588.000    581.198      6.802    505.149    568.089    505.149    518.228    505.149
 92.370    591.914    595.932     -4.018    504.999    580.401    504.999    520.494    504.999
 92.470    561.603    612.940    -51.337    504.848    594.616    504.848    523.129    504.848
 92.570    602.680    632.050    -29.370    504.696    610.576    504.696    526.121    504.696
 92.670    658.000    652.920      5.080    504.543    627.974    504.543    529.433    504.543
 92.770    742.000    675.031     66.969    504.389    646.356    504.389    533.001    504.389
 92.870    728.000    697.692     30.308    504.233    665.127    504.233    536.729    504.233
 92.970    737.514    720.075     17.439    504.076    683.596    504.076    540.482    504.076
 93.070    761.000    741.298     19.702    503.918    701.050    503.918    544.090    503.918
 93.170    701.526    760.562    -59.036    503.759    716.898    503.759    547.345    503.759
 93.270    737.000    777.307    -40.307    503.598    730.810    503.598    550.016    503.598
 93.370    767.882    791.272    -23.390    503.436    742.756    503.436    551.873    503.436
 93.470    862.483    802.507     59.976    503.273    752.975    503.273    552.728    503.273
 93.570    847.000    811.297     35.703    503.109    761.850    503.109    552.481    503.109
 93.670    858.173    818.077     40.096    502.944    769.804    502.944    551.144    502.944
 93.770    881.000    823.382     57.618    502.778    777.251    502.778    548.837    502.778
 93.870    903.000    827.846     75.154    502.610    784.627    502.610    545.761    502.610
 93.970    882.457    832.195     50.262    502.441    792.425    502.441    542.145    502.441
 94.070    874.000    837.184     36.816    502.271    801.172    502.271    538.220    502.271
 94.170    834.782    843.446     -8.664    502.100    811.299    502.100    534.186    502.100
 94.270    871.919    851.305     20.614    501.928    822.969    501.928    530.206    501.928
 94.370    839.000    860.630    -21.630    501.755    835.923    501.755    526.407    501.755
 94.470    889.000    870.771     18.229    501.581    849.420    501.581    522.880    501.581
 94.570    899.000    880.591     18.409    501.405    862.267    501.405    519.683    501.405
 94.670    946.000    888.578     57.422    501.229    872.919    501.229    516.849    501.229
 94.770    903.000    893.040      9.960    501.051    879.676    501.051    514.383    501.051
 94.870    956.000    892.394     63.606    500.872    880.968    500.872    512.276    500.872
 94.970    917.887    885.521     32.366    500.693    875.699    500.693    510.501    500.693
 95.070    888.225    872.055     16.170    500.512    863.537    500.512    509.025    500.512
 95.170    912.878    852.499     60.379    500.330    845.023    500.330    507.808    500.330
 95.270    782.838    828.102    -45.263    500.147    821.446    500.147    506.811    500.147
 95.370    891.000    800.593     90.407    499.964    794.573    499.964    505.994    499.964
 95.470    719.997    771.903    -51.906    499.779    766.371    499.779    505.324    499.779
 95.570    759.000    744.011     14.989    499.593    738.848    499.593    504.769    499.593
 95.670    704.228    718.773    -14.545    499.406    713.886    499.406    504.304    499.406
 95.770    727.000    697.862     29.138    499.218    693.178    499.218    503.909    499.218
 95.870    691.000    682.752      8.248    499.030    678.216    499.030    503.567    499.030
 95.970    690.000    674.710     15.290    498.840    670.277    498.840    503.267    498.840
 96.070    715.646    674.805     40.841    498.649    670.442    498.649    502.999    498.649
 96.170    675.000    683.921     -8.921    498.458    679.600    498.458    502.757    498.458
 96.270    648.755    702.752    -53.997    498.265    698.450    498.265    502.535    498.265
 96.370    715.000    731.790    -16.790    498.072    727.488    498.072    502.331    498.072
 96.470    719.605    771.237    -51.632    497.878    766.919    497.878    502.142    497.878
 96.570    867.000    820.929     46.071    497.683    816.579    497.683    501.967    497.683
 96.670    878.000    880.217     -2.217    497.487    875.823    497.487    501.805    497.487
 96.770    936.000    947.859    -11.859    497.290    943.409    497.290    501.655    497.290
 96.870    986.058   1021.936    -35.878    497.092   1017.419    497.092    501.517    497.092
 96.970   1044.000   1099.803    -55.803    496.894   1095.209    496.894    501.391    496.894
 97.070   1141.000   1178.106    -37.106    496.694   1173.426    496.694    501.278    496.694
 97.170   1217.000   1252.864    -35.864    496.494   1248.089    496.494    501.177    496.494
 97.270   1350.000   1319.649     30.351    496.293   1314.770    496.293    501.088    496.293
 97.370   1346.000   1373.929    -27.929    496.092   1368.936    496.092    501.014    496.092
 97.470   1453.308   1411.605     41.703    495.889   1406.487    495.889    500.954    495.889
 97.570   1366.000   1429.690    -63.690    495.686   1424.433    495.686    500.910    495.686
 97.670   1458.000   1426.922     31.078    495.482   1421.508    495.482    500.884    495.482
 97.770   1390.000   1404.005    -14.005    495.277   1398.415    495.277    500.877    495.277
 97.870   1371.000   1363.378      7.622    495.072   1357.586    495.072    500.891    495.072
 97.970   1345.000   1308.648     36.352    494.866   1302.625    494.866    500.931    494.866
 98.070   1288.393   1243.990     44.404    494.659   1237.701    494.659    501.000    494.659
 98.170   1161.000   1173.681    -12.681    494.452   1167.086    494.452    501.105    494.452
 98.270   1153.000   1101.795     51.205    494.244   1094.846    494.244    501.254    494.244
 98.370   1036.345   1032.003      4.342    494.035   1024.641    494.035    501.458    494.035
 98.470    970.000    967.467      2.533    493.826    959.618    493.826    501.731    493.826
 98.570    888.804    910.791    -21.986    493.616    902.362    493.616    502.094    493.616
 98.670    900.541    864.037     36.504    493.406    854.911    493.406    502.573    493.406
 98.770    858.000    828.777     29.223    493.195    818.801    493.195    503.203    493.195
 98.870    798.555    806.169     -7.614    492.983    795.149    492.983    504.026    492.983
 98.970    791.465    797.037     -5.572    492.771    784.722    492.771    505.100    492.771
 99.070    819.766    801.976     17.790    492.559    788.049    492.559    506.490    492.559
 99.170    784.000    821.386    -37.386    492.345    805.449    492.345    508.278    492.345
 99.270    887.000    855.458     31.542    492.132    837.023    492.132    510.556    492.132
 99.370    873.000    904.181    -31.181    491.918    882.652    491.918    513.430    491.918
 99.470    922.000    967.257    -45.257    491.703    941.928    491.703    517.012    491.703
 99.570   1064.000   1044.019     19.981    491.488   1014.067    491.488    521.418    491.488
 99.670   1136.000   1133.319      2.681    491.273   1097.809    491.273    526.762    491.273
 99.770   1208.000   1233.429    -25.429    491.057   1191.324    491.057    533.145    491.057
 99.870   1336.000   1341.964     -5.964    490.841   1292.151    490.841    540.645    490.841
 99.970   1431.906   1455.838    -23.932    490.624   1397.155    490.624    549.310    490.624
100.070   1592.383   1571.293     21.090    490.407   1502.580    490.407    559.140    490.407
100.170   1755.000   1684.043     70.957    490.190   1604.191    490.190    570.080    490.190
100.270   1881.075   1789.559     91.516    489.972   1697.582    489.972    582.011    489.972
100.370   1875.414   1883.478     -8.064    489.754   1778.583    489.754    594.736    489.754
100.470   1998.471   1962.019     36.452    489.536   1843.691    489.536    607.978    489.536
100.570   2030.000   2022.236      7.764    489.318   1890.321    489.318    621.373    489.318
100.670   2093.000   2062.037     30.963    489.099   1916.837    489.099    634.463    489.099
100.770   2147.000   2080.082     66.918    488.880   1922.437    488.880    646.709    488.880
100.870   2102.000   2075.741     26.259    488.661   1907.103    488.661    657.501    488.661
100.970   2067.000   2049.258     17.742    488.442   1871.714    488.442    666.199    488.442
101.070   1907.776   2002.023    -94.247    488.222   1818.258    488.222    672.206    488.222
101.170   2006.693   1936.751     69.942    488.003   1749.920    488.003    675.055    488.003
101.270   1914.000   1857.384     56.616    487.783   1670.884    487.783    674.499    487.783
101.370   1805.000   1768.681     36.319    487.563   1585.885    487.563    670.567    487.563
101.470   1673.000   1675.663     -2.663    487.343   1499.645    487.343    663.557    487.343
101.570   1601.722   1583.074     18.648    487.123   1416.409    487.123    653.969    487.123
101.670   1509.955   1494.968     14.986    486.903   1339.619    486.903    642.417    486.903
101.770   1405.000   1414.465     -9.465    486.683   1271.759    486.683    629.537    486.683
101.870   1375.934   1343.629     32.306    486.463   1214.296    486.463    615.927    486.463
101.970   1209.801   1283.456    -73.655    486.243   1167.704    486.243    602.113    486.243
102.070   1244.000   1233.932     10.068    486.023   1131.529    486.023    588.530    486.023
102.170   1159.000   1194.139    -35.139    485.803   1104.509    485.803    575.528    485.803
102.270   1106.000   1162.411    -56.411    485.583   1084.717    485.583    563.365    485.583
102.370   1124.000   1136.534    -12.534    485.363   1069.757    485.363    552.223    485.363
102.470   1116.363   1113.985      2.378    485.143   1057.001    485.143    542.208    485.143
102.570   1080.000   1092.238    -12.238    484.924   1043.880    484.924    533.362    484.924
102.670   1098.000   1069.084     28.916    484.704   1028.196    484.704    525.674    484.704
102.770   1009.000   1042.922    -33.922    484.485   1008.398    484.485    519.091    484.485
102.870   1030.000   1012.922     17.078    484.266    983.743    484.266    513.528    484.266
102.970    966.000    979.022    -13.022    484.047    954.270    484.047    508.882    484.047
103.070    937.000    941.776     -4.776    483.829    920.649    483.829    505.037    483.829
103.170    891.000    902.135    -11.135    483.611    883.947    483.611    501.878    483.611
103.270    863.000    861.246      1.754    483.393    845.420    483.393    499.293    483.393
103.370    826.000    820.287      5.713    483.175    806.352    483.175    497.180    483.175
103.470    783.646    780.365      3.280    482.958    767.939    482.958    495.448    482.958
103.570    716.557    742.440    -25.883    482.741    731.220    482.741    494.019    482.741
103.670    729.000    707.278     21.722    482.524    697.025    482.524    492.828    482.524
103.770    660.000    675.430    -15.430    482.308    665.960    482.308    491.823    482.308
103.870    607.000    647.228    -40.228    482.093    638.397    482.093    490.961    482.093
103.970    623.276    622.791      0.485    481.877    614.490    481.877    490.210    481.877
104.070    615.000    602.054     12.946    481.663    594.197    481.663    489.545    481.663
104.170    576.000    584.807     -8.807    481.449    577.329    481.449    488.947    481.449
104.270    598.000    570.741     27.259    481.235    563.590    481.235    488.403    481.235
104.370    525.423    559.487    -34.064    481.022    552.621    481.022    487.901    481.022
104.470    567.000    550.652     16.348    480.810    544.037    480.810    487.433    480.810
104.570    527.000    543.852    -16.852    480.598    537.461    480.598    486.995    480.598
104.670    564.000    538.737     25.263    480.387    532.546    480.387    486.582    480.387
104.770    499.000    534.998    -35.998    480.176    528.986    480.176    486.190    480.176
104.870    532.000    532.384     -0.384    479.966    526.534    479.966    485.817    479.966
104.970    531.000    530.699      0.301    479.757    524.993    479.757    485.462    479.757
105.070    539.000    529.803      9.197    479.549    524.228    479.549    485.122    479.549
105.170    560.551    529.610     30.942    479.341    524.151    479.341    484.797    479.341
105.270    558.294    530.077     28.216    479.135    524.723    479.135    484.484    479.135
105.370    517.000    531.212    -14.212    478.929    525.950    478.929    484.184    478.929
105.470    554.000    533.053     20.947    478.724    527.874    478.724    483.895    478.724
105.570    549.000    535.671     13.329    478.519    530.564    478.519    483.617    478.519
105.670    584.000    539.159     44.841    478.316    534.113    478.316    483.350    478.316
105.770    583.146    543.619     39.526    478.114    538.628    478.114    483.091    478.114
105.870    515.187    549.155    -33.968    477.912    544.208    477.912    482.842    477.912
105.970    548.000    555.846     -7.846    477.712    550.941    477.712    482.597    477.712
106.070    548.000    563.754    -15.754    477.513    558.880    477.513    482.364    477.513
106.170    553.000    572.884    -19.884    477.314    568.032    477.314    482.140    477.314
106.270    557.000    583.185    -26.185    477.117    578.349    477.117    481.924    477.117
106.370    616.000    594.540     21.460    476.921    589.712    476.921    481.716    476.921
106.470    575.000    606.760    -31.760    476.726    601.934    476.726    481.516    476.726
106.570    630.000    619.586     10.414    476.532    614.756    476.532    481.323    476.532
106.670    655.000    632.689     22.311    476.340    627.849    476.340    481.137    476.340
106.770    605.719    645.685    -39.966    476.148    640.830    476.148    480.958    476.148
106.870    618.000    658.144    -40.144    475.958    653.271    475.958    480.786    475.958
106.970    641.000    669.613    -28.613    475.769    664.723    475.769    480.612    475.769
107.070    719.827    679.670     40.157    475.582    674.755    475.582    480.451    475.582
107.170    675.000    687.942    -12.942    475.396    682.992    475.396    480.300    475.396
107.270    714.000    694.164     19.836    475.211    689.176    475.211    480.157    475.211
107.370    753.446    698.237     55.208    475.028    693.205    475.028    480.021    475.028
107.470    712.460    700.249     12.211    474.846    695.167    474.846    479.893    474.846
107.570    695.000    700.464     -5.464    474.665    695.327    474.665    479.772    474.665
107.670    710.000    699.282     10.718    474.486    694.084    474.486    479.658    474.486
107.770    653.000    697.174    -44.174    474.309    691.909    474.309    479.552    474.309
107.870    694.000    694.618     -0.618    474.133    689.280    474.133    479.454    474.133
107.970    719.600    692.047     27.553    473.959    686.630    473.959    479.364    473.959
108.070    675.544    689.805    -14.262    473.786    684.301    473.786    479.282    473.786
108.170    630.000    688.128    -58.128    473.615    682.529    473.615    479.210    473.615
108.270    693.066    687.122      5.944    473.446    681.422    473.446    479.145    473.446
108.370    699.629    686.766     12.863    473.279    680.957    473.279    479.091    473.279
108.470    670.000    686.911    -16.911    473.113    680.986    473.113    479.045    473.113
108.570    685.000    687.296     -2.296    472.949    681.245    472.949    479.010    472.949
108.670    727.855    687.568     40.286    472.787    681.384    472.787    478.985    472.787
108.770    688.162    687.325      0.837    472.627    680.997    472.627    478.971    472.627
108.870    727.789    686.156     41.633    472.469    679.675    472.469    478.968    472.469
108.970    651.868    683.703    -31.835    472.312    677.059    472.312    478.977    472.312
109.070    662.000    679.712    -17.712    472.158    672.893    472.158    478.999    472.158
109.170    676.000    674.070      1.930    472.005    667.065    472.005    479.034    472.005
109.270    662.000    666.812     -4.812    471.855    659.608    471.855    479.083    471.855
109.370    676.995    658.096     18.899    471.707    650.681    471.707    479.147    471.707
109.470    653.415    648.187      5.227    471.560    640.546    471.560    479.226    471.560
109.570    627.000    637.462    -10.462    471.416    629.580    471.416    479.322    471.416
109.670    603.000    626.240    -23.240    471.275    618.101    471.275    479.435    471.275
109.770    606.850    614.861     -8.011    471.135    606.449    471.135    479.568    471.135
109.870    630.000    603.644     26.356    470.998    594.939    470.998    479.721    470.998
109.970    611.000    592.869     18.131    470.862    583.852    470.862    479.896    470.862
110.070    580.000    582.771     -2.771    470.730    573.420    470.730    480.095    470.730
110.170    604.000    573.536     30.464    470.599    563.826    470.599    480.321    470.599
110.270    523.992    565.294    -41.302    470.471    555.200    470.471    480.575    470.471
110.370    564.000    558.128      5.872    470.346    547.619    470.346    480.862    470.346
110.470    565.000    552.072     12.928    470.222    541.115    470.222    481.186    470.222
110.570    540.325    547.120     -6.795    470.102    535.674    470.102    481.552    470.102
110.670    538.006    543.234     -5.228    469.984    531.254    469.984    481.966    469.984
110.770    498.462    540.351    -41.889    469.868    527.783    469.868    482.437    469.868
110.870    542.000    538.395      3.605    469.756    525.173    469.756    482.976    469.756
110.970    555.000    537.280     17.720    469.645    523.327    469.645    483.596    469.645
111.070    583.899    536.922     46.977    469.538    522.144    469.538    484.313    469.538
111.170    519.000    537.245    -18.245    469.433    521.525    469.433    485.149    469.433
111.270    536.000    538.180     -2.180    469.331    521.377    469.331    486.129    469.331
111.370    568.073    539.675     28.398    469.232    521.614    469.232    487.288    469.232
111.470    511.032    541.696    -30.664    469.136    522.162    469.136    488.663    469.136
111.570    560.000    544.225     15.775    469.042    522.957    469.042    490.303    469.042
111.670    561.000    547.266     13.734    468.952    523.944    468.952    492.266    468.952
111.770    514.000    550.844    -36.844    468.864    525.082    468.864    494.618    468.864
111.870    545.000    555.006    -10.006    468.780    526.338    468.780    497.439    468.780
111.970    539.000    559.818    -20.818    468.699    527.692    468.699    500.816    468.699
112.070    589.885    565.373     24.512    468.620    529.133    468.620    504.851    468.620
112.170    544.000    571.781    -27.781    468.545    530.663    468.545    509.653    468.545
112.270    536.787    579.170    -42.383    468.473    532.292    468.473    515.340    468.473
112.370    535.791    587.684    -51.892    468.405    534.040    468.405    522.037    468.405
112.470    544.035    597.475    -53.440    468.339    535.932    468.339    529.870    468.339
112.570    597.239    608.704    -11.465    468.277    538.006    468.277    538.963    468.277
112.670    568.948    621.529    -52.581    468.218    540.303    468.218    549.431    468.218
112.770    606.968    636.107    -29.139    468.163    542.879    468.163    561.377    468.163
112.870    631.000    652.588    -21.588    468.111    545.804    468.111    574.880    468.111
112.970    674.000    671.113      2.887    468.062    549.165    468.062    589.994    468.062
113.070    698.000    691.812      6.188    468.017    553.078    468.017    606.734    468.017
113.170    713.000    714.809     -1.809    467.976    557.695    467.976    625.071    467.976
113.270    723.451    740.224    -16.772    467.938    563.214    467.938    644.927    467.938
113.370    801.000    768.183     32.817    467.904    569.897    467.904    666.165    467.904
113.470    821.710    798.832     22.879    467.873    578.090    467.873    688.588    467.873
113.570    846.181    832.351     13.830    467.847    588.238    467.847    711.929    467.847
113.670    835.611    868.981    -33.371    467.824    600.917    467.824    735.853    467.824
113.770    845.621    909.043    -63.422    467.805    616.857    467.805    759.949    467.805
113.870    946.000    952.968     -6.968    467.789    636.974    467.789    783.734    467.789
113.970   1002.000   1001.329      0.671    467.778    662.395    467.778    806.655    467.778
114.070   1135.000   1054.876     80.124    467.771    694.486    467.771    828.092    467.771
114.170   1159.000   1114.570     44.430    467.767    734.872    467.767    847.383    467.767
114.270   1165.000   1181.622    -16.622    467.768    785.445    467.768    863.846    467.768
114.370   1288.000   1257.537     30.463    467.773    848.362    467.773    876.829    467.773
114.470   1351.000   1344.148      6.852    467.782    926.022    467.782    885.766    467.782
114.570   1434.572   1443.629     -9.057    467.795   1021.019    467.795    890.235    467.795
114.670   1511.000   1558.479    -47.479    467.813   1136.071    467.813    890.018    467.813
114.770   1707.000   1691.447     15.553    467.834   1273.917    467.834    885.127    467.834
114.870   1829.791   1845.404    -15.613    467.860   1437.185    467.860    875.802    467.860
114.970   2052.000   2023.143     28.857    467.891   1628.232    467.891    862.481    467.891
115.070   2325.000   2227.143     97.857    467.926   1848.960    467.926    845.741    467.926
115.170   2483.000   2459.310     23.690    467.965   2100.617    467.965    826.241    467.965
115.270   2740.000   2720.715     19.285    468.009   2383.597    468.009    804.660    468.009
115.370   3115.000   3011.356    103.644    468.057   2697.239    468.057    781.660    468.057
115.470   3303.926   3329.959    -26.033    468.110   3039.658    468.110    757.853    468.110
115.570   3688.000   3673.828     14.172    468.168   3407.612    468.168    733.786    468.168
115.670   3880.000   4038.750   -158.750    468.231   3796.415    468.231    709.935    468.231
115.770   4482.000   4418.969     63.031    468.298   4199.910    468.298    686.704    468.298
115.870   4694.000   4807.228   -113.228    468.370   4610.514    468.370    664.421    468.370
115.970   4994.000   5194.880   -200.880    468.447   5019.322    468.447    643.345    468.447
116.070   5477.000   5572.079    -95.079    468.529   5416.298    468.529    623.670    468.529
116.170   5730.000   5928.052   -198.052    468.615   5790.540    468.615    605.524    468.615
116.270   6246.000   6251.471     -5.471    468.707   6130.647    468.707    588.983    468.707
116.370   6445.000   6530.933    -85.933    468.804   6425.192    468.804    574.069    468.804
116.470   6706.000   6755.707    -49.707    468.906   6663.460    468.906    560.763    468.906
116.570   7047.234   6916.345    130.890    469.014   6836.058    469.014    549.010    469.014
116.670   7254.000   7005.618    248.382    469.126   6935.836    469.126    538.727    469.126
116.770   7061.543   7019.248     42.295    469.244   6958.613    469.244    529.811    469.244
116.870   6975.551   6956.392     19.160    469.367   6903.657    469.367    522.144    469.367
116.970   6842.000   6819.727     22.273    469.495   6773.766    469.495    515.603    469.495
117.070   6638.000   6615.116     22.884    469.629   6574.925    469.629    510.062    469.629
117.170   6397.490   6350.942     46.549    469.769   6315.636    469.769    505.397    469.769
117.270   5896.456   6037.295   -140.839    469.913   6006.105    469.913    501.490    469.913
117.370   5587.265   5685.171    -97.905    470.064   5657.436    470.064    498.233    470.064
117.470   5088.000   5305.780   -217.780    470.220   5280.939    470.220    495.526    470.220
117.570   4878.000   4910.005    -32.005    470.382   4887.586    470.382    493.282    470.382
117.670   4702.000   4507.993    194.007    470.550   4487.601    470.550    491.423    470.550
117.770   4164.918   4108.852     56.065    470.723   4090.162    470.723    489.884    470.723
117.870   3823.000   3720.448    102.552    470.902   3703.192    470.902    488.607    470.902
117.970   3471.079   3349.270    121.810    471.088   3333.229    471.088    487.547    471.088
118.070   3037.731   3000.380     37.351    471.279   2985.378    471.279    486.663    471.279
118.170   2709.325   2677.432     31.893    471.476   2663.325    471.476    485.926    471.476
118.270   2294.417   2382.744    -88.326    471.679   2369.416    471.679    485.308    471.679
118.370   2147.000   2117.429     29.571    471.889   2104.787    471.889    484.789    471.889
118.470   1857.982   1881.555    -23.573    472.105   1869.525    472.105    484.353    472.105
118.570   1649.400   1674.325    -24.925    472.327   1662.845    472.327    483.988    472.327
118.670   1487.111   1494.265     -7.154    472.555   1483.283    472.555    483.683    472.555
118.770   1297.000   1339.404    -42.404    472.789   1328.880    472.789    483.429    472.789
118.870   1225.123   1207.455     17.668    473.030   1197.353    473.030    483.222    473.030
118.970   1147.737   1095.961     51.777    473.278   1086.251    473.278    483.055    473.278
119.070    976.032   1002.432    -26.400    473.532    993.088    473.532    482.925    473.532
119.170    910.000    924.452    -14.452    473.793    915.450    473.793    482.830    473.793
119.270    902.266    859.750     42.516    474.060    851.068    474.060    482.765    474.060
119.370    833.000    806.260     26.740    474.334    797.878    474.334    482.731    474.334
119.470    769.000    762.144      6.856    474.615    754.043    474.615    482.725    474.615
119.570    698.090    725.805    -27.714    474.902    717.967    474.902    482.746    474.902
119.670    704.000    695.879      8.121    475.197    688.285    475.197    482.793    475.197
119.770    602.000    671.224    -69.224    475.498    663.857    475.498    482.866    475.498
119.870    629.000    650.895    -21.895    475.807    643.737    475.807    482.965    475.807
119.970    684.000    634.120     49.880    476.122    627.154    476.122    483.089    476.122
120.070    569.000    620.277    -51.277    476.445    613.485    476.445    483.238    476.445
120.170    612.600    608.869      3.731    476.775    602.232    476.775    483.413    476.775
120.270    626.092    599.501     26.591    477.112    593.000    477.112    483.615    477.112
120.370    562.609    591.860    -29.251    477.457    585.476    477.457    483.843    477.457
120.470    578.000    585.703     -7.703    477.808    579.416    477.808    484.098    477.808
120.570    625.000    580.838     44.162    478.168    574.627    478.168    484.383    478.168
120.670    545.000    577.117    -32.117    478.534    570.960    478.534    484.696    478.534
120.770    572.989    574.424     -1.435    478.909    568.297    478.909    485.040    478.909
120.870    577.000    572.669      4.331    479.291    566.548    479.291    485.416    479.291
120.970    593.000    571.778     21.222    479.680    565.640    479.680    485.824    479.680
121.070    546.000    571.694    -25.694    480.078    565.513    480.078    486.266    480.078
121.170    601.504    572.367     29.137    480.483    566.117    480.483    486.742    480.483
121.270    530.406    573.752    -43.346    480.896    567.405    480.896    487.253    480.896
121.370    550.912    575.803    -24.891    481.317    569.332    481.317    487.799    481.317
121.470    564.000    578.475    -14.475    481.746    571.854    481.746    488.380    481.746
121.570    525.000    581.716    -56.716    482.183    574.918    482.183    488.996    482.183
121.670    544.000    585.467    -41.467    482.628    578.467    482.628    489.645    482.628
121.770    639.690    589.663     50.027    483.081    582.436    483.081    490.328    483.081
121.870    558.000    594.227    -36.227    483.543    586.751    483.543    491.041    483.543
121.970    613.302    599.074     14.228    484.013    591.329    484.013    491.782    484.013
122.070    628.262    604.108     24.153    484.491    596.078    484.491    492.549    484.491
122.170    641.000    609.226     31.774    484.978    600.897    484.978    493.336    484.978
122.270    646.000    614.313     31.687    485.473    605.679    485.473    494.141    485.473
122.370    665.000    619.254     45.746    485.977    610.310    485.977    494.958    485.977
122.470    630.762    623.926      6.836    486.490    614.674    486.490    495.780    486.490
122.570    636.790    628.209      8.581    487.011    618.659    487.011    496.602    487.011
122.670    681.456    631.988     49.468    487.541    622.156    487.541    497.416    487.541
122.770    662.000    635.160     26.840    488.080    625.070    488.080    498.216    488.080
122.870    659.000    637.640     21.360    488.628    627.323    488.628    498.992    488.628
122.970    661.000    639.367     21.633    489.185    628.861    489.185    499.739    489.185
123.070    688.000    640.305     47.695    489.750    629.658    489.750    500.447    489.750
123.170    671.000    640.450     30.550    490.325    629.715    490.325    501.110    490.325
123.270    640.000    639.825      0.175    490.910    629.061    490.910    501.723    490.910
123.370    619.254    638.480    -19.226    491.503    627.746    491.503    502.286    491.503
123.470    669.446    636.482     32.964    492.106    625.838    492.106    502.795    492.106
123.570    647.000    633.909     13.091    492.718    623.418    492.718    503.253    492.718
123.670    643.176    630.852     12.325    493.340    620.570    493.340    503.663    493.340
123.770    573.000    627.403    -54.403    493.971    617.383    493.971    504.030    493.971
123.870    622.000    623.654     -1.654    494.612    613.942    494.612    504.360    494.612
123.970    599.000    619.694    -20.694    495.262    610.329    495.262    504.660    495.262
124.070    623.000    615.605      7.395    495.922    606.618    495.922    504.940    495.922
124.170    596.311    611.460    -15.148    496.593    602.874    496.593    505.205    496.593
124.270    597.623    607.321     -9.698    497.273    599.152    497.273    505.465    497.273
124.370    612.000    603.238      8.762    497.962    595.496    497.962    505.724    497.962
124.470    553.082    599.250    -46.167    498.662    591.939    498.662    505.991    498.662
124.570    635.000    595.381     39.619    499.373    588.499    499.373    506.270    499.373
124.670    566.000    591.652    -25.652    500.093    585.191    500.093    506.566    500.093
124.770    618.000    588.070     29.930    500.823    582.019    500.823    506.884    500.823
124.870    588.147    584.634      3.513    501.564    578.979    501.564    507.227    501.564
124.970    586.000    581.340      4.660    502.316    576.064    502.316    507.598    502.316
