neutron_powder_diffraction_0106
R_wp: 3.917
Temperature (K): 918.488
Counts: 83193.00
Wavelength (Ã…): 2.52098
COMMENTS
Test file for demonstrating the .xyy file format in Reel1.0
END OF HEADER
   tth       Y_obs     Y_calc      Y_res    Background    Phase_1_Nuc    Phase_1_Mag    Phase_2_Nuc    Phase_2_Mag
  9.970    605.000    549.123     55.877    547.865    548.870    547.865    548.118    547.865
 10.070    545.188    549.710     -4.522    548.364    549.455    548.364    548.618    548.364
 10.170    600.000    550.298     49.702    548.852    550.042    548.852    549.107    548.852
 10.270    539.415    550.890    -11.475    549.330    550.633    549.330    549.586    549.330
 10.370    557.000    551.490      5.510    549.797    551.232    549.797    550.054    549.797
 10.470    521.409    552.101    -30.692    550.254    551.842    550.254    550.512    550.254
 10.570    587.000    552.729     34.271    550.700    552.469    550.700    550.959    550.700
 10.670    564.000    553.381     10.619    551.136    553.120    551.136    551.397    551.136
 10.770    553.216    554.066     -0.851    551.562    553.804    551.562    551.823    551.562
 10.870    542.000    554.797    -12.797    551.978    554.533    551.978    552.240    551.978
 10.970    578.669    555.590     23.080    552.383    555.325    552.383    552.647    552.383
 11.070    621.000    556.469     64.531    552.779    556.203    552.779    553.044    552.779
 11.170    595.000    557.471     37.529    553.165    557.203    553.165    553.431    553.165
 11.270    576.000    558.653     17.347    553.541    558.383    553.541    553.808    553.541
 11.370    546.647    560.107    -13.460    553.907    559.836    553.907    554.175    553.907
 11.470    541.000    562.045    -21.045    554.264    561.771    554.264    554.533    554.264
 11.570    586.506    564.952     21.555    554.611    564.676    554.611    554.881    554.611
 11.670    617.000    569.880     47.120    554.948    569.601    554.948    555.220    554.948
 11.770    607.000    578.729     28.271    555.277    578.444    555.277    555.549    555.277
 11.870    600.719    594.005      6.714    555.596    593.710    555.596    555.870    555.596
 11.970    672.000    617.394     54.606    555.905    617.084    555.905    556.181    555.905
 12.070    689.000    646.866     42.134    556.206    646.539    556.206    556.482    556.206
 12.170    701.000    673.218     27.782    556.497    672.875    556.497    556.775    556.497
 12.270    645.000    681.489    -36.489    556.780    681.141    556.780    557.059    556.780
 12.370    634.000    665.238    -31.238    557.054    664.897    557.054    557.334    557.054
 12.470    600.738    636.276    -35.539    557.318    635.951    557.318    557.600    557.318
 12.570    584.000    608.910    -24.910    557.575    608.598    557.575    557.857    557.575
 12.670    591.717    589.262      2.455    557.822    588.961    557.822    558.106    557.822
 12.770    595.000    577.404     17.596    558.061    577.108    558.061    558.346    558.061
 12.870    587.000    571.002     15.998    558.291    570.709    558.291    558.578    558.291
 12.970    570.000    567.661      2.339    558.513    567.368    558.513    558.801    558.513
 13.070    572.000    565.818      6.182    558.726    565.525    558.726    559.016    558.726
 13.170    527.991    564.692    -36.701    558.932    564.398    558.932    559.222    558.932
 13.270    583.909    563.941     19.967    559.129    563.647    559.129    559.420    559.129
 13.370    587.928    563.418     24.510    559.317    563.123    559.317    559.611    559.317
 13.470    537.356    563.047    -25.691    559.498    562.751    559.498    559.793    559.498
 13.570    547.000    562.784    -15.784    559.671    562.486    559.671    559.967    559.671
 13.670    538.000    562.601    -24.601    559.836    562.302    559.836    560.133    559.836
 13.770    566.629    562.473      4.156    559.993    562.173    559.993    560.292    559.993
 13.870    570.000    562.387      7.613    560.142    562.085    560.142    560.443    560.142
 13.970    524.000    562.332    -38.332    560.284    562.029    560.284    560.586    560.284
 14.070    548.000    562.301    -14.301    560.418    561.997    560.418    560.721    560.418
 14.170    565.000    562.287      2.713    560.545    561.982    560.545    560.849    560.545
 14.270    533.000    562.287    -29.287    560.664    561.980    560.664    560.970    560.664
 14.370    580.298    562.296     18.002    560.775    561.987    560.775    561.083    560.775
 14.470    537.000    562.311    -25.311    560.880    562.001    560.880    561.189    560.880
 14.570    525.813    562.331    -36.517    560.977    562.019    560.977    561.288    560.977
 14.670    553.000    562.353     -9.353    561.067    562.040    561.067    561.379    561.067
 14.770    555.000    562.378     -7.378    561.149    562.064    561.149    561.464    561.149
 14.870    552.000    562.402    -10.402    561.225    562.086    561.225    561.541    561.225
 14.970    550.778    562.424    -11.646    561.294    562.106    561.294    561.612    561.294
 15.070    535.000    562.445    -27.445    561.356    562.126    561.356    561.675    561.356
 15.170    559.000    562.464     -3.464    561.411    562.142    561.411    561.732    561.411
 15.270    574.000    562.479     11.521    561.459    562.157    561.459    561.782    561.459
 15.370    579.000    562.492     16.508    561.501    562.167    561.501    561.825    561.501
 15.470    534.000    562.501    -28.501    561.536    562.175    561.536    561.862    561.536
 15.570    575.715    562.506     13.209    561.564    562.178    561.564    561.892    561.564
 15.670    524.000    562.508    -38.508    561.586    562.178    561.586    561.916    561.586
 15.770    546.000    562.504    -16.504    561.602    562.173    561.602    561.933    561.602
 15.870    532.000    562.497    -30.497    561.611    562.163    561.611    561.944    561.611
 15.970    574.000    562.485     11.515    561.614    562.150    561.614    561.949    561.614
 16.070    570.000    562.469      7.531    561.611    562.132    561.611    561.948    561.611
 16.170    559.000    562.461     -3.461    561.601    562.122    561.601    561.940    561.601
 16.270    533.000    562.449    -29.449    561.586    562.108    561.586    561.927    561.586
 16.370    580.000    562.420     17.580    561.564    562.077    561.564    561.907    561.564
 16.470    538.925    562.387    -23.462    561.537    562.042    561.537    561.882    561.537
 16.570    569.000    562.381      6.619    561.503    562.033    561.503    561.850    561.503
 16.670    541.000    562.416    -21.416    561.464    562.067    561.464    561.813    561.464
 16.770    570.000    562.374      7.626    561.419    562.022    561.419    561.770    561.419
 16.870    549.000    562.320    -13.320    561.369    561.966    561.369    561.722    561.369
 16.970    564.680    562.264      2.416    561.312    561.908    561.312    561.668    561.312
 17.070    579.000    562.200     16.800    561.250    561.842    561.250    561.608    561.250
 17.170    561.000    562.130     -1.130    561.183    561.770    561.183    561.543    561.183
 17.270    556.000    562.056     -6.056    561.110    561.694    561.110    561.473    561.110
 17.370    536.000    561.977    -25.977    561.032    561.613    561.032    561.397    561.032
 17.470    496.000    561.894    -65.894    560.949    561.527    560.949    561.316    560.949
 17.570    523.010    561.805    -38.795    560.860    561.436    560.860    561.229    560.860
 17.670    528.758    561.712    -32.954    560.766    561.340    560.766    561.138    560.766
 17.770    553.000    561.614     -8.614    560.667    561.240    560.667    561.041    560.667
 17.870    587.000    561.512     25.488    560.563    561.136    560.563    560.939    560.563
 17.970    598.204    561.405     36.799    560.454    561.026    560.454    560.833    560.454
 18.070    570.722    561.294      9.428    560.340    560.912    560.340    560.721    560.340
 18.170    584.000    561.178     22.822    560.221    560.794    560.221    560.605    560.221
 18.270    590.000    561.058     28.942    560.097    560.671    560.097    560.484    560.097
 18.370    546.000    560.934    -14.934    559.968    560.544    559.968    560.358    559.968
 18.470    573.000    560.806     12.194    559.835    560.413    559.835    560.227    559.835
 18.570    520.235    560.679    -40.444    559.697    560.284    559.697    560.092    559.697
 18.670    519.051    560.543    -41.491    559.555    560.145    559.555    559.953    559.555
 18.770    600.523    560.402     40.121    559.407    560.001    559.407    559.808    559.407
 18.870    505.000    560.256    -55.256    559.256    559.853    559.256    559.660    559.256
 18.970    575.978    560.108     15.871    559.100    559.701    559.100    559.507    559.100
 19.070    519.000    559.957    -40.957    558.940    559.547    558.940    559.350    558.940
 19.170    540.000    559.802    -19.802    558.775    559.389    558.775    559.188    558.775
 19.270    542.498    559.642    -17.144    558.606    559.225    558.606    559.022    558.606
 19.370    567.598    559.477      8.121    558.433    559.058    558.433    558.853    558.433
 19.470    524.000    559.309    -35.309    558.256    558.887    558.256    558.679    558.256
 19.570    537.000    559.143    -22.143    558.074    558.717    558.074    558.501    558.074
 19.670    599.381    559.019     40.362    557.889    558.589    557.889    558.319    557.889
 19.770    527.000    558.859    -31.859    557.700    558.426    557.700    558.133    557.700
 19.870    534.000    558.679    -24.679    557.506    558.242    557.506    557.943    557.506
 19.970    527.000    558.494    -31.494    557.309    558.054    557.309    557.750    557.309
 20.070    569.000    558.306     10.694    557.108    557.862    557.108    557.553    557.108
 20.170    579.000    558.116     20.884    556.904    557.668    556.904    557.352    556.904
 20.270    506.000    557.922    -51.922    556.695    557.470    556.695    557.147    556.695
 20.370    516.000    557.727    -41.727    556.483    557.270    556.483    556.939    556.483
 20.470    548.000    557.528     -9.528    556.268    557.068    556.268    556.728    556.268
 20.570    551.000    557.326     -6.326    556.048    556.862    556.048    556.513    556.048
 20.670    534.000    557.121    -23.121    555.826    556.653    555.826    556.295    555.826
 20.770    543.000    556.916    -13.916    555.600    556.442    555.600    556.073    555.600
 20.870    595.453    556.717     38.737    555.370    556.239    555.370    555.848    555.370
 20.970    589.000    556.507     32.493    555.137    556.025    555.137    555.620    555.137
 21.070    522.479    556.295    -33.816    554.901    555.808    554.901    555.388    554.901
 21.170    553.000    556.097     -3.097    554.662    555.605    554.662    555.154    554.662
 21.270    584.946    555.899     29.047    554.419    555.402    554.419    554.916    554.419
 21.370    564.000    555.715      8.285    554.173    555.212    554.173    554.676    554.173
 21.470    546.000    555.512     -9.512    553.924    555.004    553.924    554.432    553.924
 21.570    537.000    555.292    -18.292    553.673    554.779    553.673    554.186    553.673
 21.670    575.000    555.071     19.929    553.418    554.552    553.418    553.937    553.418
 21.770    553.000    554.849     -1.849    553.160    554.325    553.160    553.685    553.160
 21.870    537.037    554.628    -17.591    552.899    554.097    552.899    553.430    552.899
 21.970    528.000    554.406    -26.406    552.636    553.869    552.636    553.173    552.636
 22.070    528.000    554.185    -26.185    552.370    553.642    552.370    552.913    552.370
 22.170    526.000    553.965    -27.965    552.100    553.415    552.100    552.650    552.100
 22.270    509.000    553.747    -44.747    551.829    553.190    551.829    552.385    551.829
 22.370    518.496    553.533    -35.037    551.554    552.969    551.554    552.118    551.554
 22.470    533.000    553.337    -20.337    551.277    552.767    551.277    551.848    551.277
 22.570    544.000    553.140     -9.140    550.998    552.562    550.998    551.576    550.998
 22.670    557.000    552.941      4.059    550.716    552.355    550.716    551.301    550.716
 22.770    518.674    552.748    -34.075    550.431    552.155    550.431    551.025    550.431
 22.870    571.000    552.602     18.398    550.144    552.001    550.144    550.746    550.144
 22.970    572.000    552.479     19.521    549.855    551.870    549.855    550.465    549.855
 23.070    549.000    552.334     -3.334    549.563    551.715    549.563    550.182    549.563
 23.170    554.000    552.192      1.808    549.269    551.564    549.269    549.897    549.269
 23.270    531.000    552.076    -21.076    548.973    551.439    548.973    549.611    548.973
 23.370    538.729    552.017    -13.288    548.674    551.370    548.674    549.322    548.674
 23.470    573.000    551.967     21.033    548.374    551.310    548.374    549.032    548.374
 23.570    594.000    551.970     42.030    548.071    551.303    548.071    548.740    548.071
 23.670    558.000    552.041      5.959    547.766    551.363    547.766    548.446    547.766
 23.770    587.000    552.189     34.811    547.460    551.500    547.460    548.151    547.460
 23.870    564.000    552.461     11.539    547.151    551.760    547.151    547.854    547.151
 23.970    600.000    552.921     47.079    546.840    552.208    546.840    547.556    546.840
 24.070    558.223    553.711      4.512    546.528    552.986    546.528    547.257    546.528
 24.170    578.665    555.150     23.516    546.213    554.412    546.213    546.956    546.213
 24.270    528.854    557.914    -29.060    545.897    557.164    545.897    546.654    545.897
 24.370    577.000    563.226     13.774    545.579    562.465    545.579    546.351    545.579
 24.470    543.634    572.691    -29.056    545.259    571.921    545.259    546.047    545.259
 24.570    598.000    587.442     10.558    544.938    586.667    544.938    545.742    544.938
 24.670    618.000    606.410     11.590    544.615    605.631    544.615    545.436    544.615
 24.770    605.000    624.102    -19.102    544.290    623.318    544.290    545.129    544.290
 24.870    623.000    630.696     -7.696    543.964    629.898    543.964    544.822    543.964
 24.970    609.376    620.838    -11.462    543.636    620.014    543.636    544.515    543.636
 25.070    601.155    601.559     -0.404    543.307    600.699    543.307    544.207    543.307
 25.170    547.617    582.509    -34.893    542.976    581.614    542.976    543.898    542.976
 25.270    538.915    568.236    -29.321    542.644    567.307    542.644    543.590    542.644
 25.370    569.000    559.187      9.813    542.311    558.227    542.311    543.281    542.311
 25.470    573.604    554.001     19.604    541.976    553.010    541.976    542.973    541.976
 25.570    548.702    551.086     -2.384    541.640    550.066    541.640    542.665    541.640
 25.670    561.000    549.328     11.672    541.303    548.277    541.303    542.357    541.303
 25.770    562.974    548.135     14.839    540.964    547.052    540.964    542.050    540.964
 25.870    557.000    547.241      9.759    540.624    546.124    540.624    541.744    540.624
 25.970    584.895    546.531     38.364    540.284    545.377    540.284    541.439    540.284
 26.070    559.498    545.951     13.547    539.942    544.758    539.942    541.136    539.942
 26.170    569.000    545.468     23.532    539.599    544.235    539.599    540.834    539.599
 26.270    549.000    545.066      3.934    539.254    543.789    539.254    540.533    539.254
 26.370    502.277    544.733    -42.456    538.909    543.408    538.909    540.236    538.909
 26.470    586.007    544.462     41.546    538.563    543.086    538.563    539.940    538.563
 26.570    554.000    544.250      9.750    538.216    542.820    538.216    539.648    538.216
 26.670    578.949    544.100     34.849    537.869    542.610    537.869    539.359    537.869
 26.770    582.000    544.015     37.985    537.520    542.462    537.520    539.074    537.520
 26.870    571.000    544.006     26.994    537.170    542.383    537.170    538.793    537.170
 26.970    586.000    544.082     41.918    536.820    542.385    536.820    538.518    536.820
 27.070    536.929    544.264     -7.335    536.469    542.486    536.469    538.248    536.469
 27.170    585.000    544.581     40.419    536.117    542.714    536.117    537.984    536.117
 27.270    533.951    545.074    -11.123    535.765    543.111    535.765    537.728    535.765
 27.370    556.000    545.808     10.192    535.412    543.740    535.412    537.479    535.412
 27.470    571.000    546.900     24.100    535.058    544.718    535.058    537.240    535.058
 27.570    560.187    548.649     11.538    534.704    546.342    534.704    537.010    534.704
 27.670    591.551    552.096     39.455    534.349    549.651    534.349    536.792    534.349
 27.770    578.000    560.724     17.276    533.994    558.127    533.994    536.586    533.994
 27.870    592.000    583.499      8.501    533.638    580.729    533.638    536.393    533.638
 27.970    673.000    635.464     37.536    533.282    632.498    533.282    536.216    533.282
 28.070    714.028    727.275    -13.247    532.925    724.086    532.925    536.054    532.925
 28.170    839.000    842.536     -3.536    532.568    839.109    532.568    535.910    532.568
 28.270    913.569    925.934    -12.365    532.211    922.273    532.211    535.785    532.211
 28.370    861.000    921.360    -60.360    531.853    917.472    531.853    535.679    531.853
 28.470    826.000    839.052    -13.052    531.495    834.923    531.495    535.594    531.495
 28.570    778.000    746.619     31.381    531.137    742.214    531.137    535.528    531.137
 28.670    736.217    701.903     34.314    530.778    697.187    530.778    535.481    530.778
 28.770    701.415    718.953    -17.539    530.420    713.903    530.420    535.452    530.420
 28.870    776.883    772.863      4.020    530.061    767.468    530.061    535.436    530.061
 28.970    866.875    815.858     51.017    529.702    810.120    529.702    535.428    529.702
 29.070    850.911    806.846     44.066    529.343    800.771    529.343    535.420    529.343
 29.170    708.209    747.779    -39.570    528.984    741.373    528.984    535.403    528.984
 29.270    708.000    673.796     34.204    528.624    667.072    528.624    535.363    528.624
 29.370    624.000    614.416      9.584    528.265    607.404    528.265    535.288    528.265
 29.470    613.000    578.241     34.759    527.906    570.991    527.906    535.162    527.906
 29.570    581.000    560.131     20.869    527.547    552.707    527.547    534.973    527.547
 29.670    591.000    551.907     39.093    527.187    544.386    527.187    534.711    527.187
 29.770    576.985    547.945     29.040    526.828    540.405    526.828    534.368    526.828
 29.870    561.000    545.618     15.382    526.469    538.143    526.469    533.945    526.469
 29.970    565.060    543.982     21.078    526.111    536.647    526.111    533.446    526.111
 30.070    560.000    542.743     17.257    525.752    535.616    525.752    532.879    525.752
 30.170    594.000    541.839     52.161    525.393    534.974    525.393    532.258    525.393
 30.270    558.000    541.360     16.640    525.035    534.797    525.035    531.597    525.035
 30.370    617.000    541.657     75.343    524.677    535.422    524.677    530.909    524.677
 30.470    574.000    543.567     30.433    524.319    537.673    524.319    530.209    524.319
 30.570    607.000    548.562     58.438    523.962    543.010    523.962    529.505    523.962
 30.670    572.000    558.322     13.678    523.605    553.102    523.605    528.808    523.605
 30.770    604.000    573.301     30.699    523.248    568.399    523.248    528.123    523.248
 30.870    589.000    590.624     -1.624    522.892    586.022    522.892    527.455    522.892
 30.970    595.000    602.978     -7.978    522.536    598.664    522.536    526.806    522.536
 31.070    638.000    602.533     35.467    522.180    598.494    522.180    526.177    522.180
 31.170    543.960    589.110    -45.151    521.825    585.334    521.825    525.570    521.825
 31.270    595.000    570.433     24.567    521.471    566.901    521.471    524.983    521.471
 31.370    545.000    553.937     -8.937    521.117    550.626    521.117    524.416    521.117
 31.470    511.337    542.623    -31.286    520.763    539.512    520.763    523.868    520.763
 31.570    497.181    536.095    -38.914    520.410    533.164    520.410    523.337    520.410
 31.670    504.000    532.676    -28.676    520.058    529.909    520.058    522.823    520.058
 31.770    553.000    530.867     22.133    519.706    528.248    519.706    522.324    519.706
 31.870    556.000    529.796     26.204    519.355    527.312    519.355    521.838    519.355
 31.970    513.000    529.077    -16.077    519.004    526.714    519.004    521.365    519.004
 32.070    548.617    528.563     20.053    518.654    526.312    518.654    520.904    518.654
 32.170    539.000    528.205     10.795    518.305    526.055    518.305    520.454    518.305
 32.270    544.811    527.984     16.827    517.956    525.926    517.956    520.013    517.956
 32.370    501.784    527.896    -26.113    517.608    525.923    517.608    519.581    517.608
 32.470    552.863    527.950     24.914    517.261    526.053    517.261    519.157    517.261
 32.570    535.830    528.160      7.671    516.915    526.333    516.915    518.741    516.915
 32.670    492.000    528.552    -36.552    516.570    526.790    516.570    518.332    516.570
 32.770    543.000    529.167     13.833    516.225    527.463    516.225    517.928    516.225
 32.870    581.000    530.062     50.938    515.881    528.412    515.881    517.531    515.881
 32.970    504.000    531.322    -27.322    515.538    529.720    515.538    517.138    515.538
 33.070    549.261    533.079     16.182    515.196    531.522    515.196    516.751    515.196
 33.170    567.000    535.573     31.427    514.855    534.058    514.855    516.369    514.855
 33.270    525.942    539.324    -13.381    514.514    537.846    514.514    515.990    514.514
 33.370    559.000    545.583     13.417    514.175    544.140    514.175    515.616    514.175
 33.470    579.435    557.248     22.187    513.837    555.834    513.837    515.245    513.837
 33.570    621.000    580.048     40.952    513.499    578.659    513.499    514.878    513.499
 33.670    582.000    622.809    -40.809    513.163    621.440    513.163    514.514    513.163
 33.770    712.000    694.541     17.459    512.827    693.187    512.827    514.153    512.827
 33.870    836.000    796.898     39.102    512.493    795.556    512.493    513.796    512.493
 33.970    909.000    913.646     -4.646    512.160    912.320    512.160    513.441    512.160
 34.070   1045.542   1004.186     41.356    511.827   1002.887    511.827    513.089    511.827
 34.170   1007.000   1019.970    -12.970    511.496   1018.708    511.496    512.740    511.496
 34.270    940.307    949.804     -9.497    511.166    948.575    511.166    512.393    511.166
 34.370    866.835    834.830     32.005    510.837    833.624    510.837    512.049    510.837
 34.470    703.000    723.322    -20.322    510.509    722.132    510.509    511.707    510.509
 34.570    631.000    639.818     -8.818    510.183    638.638    510.183    511.367    510.183
 34.670    624.000    587.420     36.580    509.857    586.250    509.857    511.030    509.857
 34.770    556.000    558.402     -2.402    509.533    557.241    509.533    510.695    509.533
 34.870    502.000    543.201    -41.201    509.210    542.049    509.210    510.362    509.210
 34.970    553.000    534.912     18.088    508.888    533.769    508.888    510.031    508.888
 35.070    504.000    529.812    -25.812    508.567    528.677    508.567    509.702    508.567
 35.170    529.000    526.243      2.757    508.248    525.115    508.248    509.376    508.248
 35.270    545.504    523.521     21.983    507.930    522.399    507.930    509.051    507.930
 35.370    550.000    521.347     28.653    507.613    520.231    507.613    508.728    507.613
 35.470    557.993    519.561     38.432    507.297    518.451    507.297    508.408    507.297
 35.570    480.445    518.065    -37.620    506.983    516.959    506.983    508.089    506.983
 35.670    500.095    516.791    -16.696    506.670    515.689    506.670    507.772    506.670
 35.770    515.000    515.689     -0.689    506.359    514.590    506.359    507.458    506.359
 35.870    496.000    514.724    -18.724    506.048    513.628    506.048    507.145    506.048
 35.970    481.000    513.869    -32.869    505.739    512.775    505.739    506.834    505.739
 36.070    501.000    513.106    -12.106    505.432    512.013    505.432    506.525    505.432
 36.170    516.888    512.418      4.470    505.126    511.327    505.126    506.217    505.126
 36.270    508.000    511.796     -3.796    504.821    510.705    504.821    505.912    504.821
 36.370    485.000    511.230    -26.230    504.518    510.140    504.518    505.609    504.518
 36.470    508.000    510.716     -2.716    504.217    509.626    504.217    505.307    504.217
 36.570    540.037    510.251     29.786    503.916    509.160    503.916    505.008    503.916
 36.670    520.000    509.834     10.166    503.617    508.742    503.617    504.710    503.617
 36.770    546.116    509.470     36.646    503.320    508.376    503.320    504.414    503.320
 36.870    510.000    509.172      0.828    503.024    508.077    503.024    504.120    503.024
 36.970    504.000    508.975     -4.975    502.730    507.877    502.730    503.828    502.730
 37.070    507.000    508.950     -1.950    502.437    507.851    502.437    503.538    502.437
 37.170    513.000    509.231      3.769    502.146    508.129    502.146    503.249    502.146
 37.270    491.000    510.012    -19.012    501.856    508.906    501.856    502.963    501.856
 37.370    481.000    511.501    -30.501    501.568    510.392    501.568    502.678    501.568
 37.470    508.000    513.797     -5.797    501.281    512.684    501.281    502.396    501.281
 37.570    503.000    516.707    -13.707    500.996    515.592    500.996    502.115    500.996
 37.670    489.000    519.535    -30.535    500.713    518.415    500.713    501.836    500.713
 37.770    564.007    521.078     42.929    500.431    519.956    500.431    501.559    500.431
 37.870    573.000    520.465     52.535    500.151    519.340    500.151    501.285    500.151
 37.970    491.632    518.085    -26.454    499.872    516.956    499.872    501.012    499.872
 38.070    538.817    514.973     23.844    499.595    513.839    499.595    500.741    499.595
 38.170    519.649    511.877      7.772    499.320    510.736    499.320    500.472    499.320
 38.270    511.000    509.174      1.826    499.046    508.024    499.046    500.205    499.046
 38.370    555.000    507.033     47.967    498.774    505.875    498.774    499.939    498.774
 38.470    472.000    505.462    -33.462    498.504    504.294    498.504    499.676    498.504
 38.570    492.000    504.351    -12.351    498.235    503.174    498.235    499.415    498.235
 38.670    494.000    503.564     -9.564    497.968    502.378    497.968    499.156    497.968
 38.770    478.566    502.985    -24.419    497.703    501.790    497.703    498.899    497.703
 38.870    511.000    502.529      8.471    497.439    501.325    497.439    498.644    497.439
 38.970    505.000    502.142      2.858    497.177    500.928    497.177    498.391    497.177
 39.070    535.000    501.802     33.198    496.917    500.580    496.917    498.141    496.917
 39.170    489.469    501.492    -12.023    496.659    500.260    496.659    497.892    496.659
 39.270    466.936    501.203    -34.267    496.402    499.961    496.402    497.645    496.402
 39.370    559.000    500.931     58.069    496.147    499.679    496.147    497.401    496.147
 39.470    509.000    500.674      8.326    495.894    499.410    495.894    497.158    495.894
 39.570    514.431    500.429     14.001    495.643    499.155    495.643    496.918    495.643
 39.670    510.838    500.197     10.641    495.393    498.911    495.393    496.680    495.393
 39.770    494.000    499.976     -5.976    495.145    498.678    495.145    496.444    495.145
 39.870    516.000    499.765     16.235    494.899    498.455    494.899    496.210    494.899
 39.970    487.000    499.566    -12.566    494.655    498.243    494.655    495.978    494.655
 40.070    480.000    499.377    -19.377    494.413    498.042    494.413    495.749    494.413
 40.170    479.000    499.200    -20.200    494.172    497.851    494.172    495.522    494.172
 40.270    502.000    499.035      2.965    493.933    497.672    493.933    495.297    493.933
 40.370    443.000    498.883    -55.883    493.696    497.506    493.696    495.074    493.696
 40.470    495.000    498.744     -3.744    493.461    497.353    493.461    494.854    493.461
 40.570    495.000    498.622     -3.622    493.228    497.215    493.228    494.635    493.228
 40.670    508.000    498.516      9.484    492.996    497.094    492.996    494.420    492.996
 40.770    538.391    498.431     39.960    492.766    496.992    492.766    494.206    492.766
 40.870    468.000    498.368    -30.368    492.539    496.913    492.539    493.995    492.539
 40.970    511.005    498.332     12.673    492.313    496.860    492.313    493.786    492.313
 41.070    465.000    498.329    -33.329    492.089    496.838    492.089    493.580    492.089
 41.170    515.000    498.364     16.636    491.866    496.855    491.866    493.376    491.866
 41.270    487.000    498.446    -11.446    491.646    496.919    491.646    493.175    491.646
 41.370    490.000    498.588     -8.588    491.428    497.041    491.428    492.976    491.428
 41.470    450.000    498.806    -48.806    491.211    497.239    491.211    492.780    491.211
 41.570    441.000    499.124    -58.124    490.996    497.537    490.996    492.586    490.996
 41.670    478.000    499.584    -21.584    490.784    497.976    490.784    492.394    490.784
 41.770    491.000    500.268     -9.268    490.573    498.638    490.573    492.206    490.573
 41.870    507.000    501.350      5.650    490.364    499.698    490.364    492.020    490.364
 41.970    495.000    503.201     -8.201    490.157    501.526    490.157    491.836    490.157
 42.070    494.000    506.531    -12.531    489.951    504.833    489.951    491.656    489.951
 42.170    523.379    512.494     10.885    489.748    510.773    489.748    491.478    489.748
 42.270    565.031    522.578     42.454    489.547    520.836    489.547    491.302    489.547
 42.370    506.000    538.060    -32.060    489.347    536.298    489.347    491.130    489.347
 42.470    513.000    559.017    -46.017    489.150    557.238    489.150    490.960    489.150
 42.570    545.000    583.098    -38.098    488.954    581.303    488.954    490.794    488.954
 42.670    607.188    604.470      2.718    488.760    602.658    488.760    490.630    488.760
 42.770    628.920    614.624     14.296    488.569    612.788    488.569    490.470    488.569
 42.870    565.000    608.225    -43.225    488.379    606.356    488.379    490.312    488.379
 42.970    549.000    588.770    -39.770    488.191    586.859    488.191    490.158    488.191
 43.070    558.710    564.562     -5.852    488.005    562.603    488.005    490.006    488.005
 43.170    521.000    542.263    -21.263    487.821    540.256    487.821    489.858    487.821
 43.270    534.000    525.062      8.938    487.639    523.007    487.639    489.714    487.639
 43.370    484.068    513.413    -29.345    487.459    511.312    487.459    489.573    487.459
 43.470    521.051    506.259     14.792    487.280    504.114    487.280    489.435    487.280
 43.570    507.000    502.111      4.889    487.104    499.921    487.104    489.301    487.104
 43.670    466.000    499.710    -33.710    486.930    497.474    486.930    489.170    486.930
 43.770    463.976    498.236    -34.260    486.757    495.953    486.757    489.043    486.757
 43.870    473.000    497.241    -24.241    486.587    494.911    486.587    488.920    486.587
 43.970    537.000    496.511     40.489    486.418    494.130    486.418    488.802    486.418
 44.070    514.000    495.943     18.057    486.252    493.511    486.252    488.687    486.252
 44.170    481.000    495.490    -14.490    486.087    493.002    486.087    488.576    486.087
 44.270    467.249    495.122    -27.872    485.925    492.578    485.925    488.470    485.925
 44.370    450.000    494.821    -44.821    485.764    492.218    485.764    488.369    485.764
 44.470    470.669    494.576    -23.908    485.605    491.911    485.605    488.272    485.605
 44.570    543.000    494.378     48.622    485.448    491.648    485.448    488.180    485.448
 44.670    535.490    494.219     41.271    485.294    491.421    485.294    488.093    485.294
 44.770    514.000    494.095     19.905    485.141    491.225    485.141    488.012    485.141
 44.870    509.000    494.002     14.998    484.990    491.057    484.990    487.936    484.990
 44.970    501.000    493.938      7.062    484.841    490.914    484.841    487.866    484.841
 45.070    473.000    493.900    -20.900    484.694    490.793    484.694    487.802    484.694
 45.170    533.803    493.888     39.915    484.549    490.693    484.549    487.744    484.549
 45.270    534.697    493.901     40.796    484.405    490.614    484.405    487.693    484.405
 45.370    515.411    493.938     21.472    484.264    490.554    484.264    487.650    484.264
 45.470    463.066    494.001    -30.936    484.125    490.513    484.125    487.614    484.125
 45.570    508.000    494.089     13.911    483.988    490.492    483.988    487.586    483.988
 45.670    474.930    494.205    -19.275    483.852    490.491    483.852    487.567    483.852
 45.770    489.000    494.349     -5.349    483.719    490.512    483.719    487.556    483.719
 45.870    524.802    494.523     30.279    483.587    490.555    483.587    487.556    483.587
 45.970    476.574    494.730    -18.156    483.458    490.623    483.458    487.566    483.458
 46.070    515.000    494.975     20.025    483.330    490.718    483.330    487.587    483.330
 46.170    519.000    495.259     23.741    483.204    490.844    483.204    487.621    483.204
 46.270    524.000    495.590     28.410    483.081    491.004    483.081    487.667    483.081
 46.370    487.000    495.974     -8.974    482.959    491.205    482.959    487.728    482.959
 46.470    482.000    496.418    -14.418    482.839    491.453    482.839    487.805    482.839
 46.570    472.000    496.935    -24.935    482.721    491.758    482.721    487.898    482.721
 46.670    492.821    497.541     -4.719    482.605    492.135    482.605    488.010    482.605
 46.770    480.000    498.259    -18.259    482.491    492.607    482.491    488.142    482.491
 46.870    500.000    499.135      0.865    482.378    493.217    482.378    488.296    482.378
 46.970    504.158    500.258      3.900    482.268    494.050    482.268    488.475    482.268
 47.070    514.263    501.801     12.462    482.160    495.279    482.160    488.680    482.160
 47.170    496.147    504.088     -7.940    482.053    497.223    482.053    488.914    482.053
 47.270    479.000    507.644    -28.644    481.948    500.406    481.948    489.181    481.948
 47.370    513.362    513.188      0.173    481.846    505.542    481.846    489.483    481.846
 47.470    505.000    521.474    -16.474    481.745    513.380    481.745    489.824    481.745
 47.570    551.000    532.939     18.061    481.646    524.355    481.646    490.209    481.646
 47.670    553.000    547.215      5.785    481.549    538.093    481.549    490.639    481.549
 47.770    586.000    562.629     23.371    481.454    552.920    481.454    491.121    481.454
 47.870    568.361    575.841     -7.480    481.360    565.493    481.360    491.659    481.360
 47.970    603.599    582.512     21.087    481.269    571.472    481.269    492.257    481.269
 48.070    547.591    580.180    -32.589    481.179    568.392    481.179    492.919    481.179
 48.170    526.000    570.675    -44.675    481.092    558.077    481.092    493.651    481.092
 48.270    591.268    558.244     33.024    481.006    544.767    481.006    494.455    481.006
 48.370    516.000    546.527    -30.527    480.922    532.096    480.922    495.335    480.922
 48.470    529.000    537.550     -8.550    480.840    522.087    480.840    496.291    480.840
 48.570    541.000    531.941      9.059    480.759    515.372    480.759    497.323    480.759
 48.670    501.909    529.435    -27.526    480.681    511.688    480.681    498.425    480.681
 48.770    558.732    529.371     29.361    480.604    510.386    480.604    499.589    480.604
 48.870    499.000    531.089    -32.089    480.530    510.819    480.530    500.800    480.530
 48.970    544.000    534.130      9.870    480.457    512.552    480.457    502.036    480.457
 49.070    523.000    538.329    -15.329    480.385    515.450    480.385    503.267    480.385
 49.170    579.420    543.918     35.502    480.316    519.784    480.316    504.453    480.316
 49.270    568.000    551.888     16.112    480.249    526.591    480.249    505.548    480.249
 49.370    519.026    564.927    -45.901    480.183    538.612    480.183    506.498    480.183
 49.470    627.000    589.248     37.752    480.119    562.113    480.119    507.250    480.119
 49.570    665.000    637.086     27.914    480.057    609.371    480.057    507.757    480.057
 49.670    722.000    728.288     -6.288    479.997    700.268    479.997    507.983    479.997
 49.770    841.337    887.701    -46.364    479.938    859.668    479.938    507.910    479.938
 49.870   1129.000   1134.954     -5.954    479.881   1107.200    479.881    507.542    479.881
 49.970   1424.000   1467.236    -43.236    479.826   1440.038    479.826    506.906    479.826
 50.070   1838.000   1842.546     -4.546    479.773   1816.159    479.773    506.042    479.773
 50.170   2230.000   2175.274     54.726    479.721   2149.919    479.721    505.000    479.721
 50.270   2347.000   2357.788    -10.788    479.672   2333.633    479.672    503.835    479.672
 50.370   2385.335   2317.888     67.447    479.624   2295.023    479.624    502.598    479.624
 50.470   2047.000   2073.513    -26.513    479.577   2051.941    479.577    501.333    479.577
 50.570   1729.000   1717.116     11.884    479.533   1696.780    479.533    500.076    479.533
 50.670   1328.034   1353.124    -25.091    479.490   1333.949    479.490    498.854    479.490
 50.770   1070.022   1053.170     16.851    479.449   1035.082    479.449    497.686    479.449
 50.870    858.626    844.510     14.116    479.409    827.441    479.409    496.585    479.409
 50.970    761.000    719.710     41.290    479.371    703.597    479.371    495.559    479.371
 51.070    686.000    654.453     31.547    479.335    639.235    479.335    494.610    479.335
 51.170    619.000    622.732     -3.732    479.301    608.341    479.301    493.738    479.301
 51.270    636.000    605.060     30.940    479.268    591.426    479.268    492.943    479.268
 51.370    575.000    590.873    -15.873    479.237    577.925    479.237    492.220    479.237
 51.470    567.877    576.959     -9.081    479.208    564.629    479.208    491.567    479.208
 51.570    567.000    563.732      3.268    479.180    551.957    479.180    490.979    479.180
 51.670    583.341    552.296     31.045    479.154    541.017    479.154    490.451    479.154
 51.770    498.835    543.335    -44.500    479.129    532.499    479.129    489.980    479.129
 51.870    575.000    536.986     38.014    479.107    526.543    479.107    489.560    479.107
 51.970    538.000    532.992      5.008    479.085    522.897    479.085    489.188    479.085
 52.070    506.000    530.923    -24.923    479.066    521.135    479.066    488.861    479.066
 52.170    538.000    530.376      7.624    479.048    520.856    479.048    488.574    479.048
 52.270    633.000    531.106    101.894    479.031    521.818    479.031    488.325    479.031
 52.370    544.178    533.092     11.086    479.016    524.004    479.016    488.110    479.016
 52.470    525.000    536.642    -11.642    479.003    527.723    479.003    487.927    479.003
 52.570    563.000    542.563     20.437    478.991    533.785    478.991    487.774    478.991
 52.670    589.000    552.447     36.553    478.981    543.784    478.981    487.649    478.981
 52.770    528.382    569.005    -40.624    478.973    560.433    478.973    487.550    478.973
 52.870    639.640    596.239     43.400    478.966    587.735    478.966    487.475    478.966
 52.970    660.335    639.107     21.228    478.960    630.649    478.960    487.423    478.960
 53.070    683.594    702.324    -18.730    478.956    693.893    478.956    487.393    478.956
 53.170    821.000    788.222     32.778    478.953    779.799    478.953    487.384    478.953
 53.270    852.000    894.001    -42.001    478.952    885.571    478.952    487.396    478.952
 53.370   1048.000   1008.965     39.035    478.953   1000.513    478.953    487.427    478.953
 53.470   1120.000   1112.704      7.296    478.955   1104.215    478.955    487.478    478.955
 53.570   1181.000   1177.631      3.369    478.958   1169.089    478.958    487.547    478.958
 53.670   1213.249   1181.209     32.040    478.963   1172.596    478.963    487.635    478.963
 53.770   1123.076   1122.159      0.918    478.970   1113.448    478.970    487.742    478.970
 53.870   1025.272   1021.625      3.647    478.977   1012.794    478.977    487.868    478.977
 53.970    870.000    907.525    -37.525    478.987    898.549    478.987    488.013    478.987
 54.070    750.412    801.196    -50.784    478.997    792.057    478.997    488.177    478.997
 54.170    739.000    714.185     24.815    479.009    704.864    479.009    488.360    479.009
 54.270    678.000    649.905     28.095    479.023    640.385    479.023    488.564    479.023
 54.370    618.000    606.376     11.624    479.037    596.639    479.037    488.790    479.037
 54.470    581.000    578.995      2.005    479.054    569.023    479.054    489.037    479.054
 54.570    571.000    562.760      8.240    479.071    552.534    479.071    489.307    479.071
 54.670    567.551    553.556     13.995    479.090    543.053    479.090    489.601    479.090
 54.770    597.000    548.553     48.447    479.111    537.750    479.111    489.920    479.111
 54.870    547.817    546.057      1.760    479.132    534.929    479.132    490.267    479.132
 54.970    619.000    545.161     73.839    479.155    533.680    479.155    490.642    479.155
 55.070    561.294    545.427     15.867    479.179    533.564    479.179    491.048    479.179
 55.170    585.000    546.668     38.332    479.205    534.393    479.205    491.487    479.205
 55.270    561.594    548.836     12.758    479.232    536.113    479.232    491.961    479.232
 55.370    599.000    551.968     47.032    479.260    538.760    479.260    492.475    479.260
 55.470    587.218    556.189     31.029    479.290    542.456    479.290    493.029    479.290
 55.570    594.183    561.760     32.424    479.320    547.457    479.320    493.630    479.320
 55.670    612.130    569.205     42.925    479.352    554.284    479.352    494.279    479.352
 55.770    545.000    579.588    -34.588    479.386    563.997    479.386    494.983    479.386
 55.870    628.162    595.031     33.131    479.420    578.711    479.420    495.747    479.420
 55.970    610.000    619.513     -9.513    479.456    602.399    479.456    496.575    479.456
 56.070    690.426    659.852     30.574    479.493    641.873    479.493    497.475    479.493
 56.170    707.000    726.418    -19.418    479.531    707.495    479.531    498.454    479.531
 56.270    869.561    832.748     36.812    479.570    812.795    479.570    499.519    479.570
 56.370    941.000    993.062    -52.062    479.610    971.986    479.610    500.679    479.610
 56.470   1214.816   1217.197     -2.381    479.652   1194.898    479.652    501.943    479.652
 56.570   1438.000   1503.659    -65.659    479.695   1480.033    479.695    503.322    479.695
 56.670   1797.000   1832.692    -35.692    479.739   1807.629    479.739    504.827    479.739
 56.770   2195.998   2161.564     34.434    479.784   2134.947    479.784    506.468    479.784
 56.870   2334.637   2425.364    -90.727    479.830   2397.063    479.830    508.260    479.830
 56.970   2527.000   2552.592    -25.592    479.877   2522.459    479.877    510.215    479.877
 57.070   2437.000   2502.142    -65.142    479.925   2469.994    479.925    512.346    479.925
 57.170   2320.000   2292.936     27.064    479.975   2258.551    479.975    514.669    479.975
 57.270   1953.000   1988.742    -35.742    480.025   1951.876    480.025    517.196    480.025
 57.370   1698.000   1659.674     38.326    480.077   1620.079    480.077    519.943    480.077
 57.470   1379.000   1358.216     20.784    480.129   1315.647    480.129    522.920    480.129
 57.570   1086.593   1113.485    -26.892    480.183   1067.697    480.183    526.138    480.183
 57.670    947.000    934.102     12.898    480.237    884.854    480.237    529.605    480.237
 57.770    823.000    814.548      8.452    480.293    761.600    480.293    533.323    480.293
 57.870    748.000    742.511      5.489    480.350    685.630    480.350    537.286    480.350
 57.970    743.000    705.063     37.937    480.407    644.028    480.407    541.479    480.407
 58.070    651.622    692.341    -40.718    480.466    626.957    480.466    545.874    480.466
 58.170    659.276    698.689    -39.413    480.525    628.802    480.525    550.426    480.525
 58.270    692.000    721.978    -29.978    480.586    647.499    480.586    555.070    480.586
 58.370    724.249    761.988    -37.738    480.647    682.913    480.647    559.718    480.647
 58.470    825.400    818.536      6.864    480.709    734.977    480.709    564.258    480.709
 58.570    855.000    889.818    -34.818    480.773    802.021    480.773    568.554    480.773
 58.670    936.000    971.245    -35.245    480.837    879.615    480.837    572.452    480.837
 58.770   1052.165   1055.354     -3.189    480.902    960.456    480.902    575.789    480.902
 58.870   1150.000   1133.425     16.575    480.968   1035.983    480.968    578.410    480.968
 58.970   1192.000   1197.827     -5.827    481.034   1098.696    481.034    580.180    481.034
 59.070   1308.000   1242.455     65.545    481.102   1142.584    481.102    581.003    481.102
 59.170   1234.103   1262.083    -27.980    481.170   1162.461    481.170    580.835    481.170
 59.270   1207.125   1254.697    -47.572    481.239   1156.296    481.239    579.693    481.239
 59.370   1237.953   1225.507     12.446    481.309   1129.220    481.309    577.647    481.309
 59.470   1251.000   1186.389     64.611    481.380   1092.991    481.380    574.815    481.380
 59.570   1160.220   1150.716      9.503    481.452   1060.834    481.452    571.344    481.452
 59.670   1242.000   1129.700    112.300    481.524   1043.803    481.524    567.397    481.524
 59.770   1175.000   1132.604     42.396    481.597   1051.005    481.597    563.131    481.597
 59.870   1210.000   1166.681     43.319    481.671   1089.546    481.671    558.694    481.671
 59.970   1286.000   1233.483     52.517    481.746   1160.861    481.746    554.210    481.746
 60.070   1312.000   1324.719    -12.719    481.821   1256.562    481.821    549.778    481.821
 60.170   1383.000   1421.167    -38.167    481.897   1357.361    481.897    545.476    481.897
 60.270   1470.000   1495.182    -25.182    481.974   1435.565    481.974    541.357    481.974
 60.370   1454.488   1518.382    -63.895    482.051   1462.763    482.051    537.458    482.051
 60.470   1475.000   1475.158     -0.158    482.129   1423.318    482.129    533.800    482.129
 60.570   1321.000   1372.047    -51.047    482.208   1323.744    482.208    530.392    482.208
 60.670   1193.000   1232.149    -39.149    482.287   1187.129    482.287    527.237    482.287
 60.770   1053.628   1082.092    -28.464    482.367   1040.096    482.367    524.329    482.367
 60.870    967.000    943.276     23.724    482.447    904.054    482.447    521.658    482.447
 60.970    802.000    828.907    -26.907    482.528    792.223    482.528    519.214    482.528
 61.070    731.000    744.333    -13.333    482.610    709.967    482.610    516.981    482.610
 61.170    679.579    689.181     -9.602    482.692    656.930    482.692    514.946    482.692
 61.270    625.000    660.422    -35.422    482.775    630.101    482.775    513.092    482.775
 61.370    638.000    655.138    -17.138    482.858    626.577    482.858    511.406    482.858
 61.470    644.712    672.186    -27.474    482.942    645.231    482.942    509.871    482.942
 61.570    741.000    712.409     28.591    483.027    686.920    483.027    508.473    483.027
 61.670    777.000    777.458     -0.458    483.111    753.309    483.111    507.199    483.111
 61.770    889.000    867.660     21.340    483.197    844.739    483.197    506.034    483.197
 61.870    934.501    979.590    -45.089    483.283    957.798    483.283    504.968    483.283
 61.970   1133.338   1104.065     29.273    483.369   1083.321    483.369    503.988    483.369
 62.070   1249.000   1225.213     23.787    483.456   1205.449    483.456    503.087    483.456
 62.170   1343.283   1321.445     21.838    483.543   1302.605    483.543    502.254    483.543
 62.270   1334.000   1370.312    -36.312    483.630   1352.352    483.630    501.484    483.630
 62.370   1352.882   1358.119     -5.237    483.718   1340.993    483.718    500.770    483.718
 62.470   1242.000   1287.970    -45.970    483.806   1271.629    483.806    500.109    483.806
 62.570   1185.410   1177.625      7.785    483.895   1162.016    483.895    499.495    483.895
 62.670    985.000   1049.872    -64.872    483.984   1034.939    483.984    498.926    483.984
 62.770    840.000    924.458    -84.458    484.074    910.152    484.074    498.399    484.074
 62.870    798.000    814.733    -16.733    484.163    801.007    484.163    497.911    484.163
 62.970    764.052    727.284     36.768    484.253    714.097    484.253    497.460    484.253
 63.070    660.953    663.074     -2.121    484.344    650.388    484.344    497.044    484.344
 63.170    623.000    619.338      3.662    484.434    607.120    484.434    496.661    484.434
 63.270    630.333    591.628     38.706    484.525    579.850    484.525    496.309    484.525
 63.370    589.596    575.470     14.126    484.617    564.103    484.617    495.985    484.617
 63.470    569.861    567.359      2.502    484.708    556.376    484.708    495.689    484.708
 63.570    603.000    565.159     37.841    484.800    554.536    484.800    495.418    484.800
 63.670    527.112    568.110    -40.998    484.892    557.823    484.892    495.171    484.892
 63.770    614.454    576.631     37.823    484.984    566.656    484.984    494.947    484.984
 63.870    637.816    592.026     45.790    485.076    582.340    485.076    494.743    485.076
 63.970    594.000    616.074    -22.074    485.169    606.656    485.169    494.559    485.169
 64.070    696.990    650.477     46.513    485.261    641.306    485.261    494.393    485.261
 64.170    729.000    696.152     32.848    485.354    687.209    485.354    494.244    485.354
 64.270    757.333    752.443      4.890    485.447    743.710    485.447    494.111    485.447
 64.370    863.037    816.377     46.660    485.540    807.840    485.540    493.994    485.540
 64.470    881.719    882.137     -0.418    485.633    873.784    485.633    493.891    485.633
 64.570    936.000    941.109     -5.109    485.726    932.934    485.726    493.801    485.726
 64.670   1017.000    983.393     33.607    485.820    975.393    485.820    493.723    485.820
 64.770    943.273   1001.180    -57.906    485.913    993.351    485.913    493.658    485.913
 64.870    986.076    992.091     -6.015    486.006    984.430    486.006    493.604    486.006
 64.970   1015.000    959.701     55.299    486.100    952.200    486.100    493.561    486.100
 65.070    908.867    911.466     -2.598    486.193    904.114    486.193    493.528    486.193
 65.170    832.000    856.020    -24.020    486.287    848.805    486.287    493.504    486.287
 65.270    842.000    800.796     41.204    486.381    793.705    486.381    493.490    486.381
 65.370    729.000    750.588    -21.588    486.474    743.606    486.474    493.484    486.474
 65.470    733.547    707.402     26.145    486.567    700.517    486.567    493.487    486.567
 65.570    652.472    671.357    -18.886    486.661    664.556    486.661    493.498    486.661
 65.670    681.241    641.841     39.400    486.754    635.112    486.754    493.517    486.754
 65.770    582.000    618.166    -36.166    486.848    611.499    486.848    493.544    486.848
 65.870    646.328    599.658     46.670    486.941    593.044    486.941    493.578    486.941
 65.970    558.000    585.609    -27.609    487.034    579.041    487.034    493.619    487.034
 66.070    599.000    575.326     23.674    487.127    568.799    487.127    493.667    487.127
 66.170    538.000    568.201    -30.201    487.220    561.708    487.220    493.721    487.220
 66.270    589.000    563.736     25.264    487.312    557.272    487.312    493.783    487.312
 66.370    562.000    561.548      0.452    487.405    555.108    487.405    493.851    487.405
 66.470    564.000    561.370      2.630    487.497    554.947    487.497    493.926    487.497
 66.570    553.370    563.086     -9.716    487.590    556.675    487.590    494.007    487.590
 66.670    553.709    566.819    -13.110    487.682    560.413    487.682    494.095    487.682
 66.770    544.759    573.072    -28.313    487.773    566.663    487.773    494.189    487.773
 66.870    626.443    582.938     43.506    487.865    576.520    487.865    494.290    487.865
 66.970    581.000    598.391    -17.391    487.956    591.958    487.956    494.397    487.956
 67.070    623.000    622.615      0.385    488.047    616.158    488.047    494.511    488.047
 67.170    634.826    660.268    -25.442    488.138    653.781    488.138    494.632    488.138
 67.270    763.283    717.504     45.778    488.229    710.980    488.229    494.760    488.229
 67.370    748.000    801.500    -53.500    488.319    794.932    488.319    494.895    488.319
 67.470    917.000    919.287     -2.287    488.409    912.672    488.409    495.038    488.409
 67.570   1080.381   1075.857      4.524    488.498   1069.194    488.498    495.188    488.498
 67.670   1315.133   1271.750     43.383    488.587   1265.040    488.587    495.346    488.587
 67.770   1491.000   1500.635     -9.635    488.676   1493.881    488.676    495.512    488.676
 67.870   1738.000   1747.428     -9.428    488.765   1740.635    488.765    495.687    488.765
 67.970   2040.000   1987.466     52.534    488.853   1980.640    488.853    495.871    488.853
 68.070   2204.000   2187.684     16.316    488.941   2180.823    488.941    496.065    488.941
 68.170   2316.000   2312.103      3.897    489.028   2305.198    489.028    496.268    489.028
 68.270   2399.000   2333.554     65.446    489.115   2326.581    489.115    496.483    489.115
 68.370   2337.000   2246.837     90.163    489.201   2239.756    489.201    496.708    489.201
 68.470   2007.520   2071.824    -64.304    489.287   2064.588    489.287    496.946    489.287
 68.570   1922.000   1842.986     79.014    489.373   1835.552    489.373    497.196    489.373
 68.670   1519.107   1595.666    -76.559    489.458   1588.002    489.458    497.460    489.458
 68.770   1391.000   1358.092     32.908    489.543   1350.174    489.543    497.740    489.543
 68.870   1130.000   1148.972    -18.972    489.627   1140.783    489.627    498.035    489.627
 68.970   1012.425    977.782     34.643    489.710    969.309    489.710    498.348    489.710
 69.070    796.000    846.313    -50.313    489.794    837.546    489.794    498.680    489.794
 69.170    746.000    750.949     -4.949    489.876    741.877    489.876    499.033    489.876
 69.270    695.000    685.147      9.853    489.958    675.755    489.958    499.409    489.958
 69.370    632.000    641.575     -9.575    490.039    631.846    490.039    499.810    490.039
 69.470    639.226    613.571     25.656    490.120    603.482    490.120    500.238    490.120
 69.570    571.847    595.853    -24.006    490.200    585.378    490.200    500.698    490.200
 69.670    611.319    584.655     26.664    490.280    573.761    490.280    501.192    490.280
 69.770    574.578    577.512     -2.934    490.359    566.162    490.359    501.723    490.359
 69.870    580.000    572.927      7.073    490.437    561.078    490.437    502.298    490.437
 69.970    592.000    570.044     21.956    490.515    557.650    490.515    502.920    490.515
 70.070    582.870    568.405     14.465    490.592    555.412    490.592    503.595    490.592
 70.170    595.000    567.786     27.214    490.669    554.133    490.669    504.330    490.669
 70.270    570.175    568.105      2.070    490.744    553.725    490.744    505.132    490.744
 70.370    545.000    569.389    -24.389    490.819    554.206    490.819    506.009    490.819
 70.470    554.000    571.785    -17.785    490.894    555.714    490.894    506.970    490.894
 70.570    539.000    575.608    -36.608    490.967    558.554    490.967    508.026    490.967
 70.670    581.843    581.435      0.408    491.040    563.292    491.040    509.186    491.040
 70.770    577.859    590.243    -12.384    491.112    570.892    491.112    510.464    491.112
 70.870    576.080    603.579    -27.499    491.183    582.889    491.183    511.871    491.183
 70.970    610.668    623.732    -13.064    491.254    601.557    491.254    513.422    491.254
 71.070    665.888    653.830     12.059    491.323    630.010    491.323    515.130    491.323
 71.170    711.000    697.771     13.229    491.392    672.131    491.392    517.010    491.392
 71.270    750.805    759.871     -9.066    491.460    732.221    491.460    519.077    491.460
 71.370    790.000    844.155    -54.155    491.528    814.289    491.528    521.346    491.528
 71.470    937.000    953.302    -16.302    491.594    921.003    491.594    523.828    491.594
 71.570   1082.000   1087.387     -5.387    491.660   1052.426    491.660    526.537    491.660
 71.670   1235.000   1242.648     -7.648    491.724   1204.790    491.724    529.480    491.724
 71.770   1456.000   1410.535     45.465    491.788   1369.544    491.788    532.663    491.788
 71.870   1565.000   1577.220    -12.220    491.851   1532.865    491.851    536.082    491.851
 71.970   1689.622   1723.880    -34.258    491.913   1675.945    491.913    539.727    491.913
 72.070   1888.700   1828.807     59.894    491.974   1777.101    491.974    543.575    491.974
 72.170   1882.000   1872.880      9.120    492.034   1817.251    492.034    547.586    492.034
 72.270   1792.000   1847.456    -55.456    492.094   1787.805    492.094    551.703    492.094
 72.370   1756.000   1758.831     -2.831    492.152   1695.136    492.152    555.841    492.152
 72.470   1620.000   1624.785     -4.785    492.209   1557.126    492.209    559.891    492.209
 72.570   1437.253   1466.822    -29.569    492.266   1395.415    492.266    563.716    492.266
 72.670   1354.482   1304.213     50.270    492.321   1229.430    492.321    567.158    492.321
 72.770   1131.000   1151.445    -20.445    492.375   1073.831    492.375    570.047    492.375
 72.870   1007.000   1017.729    -10.729    492.429    937.995    492.429    572.218    492.429
 72.970    924.000    907.409     16.591    492.481    826.405    492.481    573.536    492.481
 73.070    872.000    820.883     51.117    492.532    739.549    492.532    573.910    492.532
 73.170    767.000    755.818     11.182    492.583    675.118    492.583    573.319    492.583
 73.270    728.273    708.424     19.848    492.632    629.281    492.632    571.806    492.632
 73.370    623.000    674.541    -51.541    492.680    597.770    492.680    569.477    492.680
 73.470    681.841    650.379     31.462    492.727    576.649    492.727    566.479    492.727
 73.570    624.000    632.910     -8.910    492.773    562.722    492.773    562.981    492.773
 73.670    640.000    619.953     20.047    492.818    553.638    492.818    559.152    492.818
 73.770    585.000    610.073    -25.073    492.861    547.811    492.861    555.143    492.861
 73.870    583.000    602.405    -19.405    492.904    544.247    492.904    551.083    492.904
 73.970    631.657    596.460     35.196    492.945    542.355    492.945    547.074    492.945
 74.070    604.724    591.955     12.769    492.986    541.776    492.986    543.190    492.986
 74.170    557.000    588.689    -31.689    493.025    542.260    493.025    539.483    493.025
 74.270    572.000    586.459    -14.459    493.063    543.567    493.063    535.988    493.063
 74.370    599.947    584.998     14.949    493.099    545.413    493.099    532.724    493.099
 74.470    622.939    583.968     38.971    493.135    547.450    493.135    529.697    493.135
 74.570    635.000    582.932     52.068    493.169    549.242    493.169    526.908    493.169
 74.670    617.000    581.414     35.586    493.202    550.317    493.202    524.351    493.202
 74.770    534.005    579.007    -45.002    493.234    550.279    493.234    522.015    493.234
 74.870    620.000    575.537     44.463    493.265    548.964    493.265    519.890    493.265
 74.970    664.000    571.150     92.850    493.294    546.533    493.294    517.960    493.294
 75.070    549.194    566.251    -17.058    493.322    543.405    493.322    516.212    493.322
 75.170    632.000    561.363     70.637    493.349    540.119    493.349    514.631    493.349
 75.270    529.055    557.022    -27.967    493.375    537.225    493.375    513.202    493.375
 75.370    598.000    553.742     44.258    493.399    535.253    493.399    511.911    493.399
 75.470    577.000    552.018     24.982    493.422    534.712    493.422    510.744    493.422
 75.570    566.000    552.335     13.665    493.444    536.099    493.444    509.690    493.444
 75.670    597.000    555.163     41.837    493.464    539.893    493.464    508.737    493.464
 75.770    534.101    560.929    -26.828    493.483    546.536    493.483    507.873    493.483
 75.870    540.771    569.966    -29.195    493.501    556.367    493.501    507.089    493.501
 75.970    545.134    582.422    -37.288    493.517    569.545    493.517    506.377    493.517
 76.070    593.325    598.159     -4.834    493.532    585.938    493.532    505.728    493.532
 76.170    609.000    616.648     -7.648    493.546    605.025    493.546    505.136    493.546
 76.270    607.863    636.883    -29.020    493.558    625.807    493.558    504.594    493.558
 76.370    675.000    657.335     17.665    493.569    646.762    493.569    504.096    493.569
 76.470    695.000    675.973     19.027    493.578    665.863    493.578    503.638    493.578
 76.570    652.163    690.419    -38.256    493.586    680.737    493.586    503.216    493.586
 76.670    648.090    698.380    -50.290    493.593    689.097    493.593    502.825    493.593
 76.770    690.000    698.339     -8.339    493.598    689.427    493.598    502.462    493.598
 76.870    715.055    690.173     24.882    493.602    681.608    493.602    502.125    493.602
 76.970    694.057    675.208     18.850    493.604    666.966    493.604    501.810    493.604
 77.070    641.000    655.654    -14.654    493.605    647.714    493.605    501.516    493.605
 77.170    572.000    633.887    -61.887    493.604    626.228    493.604    501.241    493.604
 77.270    622.000    611.970     10.030    493.602    604.573    493.602    500.982    493.602
 77.370    579.778    591.457    -11.679    493.599    584.305    493.599    500.739    493.599
 77.470    589.000    573.360     15.640    493.594    566.437    493.594    500.509    493.594
 77.570    502.000    558.191    -56.191    493.587    551.481    493.587    500.292    493.587
 77.670    550.000    546.042      3.958    493.579    539.531    493.579    500.086    493.579
 77.770    508.077    536.698    -28.621    493.569    530.374    493.569    499.891    493.569
 77.870    503.786    529.759    -25.974    493.558    523.611    493.558    499.705    493.558
 77.970    506.000    524.752    -18.752    493.545    518.768    493.545    499.529    493.545
 78.070    484.196    521.210    -37.015    493.531    515.381    493.531    499.360    493.531
 78.170    511.000    518.729     -7.729    493.515    513.045    493.515    499.199    493.515
 78.270    501.000    516.987    -15.987    493.498    511.440    493.498    499.045    493.498
 78.370    520.000    515.749      4.251    493.479    510.331    493.479    498.897    493.479
 78.470    500.000    514.853    -14.853    493.459    509.557    493.459    498.755    493.459
 78.570    526.000    514.195     11.805    493.436    509.014    493.436    498.619    493.436
 78.670    512.286    513.715     -1.429    493.413    508.641    493.413    498.487    493.413
 78.770    483.666    513.381    -29.715    493.388    508.409    493.388    498.360    493.388
 78.870    521.000    513.181      7.819    493.361    508.305    493.361    498.237    493.361
 78.970    552.656    513.121     39.535    493.332    508.335    493.332    498.119    493.332
 79.070    486.000    513.213    -27.213    493.302    508.512    493.302    498.003    493.302
 79.170    519.000    513.479      5.521    493.270    508.858    493.270    497.892    493.270
 79.270    518.000    513.925      4.075    493.237    509.379    493.237    497.783    493.237
 79.370    494.169    514.623    -20.454    493.202    510.148    493.202    497.677    493.202
 79.470    533.000    515.618     17.382    493.165    511.209    493.165    497.574    493.165
 79.570    477.239    516.947    -39.708    493.127    512.600    493.127    497.473    493.127
 79.670    483.000    518.673    -35.673    493.087    514.384    493.087    497.374    493.087
 79.770    532.629    520.884     11.745    493.045    516.650    493.045    497.277    493.045
 79.870    514.000    523.700     -9.700    493.002    519.518    493.002    497.181    493.002
 79.970    524.475    527.278     -2.803    492.957    523.145    492.957    497.087    492.957
 80.070    498.000    531.826    -33.826    492.910    527.740    492.910    496.994    492.910
 80.170    506.287    537.606    -31.318    492.862    533.564    492.862    496.901    492.862
 80.270    523.000    544.938    -21.938    492.812    540.940    492.812    496.809    492.812
 80.370    586.962    554.186     32.776    492.760    550.230    492.760    496.717    492.760
 80.470    583.763    565.696     18.067    492.706    561.781    492.706    496.625    492.706
 80.570    556.000    579.706    -23.706    492.651    575.832    492.651    496.532    492.651
 80.670    587.172    596.249     -9.077    492.594    592.415    492.594    496.438    492.594
 80.770    661.661    615.071     46.590    492.535    611.278    492.535    496.343    492.535
 80.870    618.000    635.589    -17.589    492.475    631.838    492.475    496.247    492.475
 80.970    693.534    656.900     36.634    492.413    653.190    492.413    496.150    492.413
 81.070    666.000    677.855    -11.855    492.349    674.187    492.349    496.051    492.349
 81.170    673.000    697.213    -24.213    492.283    693.586    492.283    495.951    492.283
 81.270    711.339    713.800     -2.461    492.216    710.215    492.216    495.849    492.216
 81.370    766.000    726.638     39.362    492.147    723.093    492.147    495.745    492.147
 81.470    688.000    735.010    -47.010    492.076    731.504    492.076    495.641    492.076
 81.570    777.000    738.527     38.473    492.003    735.059    492.003    495.535    492.003
 81.670    788.345    737.130     51.214    491.928    733.700    491.928    495.429    491.928
 81.770    695.000    731.035    -36.035    491.852    727.639    491.852    495.322    491.852
 81.870    734.262    720.690     13.573    491.774    717.325    491.774    495.214    491.774
 81.970    703.000    706.819     -3.819    491.694    703.484    491.694    495.105    491.694
 82.070    675.000    690.433    -15.433    491.613    687.125    491.613    494.996    491.613
 82.170    686.000    672.671     13.329    491.529    669.385    491.529    494.887    491.529
 82.270    614.712    654.545    -39.834    491.444    651.281    491.444    494.777    491.444
 82.370    628.000    636.788     -8.788    491.357    633.542    491.357    494.667    491.357
 82.470    606.000    619.853    -13.853    491.268    616.624    491.268    494.557    491.268
 82.570    598.000    604.017     -6.017    491.177    600.802    491.177    494.446    491.177
 82.670    589.000    589.504     -0.504    491.085    586.301    491.085    494.335    491.085
 82.770    538.000    576.542    -38.542    490.990    573.349    490.990    494.223    490.990
 82.870    551.000    565.348    -14.348    490.894    562.164    490.894    494.112    490.894
 82.970    559.000    556.103      2.897    490.796    552.925    490.796    493.999    490.796
 83.070    492.000    548.926    -56.926    490.696    545.753    490.696    493.887    490.696
 83.170    571.000    543.873     27.127    490.595    540.704    490.595    493.773    490.595
 83.270    582.000    540.924     41.076    490.491    537.757    490.491    493.660    490.491
 83.370    542.859    539.978      2.882    490.386    536.812    490.386    493.545    490.386
 83.470    503.217    540.840    -37.623    490.279    537.674    490.279    493.431    490.279
 83.570    549.000    543.216      5.784    490.170    540.049    490.170    493.315    490.170
 83.670    508.897    546.710    -37.812    490.059    543.541    490.059    493.199    490.059
 83.770    514.403    550.835    -36.432    489.946    547.664    489.946    493.082    489.946
 83.870    545.000    555.029    -10.029    489.832    551.856    489.832    492.965    489.832
 83.970    525.000    558.688    -33.688    489.715    555.513    489.715    492.847    489.715
 84.070    553.000    561.226     -8.226    489.597    558.048    489.597    492.728    489.597
 84.170    515.000    562.165    -47.165    489.477    558.986    489.477    492.608    489.477
 84.270    588.561    561.248     27.313    489.355    558.070    489.355    492.488    489.355
 84.370    563.000    558.501      4.499    489.231    555.324    489.231    492.367    489.231
 84.470    558.000    554.204      3.796    489.106    551.027    489.106    492.245    489.106
 84.570    547.000    548.798     -1.798    488.978    545.621    488.978    492.122    488.978
 84.670    567.000    542.771     24.229    488.849    539.593    488.849    491.998    488.849
 84.770    525.000    536.580    -11.580    488.718    533.400    488.718    491.874    488.718
 84.870    551.000    530.607     20.393    488.584    527.425    488.584    491.749    488.584
 84.970    529.000    525.140      3.860    488.449    521.952    488.449    491.622    488.449
 85.070    504.000    520.363    -16.363    488.313    517.169    488.313    491.496    488.313
 85.170    511.075    516.371     -5.297    488.174    513.169    488.174    491.368    488.174
 85.270    527.000    513.178     13.822    488.033    509.965    488.033    491.239    488.033
 85.370    511.000    510.742      0.258    487.891    507.517    487.891    491.110    487.891
 85.470    515.581    508.984      6.597    487.747    505.746    487.747    490.980    487.747
 85.570    539.000    507.818     31.182    487.601    504.565    487.601    490.849    487.601
 85.670    513.000    507.161      5.839    487.453    503.891    487.453    490.717    487.453
 85.770    503.000    506.952     -3.952    487.303    503.665    487.303    490.585    487.303
 85.870    501.000    507.160     -6.160    487.151    503.853    487.151    490.451    487.151
 85.970    501.000    507.790     -6.790    486.997    504.462    486.997    490.318    486.997
 86.070    492.294    508.884    -16.589    486.842    505.534    486.842    490.183    486.842
 86.170    511.000    510.521      0.479    486.685    507.147    486.685    490.048    486.685
 86.270    513.000    512.813      0.187    486.525    509.412    486.525    489.912    486.525
 86.370    552.000    515.894     36.106    486.364    512.465    486.364    489.775    486.364
 86.470    575.000    519.909     55.091    486.202    516.449    486.202    489.638    486.202
 86.570    524.000    524.994     -0.994    486.037    521.502    486.037    489.501    486.037
 86.670    544.000    531.256     12.744    485.870    527.727    485.870    489.363    485.870
 86.770    543.000    538.738      4.262    485.702    535.171    485.702    489.224    485.702
 86.870    507.000    547.397    -40.397    485.532    543.790    485.532    489.085    485.532
 86.970    516.514    557.074    -40.560    485.359    553.423    485.359    488.946    485.359
 87.070    569.637    567.467      2.170    485.186    563.772    485.186    488.806    485.186
 87.170    565.000    578.128    -13.128    485.010    574.387    485.010    488.667    485.010
 87.270    604.332    588.455     15.877    484.832    584.667    484.832    488.527    484.832
 87.370    618.752    597.720     21.032    484.653    593.885    484.653    488.387    484.653
 87.470    591.684    605.131    -13.447    484.471    601.251    484.471    488.247    484.471
 87.570    662.000    609.961     52.039    484.288    606.037    484.288    488.107    484.288
 87.670    656.439    611.718     44.721    484.103    607.752    484.103    487.967    484.103
 87.770    628.956    610.293     18.663    483.917    606.286    483.917    487.828    483.917
 87.870    597.000    605.991     -8.991    483.728    601.943    483.728    487.689    483.728
 87.970    633.921    599.443     34.478    483.538    595.354    483.538    487.551    483.538
 88.070    593.000    591.447      1.553    483.345    587.316    483.345    487.413    483.345
 88.170    548.481    582.844    -34.364    483.151    578.669    483.151    487.276    483.151
 88.270    532.694    574.433    -41.739    482.956    570.210    482.956    487.140    482.956
 88.370    613.000    566.909     46.091    482.758    562.635    482.758    487.005    482.758
 88.470    521.066    560.828    -39.761    482.559    556.497    482.559    486.872    482.559
 88.570    554.000    556.574     -2.574    482.357    552.184    482.357    486.740    482.357
 88.670    566.000    554.354     11.646    482.154    549.901    482.154    486.610    482.154
 88.770    557.000    554.191      2.809    481.950    549.669    481.950    486.482    481.950
 88.870    599.000    555.935     43.065    481.743    551.341    481.743    486.356    481.743
 88.970    565.000    559.282      5.718    481.535    554.612    481.535    486.232    481.535
 89.070    564.088    563.794      0.295    481.325    559.041    481.325    486.112    481.325
 89.170    593.000    568.921     24.079    481.113    564.082    481.113    485.994    481.113
 89.270    599.690    574.038     25.652    480.899    569.106    480.899    485.880    480.899
 89.370    620.000    578.481     41.519    480.684    573.450    480.684    485.770    480.684
 89.470    557.523    581.616    -24.093    480.467    576.479    480.467    485.664    480.467
 89.570    594.000    582.930     11.070    480.248    577.679    480.248    485.563    480.248
 89.670    623.612    582.129     41.482    480.028    576.756    480.028    485.467    480.028
 89.770    559.511    579.205    -19.694    479.806    573.699    479.806    485.376    479.806
 89.870    601.000    574.408     26.592    479.582    568.761    479.582    485.292    479.582
 89.970    529.000    568.175    -39.175    479.356    562.376    479.356    485.214    479.356
 90.070    521.568    561.016    -39.448    479.129    555.055    479.129    485.144    479.129
 90.170    594.681    553.434     41.247    478.900    547.300    478.900    485.081    478.900
 90.270    533.000    545.875    -12.875    478.669    539.558    478.669    485.027    478.669
 90.370    534.101    538.699     -4.598    478.437    532.189    478.437    484.982    478.437
 90.470    544.000    532.176     11.824    478.203    525.461    478.203    484.947    478.203
 90.570    560.176    526.481     33.696    477.967    519.549    477.967    484.922    477.967
 90.670    502.000    521.702    -19.702    477.730    514.542    477.730    484.908    477.730
 90.770    533.000    517.856     15.144    477.491    510.455    477.491    484.906    477.491
 90.870    523.239    514.905      8.334    477.250    507.250    477.250    484.916    477.250
 90.970    553.000    512.778     40.222    477.008    504.854    477.008    484.940    477.008
 91.070    484.000    511.377    -27.377    476.764    503.170    476.764    484.977    476.764
 91.170    503.000    510.628     -7.628    476.519    502.122    476.519    485.029    476.519
 91.270    533.000    510.481     22.519    476.272    501.660    476.272    485.095    476.272
 91.370    501.000    510.885     -9.885    476.023    501.731    476.023    485.178    476.023
 91.470    538.421    511.833     26.588    475.773    502.329    475.773    485.276    475.773
 91.570    495.316    513.359    -18.043    475.521    503.488    475.521    485.391    475.521
 91.670    474.000    515.535    -41.535    475.268    505.277    475.268    485.522    475.268
 91.770    519.747    518.470      1.277    475.013    507.808    475.013    485.670    475.013
 91.870    511.000    522.304    -11.304    474.756    511.219    474.756    485.834    474.756
 91.970    516.000    527.202    -11.202    474.498    515.677    474.498    486.014    474.498
 92.070    534.000    533.341      0.659    474.239    521.359    474.239    486.208    474.239
 92.170    503.714    540.894    -37.180    473.978    528.439    473.978    486.417    473.978
 92.270    535.000    550.015    -15.015    473.716    537.074    473.716    486.636    473.716
 92.370    545.000    560.818    -15.818    473.452    547.379    473.452    486.865    473.452
 92.470    570.859    573.358     -2.499    473.186    559.414    473.186    487.100    473.186
 92.570    511.000    587.613    -76.613    472.919    573.160    472.919    487.336    472.919
 92.670    589.000    603.469    -14.469    472.651    588.507    472.651    487.571    472.651
 92.770    579.000    620.703    -41.703    472.381    605.239    472.381    487.797    472.381
 92.870    646.000    638.980      7.020    472.110    623.028    472.110    488.008    472.110
 92.970    637.122    657.857    -20.735    471.837    641.437    471.837    488.199    471.837
 93.070    694.000    676.802     17.198    471.563    659.943    471.563    488.361    471.563
 93.170    681.000    695.244    -14.244    471.288    677.980    471.288    488.486    471.288
 93.270    733.000    712.664     20.336    471.011    695.040    471.011    488.569    471.011
 93.370    736.918    728.701      8.217    470.733    710.767    470.733    488.600    470.733
 93.470    741.000    743.220     -2.220    470.454    725.032    470.454    488.575    470.454
 93.570    740.000    756.297    -16.297    470.173    737.917    470.173    488.489    470.173
 93.670    827.000    768.142     58.858    469.891    749.633    469.891    488.338    469.891
 93.770    755.000    778.987    -23.987    469.607    760.414    469.607    488.121    469.607
 93.870    799.258    789.016     10.243    469.323    770.444    469.323    487.839    469.323
 93.970    793.000    798.365     -5.365    469.037    779.854    469.037    487.494    469.037
 94.070    842.000    807.177     34.823    468.749    788.786    468.749    487.091    468.749
 94.170    804.000    815.659    -11.659    468.461    797.437    468.461    486.636    468.461
 94.270    865.203    824.057     41.147    468.171    806.049    468.171    486.135    468.171
 94.370    822.000    832.528    -10.528    467.880    814.771    467.880    485.596    467.880
 94.470    830.000    841.154    -11.154    467.588    823.677    467.588    485.028    467.588
 94.570    847.000    849.621     -2.621    467.295    832.445    467.295    484.437    467.295
 94.670    886.000    857.282     28.718    467.000    840.422    467.000    483.832    467.000
 94.770    863.000    863.216     -0.216    466.704    846.678    466.704    483.218    466.704
 94.870    899.000    866.324     32.676    466.408    850.110    466.408    482.604    466.408
 94.970    874.000    865.532      8.468    466.110    849.639    466.110    481.992    466.110
 95.070    884.000    860.016     23.984    465.811    844.433    465.811    481.390    465.811
 95.170    839.000    849.413    -10.413    465.511    834.128    465.511    480.799    465.511
 95.270    907.000    833.970     73.030    465.209    818.965    465.209    480.224    465.209
 95.370    783.113    814.513    -31.400    464.907    799.768    464.907    479.668    464.907
 95.470    858.000    792.303     65.697    464.604    777.795    464.604    479.131    464.604
 95.570    746.000    768.857    -22.857    464.299    754.561    464.299    478.616    464.299
 95.670    790.000    745.787     44.213    463.994    731.678    463.994    478.125    463.994
 95.770    780.000    724.695     55.305    463.688    710.746    463.688    477.658    463.688
 95.870    683.000    707.102    -24.102    463.381    693.285    463.381    477.215    463.381
 95.970    737.538    694.401     43.137    463.072    680.689    463.072    476.799    463.072
 96.070    743.000    687.829     55.171    462.763    674.193    462.763    476.408    462.763
 96.170    645.000    688.442    -43.442    462.453    674.853    462.453    476.044    462.453
 96.270    683.000    697.098    -14.098    462.142    683.530    462.142    475.707    462.142
 96.370    730.000    714.443     15.557    461.830    700.865    461.830    475.397    461.830
 96.470    704.250    740.879    -36.629    461.518    727.263    461.518    475.115    461.518
 96.570    804.063    776.534     27.529    461.204    762.851    461.204    474.861    461.204
 96.670    800.000    821.215    -21.215    460.890    807.436    460.890    474.636    460.890
 96.770    837.000    874.347    -37.347    460.575    860.443    460.575    474.441    460.575
 96.870    925.000    934.914     -9.914    460.259    920.855    460.259    474.275    460.259
 96.970   1050.339   1001.411     48.928    459.942    987.167    459.942    474.141    459.942
 97.070   1071.000   1071.807     -0.807    459.625   1057.348    459.625    474.038    459.625
 97.170   1098.000   1143.538    -45.538    459.307   1128.833    459.307    473.969    459.307
 97.270   1172.000   1213.536    -41.536    458.988   1198.554    458.988    473.933    458.988
 97.370   1279.000   1278.312      0.688    458.668   1263.019    458.668    473.933    458.668
 97.470   1283.000   1334.147    -51.147    458.348   1318.510    458.348    473.970    458.348
 97.570   1404.000   1377.427     26.573    458.027   1361.410    458.027    474.046    458.027
 97.670   1394.000   1405.125    -11.125    457.706   1388.689    457.706    474.161    457.706
 97.770   1360.647   1415.331    -54.684    457.384   1398.435    457.384    474.319    457.384
 97.870   1394.927   1407.627    -12.700    457.062   1390.225    457.062    474.520    457.062
 97.970   1345.591   1383.132    -37.541    456.739   1365.176    456.739    474.767    456.739
 98.070   1365.000   1344.281     20.719    456.415   1325.719    456.415    475.062    456.415
 98.170   1310.060   1294.270     15.790    456.091   1275.048    456.091    475.407    456.091
 98.270   1208.000   1236.647    -28.647    455.767   1216.707    455.767    475.805    455.767
 98.370   1125.242   1174.972    -49.730    455.442   1154.255    455.442    476.258    455.442
 98.470   1026.000   1112.598    -86.598    455.116   1091.044    455.116    476.767    455.116
 98.570   1070.000   1052.558     17.442    454.790   1030.104    454.790    477.336    454.790
 98.670   1036.000    997.507     38.493    454.464    974.088    454.464    477.967    454.464
 98.770    910.000    949.705    -39.705    454.138    925.255    454.138    478.662    454.138
 98.870    909.000    911.026     -2.026    453.811    885.481    453.811    479.422    453.811
 98.970    877.000    882.974     -5.974    453.484    856.263    453.484    480.249    453.484
 99.070    870.098    866.692      3.405    453.157    838.748    453.157    481.146    453.157
 99.170    820.000    862.997    -42.997    452.829    833.751    452.829    482.113    452.829
 99.270    826.000    872.396    -46.396    452.501    841.778    452.501    483.150    452.501
 99.370    866.219    895.112    -28.893    452.173    863.053    452.173    484.258    452.173
 99.470    909.000    931.088    -22.088    451.845    897.521    451.845    485.436    451.845
 99.570   1010.076    979.983     30.093    451.516    944.842    451.516    486.682    451.516
 99.670   1035.000   1041.142     -6.142    451.188   1004.365    451.188    487.992    451.188
 99.770   1126.205   1113.559     12.647    450.859   1075.089    450.859    489.363    450.859
 99.870   1172.000   1195.830    -23.830    450.531   1155.618    450.531    490.789    450.531
 99.970   1340.856   1286.109     54.747    450.202   1244.110    450.202    492.260    450.202
100.070   1411.000   1382.070     28.930    449.873   1338.254    449.873    493.767    449.873
100.170   1534.000   1480.913     53.087    449.545   1435.260    449.545    495.297    449.545
100.270   1568.845   1579.424    -10.580    449.216   1531.931    449.216    496.834    449.216
100.370   1721.000   1674.130     46.870    448.887   1624.810    448.887    498.359    448.887
100.470   1883.000   1761.536    121.464    448.559   1710.426    448.559    499.850    448.559
100.570   1779.703   1838.415    -58.712    448.231   1785.573    448.231    501.283    448.231
100.670   1988.000   1902.028     85.972    447.903   1847.539    447.903    502.631    447.903
100.770   1926.000   1950.213    -24.213    447.575   1894.189    447.575    503.864    447.575
100.870   2012.000   1981.335     30.665    447.247   1923.917    447.247    504.953    447.247
100.970   2075.386   1994.247     81.139    446.919   1935.606    446.919    505.868    446.919
101.070   2004.000   1988.316     15.684    446.592   1928.650    446.592    506.580    446.592
101.170   2056.000   1963.675     92.325    446.265   1903.205    446.265    507.065    446.265
101.270   1870.089   1921.509    -51.421    445.939   1860.479    445.939    507.303    445.939
101.370   1898.000   1864.212     33.788    445.613   1802.878    445.613    507.278    445.613
101.470   1694.000   1795.249   -101.249    445.287   1733.874    445.287    506.984    445.287
101.570   1700.000   1718.743    -18.743    444.961   1657.593    444.961    506.420    444.961
101.670   1617.930   1638.949    -21.019    444.636   1578.283    444.636    505.595    444.636
101.770   1495.000   1559.780    -64.780    444.312   1499.843    444.312    504.523    444.312
101.870   1496.000   1484.493     11.507    443.988   1425.510    443.988    503.224    443.988
101.970   1440.000   1415.518     24.482    443.665   1357.691    443.665    501.724    443.665
102.070   1278.000   1354.412    -76.412    443.342   1297.916    443.342    500.051    443.342
102.170   1329.000   1301.863     27.137    443.020   1246.844    443.020    498.234    443.020
102.270   1238.000   1257.793    -19.793    442.699   1204.367    442.699    496.305    442.699
102.370   1188.000   1221.388    -33.388    442.378   1169.641    442.378    494.291    442.378
102.470   1186.000   1191.222     -5.222    442.058   1141.215    442.058    492.221    442.058
102.570   1219.982   1165.430     54.552    441.738   1117.198    441.738    490.118    441.738
102.670   1143.000   1141.903      1.097    441.420   1095.461    441.420    488.005    441.420
102.770   1104.000   1118.550    -14.550    441.102   1073.891    441.102    485.899    441.102
102.870   1065.000   1093.570    -28.570    440.786   1050.673    440.786    483.818    440.786
102.970   1117.000   1065.695     51.305    440.470   1024.523    440.470    481.774    440.470
103.070    992.000   1034.313    -42.313    440.155    994.821    440.155    479.777    440.155
103.170    988.068    999.454    -11.385    439.841    961.586    439.841    477.835    439.841
103.270    970.000    961.642      8.358    439.528    925.336    439.528    475.955    439.528
103.370    916.000    921.720     -5.720    439.216    886.911    439.216    474.141    439.216
103.470    921.000    880.671     40.329    438.905    847.289    438.905    472.396    438.905
103.570    817.565    839.499    -21.934    438.595    807.474    438.595    470.721    438.595
103.670    809.841    799.142     10.699    438.286    768.402    438.286    469.119    438.286
103.770    781.000    760.426     20.574    437.979    730.901    437.979    467.587    437.979
103.870    718.000    724.034     -6.034    437.672    695.654    437.672    466.127    437.672
103.970    684.000    690.486     -6.486    437.367    663.183    437.367    464.737    437.367
104.070    674.017    660.136     13.881    437.064    633.842    437.064    463.415    437.064
104.170    662.875    633.173     29.702    436.761    607.824    436.761    462.160    436.761
104.270    657.000    609.635     47.365    436.460    585.169    436.460    460.969    436.460
104.370    590.587    589.436      1.150    436.161    565.792    436.161    459.841    436.161
104.470    535.421    572.389    -36.968    435.862    549.510    435.862    458.772    435.862
104.570    610.000    558.238     51.762    435.566    536.068    435.566    457.761    435.566
104.670    553.000    546.686      6.314    435.271    525.172    435.271    456.805    435.271
104.770    526.791    537.425    -10.634    434.977    516.517    434.977    455.902    434.977
104.870    517.000    530.153    -13.153    434.685    509.803    434.685    455.048    434.685
104.970    557.000    524.593     32.407    434.394    504.756    434.394    454.242    434.394
105.070    518.578    520.507     -1.929    434.106    501.139    434.106    453.482    434.106
105.170    534.194    517.697     16.496    433.819    498.757    433.819    452.765    433.819
105.270    548.000    516.013     31.987    433.534    497.461    433.534    452.089    433.534
105.370    502.699    515.346    -12.647    433.250    497.146    433.250    451.451    433.250
105.470    514.000    515.631     -1.631    432.969    497.748    432.969    450.851    432.969
105.570    483.138    516.838    -33.700    432.689    499.240    432.689    450.285    432.689
105.670    524.000    518.970      5.030    432.411    501.624    432.411    449.753    432.411
105.770    529.000    522.050      6.950    432.135    504.926    432.135    449.252    432.135
105.870    530.678    526.120      4.558    431.862    509.192    431.862    448.782    431.862
105.970    571.000    531.230     39.770    431.590    514.469    431.590    448.340    431.590
106.070    495.647    537.421    -41.774    431.320    520.802    431.320    447.925    431.320
106.170    526.407    544.722    -18.315    431.053    528.221    431.053    447.537    431.053
106.270    590.236    553.131     37.104    430.787    536.726    430.787    447.174    430.787
106.370    600.945    562.609     38.336    430.524    546.277    430.524    446.835    430.524
106.470    606.798    573.070     33.728    430.264    556.789    430.264    446.519    430.264
106.570    621.848    584.377     37.471    430.005    568.128    430.005    446.226    430.005
106.670    636.852    596.340     40.512    429.749    580.103    429.749    445.955    429.749
106.770    599.000    608.719     -9.719    429.495    592.475    429.495    445.706    429.495
106.870    663.381    621.223     42.158    429.244    604.955    429.244    445.477    429.244
106.970    623.000    633.522    -10.522    428.995    617.211    428.995    445.270    428.995
107.070    624.000    645.257    -21.257    428.749    628.886    428.749    445.082    428.749
107.170    664.000    656.057      7.943    428.505    639.609    428.505    444.915    428.505
107.270    643.000    665.570    -22.570    428.264    649.029    428.264    444.769    428.264
107.370    679.000    673.504      5.496    428.026    656.853    428.026    444.642    428.026
107.470    680.254    679.668      0.586    427.790    662.890    427.790    444.536    427.790
107.570    716.292    684.002     32.289    427.557    667.081    427.557    444.450    427.557
107.670    674.050    686.604    -12.554    427.327    669.522    427.327    444.385    427.327
107.770    674.000    687.710    -13.710    427.100    670.449    427.100    444.341    427.100
107.870    677.035    687.664    -10.629    426.876    670.206    426.876    444.318    426.876
107.970    664.970    686.861    -21.891    426.655    669.187    426.655    444.317    426.655
108.070    672.439    685.698    -13.259    426.437    667.789    426.437    444.339    426.437
108.170    675.000    684.523     -9.523    426.221    666.359    426.221    444.383    426.221
108.270    709.701    683.627     26.074    426.009    665.187    426.009    444.452    426.009
108.370    685.000    683.197      1.803    425.800    664.460    425.800    444.545    425.800
108.470    641.000    683.311    -42.311    425.595    664.254    425.595    444.663    425.595
108.570    671.000    683.941    -12.941    425.392    664.541    425.392    444.808    425.392
108.670    726.879    684.950     41.929    425.193    665.183    425.193    444.980    425.193
108.770    727.620    686.099     41.521    424.997    665.939    424.997    445.181    424.997
108.870    675.000    687.064    -12.064    424.805    666.485    424.805    445.412    424.805
108.970    722.498    687.465     35.033    424.616    666.438    424.616    445.675    424.616
109.070    696.000    686.904      9.096    424.431    665.400    424.431    445.970    424.431
109.170    658.788    685.019    -26.231    424.249    663.005    424.249    446.299    424.249
109.270    702.167    681.535     20.632    424.071    658.980    424.071    446.665    424.071
109.370    689.000    676.314     12.686    423.896    653.183    423.896    447.068    423.896
109.470    651.000    669.368    -18.368    423.725    645.623    423.725    447.511    423.725
109.570    679.104    660.852     18.252    423.558    636.456    423.558    447.996    423.558
109.670    659.246    651.031      8.215    423.395    625.942    423.395    448.525    423.395
109.770    647.654    640.235      7.419    423.236    614.410    423.236    449.099    423.236
109.870    683.000    628.821     54.179    423.081    602.215    423.081    449.723    423.081
109.970    632.000    617.141     14.859    422.929    589.707    422.929    450.397    422.929
110.070    595.000    605.523    -10.523    422.782    577.211    422.782    451.125    422.782
110.170    559.792    594.259    -34.466    422.639    565.016    422.639    451.910    422.639
110.270    597.000    583.598     13.402    422.500    553.370    422.500    452.753    422.500
110.370    579.802    573.743      6.059    422.365    542.472    422.365    453.659    422.365
110.470    536.754    564.851    -28.097    422.234    532.476    422.234    454.629    422.234
110.570    524.729    557.029    -32.300    422.108    523.487    422.108    455.668    422.108
110.670    550.000    550.342     -0.342    421.986    515.565    421.986    456.777    421.986
110.770    563.000    544.814     18.186    421.868    508.732    421.868    457.962    421.868
110.870    557.000    540.432     16.568    421.756    502.974    421.756    459.224    421.756
110.970    544.000    537.157      6.843    421.647    498.245    421.647    460.567    421.647
111.070    535.109    534.923      0.186    421.543    494.478    421.543    461.994    421.543
111.170    587.000    533.652     53.348    421.444    491.592    421.444    463.508    421.444
111.270    556.000    533.256     22.744    421.350    489.495    421.350    465.114    421.350
111.370    535.000    533.643      1.357    421.260    488.091    421.260    466.813    421.260
111.470    565.678    534.722     30.957    421.175    487.288    421.175    468.609    421.175
111.570    548.954    536.407     12.547    421.096    486.997    421.096    470.505    421.096
111.670    503.951    538.619    -34.667    421.021    487.134    421.021    472.503    421.021
111.770    537.939    541.287     -3.348    420.951    487.629    420.951    474.606    420.951
111.870    620.000    544.352     75.648    420.886    488.418    420.886    476.817    420.886
111.970    561.000    547.764     13.236    420.826    489.451    420.826    479.137    420.826
112.070    580.598    551.485     29.113    420.772    490.687    420.772    481.566    420.772
112.170    552.000    555.488     -3.488    420.723    492.100    420.723    484.107    420.723
112.270    535.000    559.759    -24.759    420.679    493.675    420.679    486.759    420.679
112.370    579.198    564.295     14.903    420.640    495.409    420.640    489.522    420.640
112.470    605.290    569.105     36.185    420.607    497.313    420.607    492.395    420.607
112.570    563.749    574.208    -10.458    420.580    499.410    420.580    495.374    420.580
112.670    624.012    579.635     44.377    420.558    501.733    420.558    498.456    420.558
112.770    584.645    585.430     -0.784    420.541    504.331    420.541    501.635    420.541
112.870    590.503    591.649     -1.146    420.531    507.268    420.531    504.907    420.531
112.970    583.000    598.367    -15.367    420.526    510.628    420.526    508.261    420.526
113.070    627.000    605.682     21.318    420.527    514.517    420.527    511.687    420.527
113.170    605.199    613.721     -8.522    420.534    519.077    420.534    515.172    420.534
113.270    603.000    622.648    -19.648    420.546    524.486    420.546    518.702    420.546
113.370    584.000    632.677    -48.677    420.565    530.978    420.565    522.257    420.565
113.470    600.000    644.084    -44.084    420.590    538.847    420.590    525.818    420.590
113.570    696.940    657.205     39.736    420.621    548.455    420.621    529.360    420.621
113.670    637.000    672.488    -35.488    420.658    560.277    420.658    532.856    420.658
113.770    660.763    690.549    -29.786    420.702    574.956    420.702    536.277    420.702
113.870    698.000    712.052    -14.052    420.752    593.191    420.752    539.590    420.752
113.970    741.355    737.842      3.512    420.808    615.861    420.808    542.761    420.808
114.070    759.424    768.942     -9.518    420.871    644.025    420.871    545.753    420.871
114.170    815.000    806.558      8.442    420.940    678.925    420.940    548.528    420.940
114.270    801.000    852.094    -51.094    421.016    722.004    421.016    551.051    421.016
114.370    921.485    907.149     14.336    421.099    774.895    421.099    553.283    421.099
114.470    918.575    973.508    -54.933    421.188    839.420    421.188    555.192    421.188
114.570   1089.000   1053.119     35.881    421.285    917.553    421.285    556.748    421.285
114.670   1195.000   1148.051     46.949    421.388   1011.391    421.388    557.924    421.388
114.770   1233.204   1260.434    -27.230    421.498   1123.083    421.498    558.703    421.498
114.870   1355.000   1392.384    -37.384    421.615   1254.757    421.615    559.071    421.615
114.970   1540.015   1545.904     -5.889    421.739   1408.421    421.739    559.025    421.739
115.070   1788.000   1722.768     65.232    421.871   1585.847    421.871    558.566    421.871
115.170   1918.494   1924.394     -5.900    422.009   1788.442    422.009    557.706    422.009
115.270   2241.000   2151.703     89.297    422.155   2017.113    422.155    556.462    422.155
115.370   2552.000   2404.986    147.014    422.309   2272.126    422.309    554.859    422.309
115.470   2711.000   2683.761     27.239    422.469   2552.971    422.469    552.925    422.469
115.570   3023.000   2986.662     36.338    422.638   2858.252    422.638    550.693    422.638
115.670   3357.000   3311.340     45.660    422.814   3185.584    422.814    548.200    422.814
115.770   3690.000   3654.397     35.603    422.997   3531.534    422.997    545.482    422.997
115.870   4089.000   4011.362     77.638    423.189   3891.594    423.189    542.578    423.189
115.970   4243.000   4376.698   -133.698    423.388   4260.193    423.388    539.523    423.388
116.070   4647.687   4743.865    -96.177    423.595   4630.756    423.595    536.354    423.595
116.170   5136.000   5105.413     30.587    423.810   4995.802    423.810    533.103    423.810
116.270   5460.295   5453.141      7.155    424.033   5347.097    424.033    529.801    424.033
116.370   5668.000   5778.296   -110.296    424.264   5675.865    424.264    526.477    424.264
116.470   6182.081   6071.864    110.217    424.504   5973.064    424.504    523.153    424.504
116.570   6246.857   6324.934    -78.077    424.751   6229.759    424.751    519.853    424.751
116.670   6401.764   6529.166   -127.401    425.007   6437.593    425.007    516.595    425.007
116.770   6721.000   6677.348     43.652    425.272   6589.333    425.272    513.395    425.272
116.870   6770.000   6763.978      6.022    425.545   6679.461    425.545    510.268    425.545
116.970   6924.000   6785.782    138.218    425.827   6704.688    425.827    507.223    425.827
117.070   6712.000   6742.055    -30.055    426.117   6664.295    426.117    504.270    426.117
117.170   6547.000   6634.731    -87.731    426.416   6560.205    426.416    501.417    426.416
117.270   6409.327   6468.169    -58.842    426.723   6396.770    426.723    498.669    426.723
117.370   6096.704   6248.708   -152.004    427.040   6180.321    427.040    496.030    427.040
117.470   5920.000   5984.097    -64.097    427.366   5918.604    427.366    493.503    427.366
117.570   5579.000   5682.915   -103.915    427.700   5620.197    427.700    491.090    427.700
117.670   5230.375   5354.057   -123.682    428.044   5293.991    428.044    488.792    428.044
117.770   4904.947   5006.310   -101.363    428.397   4948.778    428.397    486.610    428.397
117.870   4569.000   4648.035    -79.035    428.759   4592.918    428.759    484.542    428.759
117.970   4432.000   4286.926    145.074    429.131   4234.111    429.131    482.587    429.131
118.070   3914.639   3929.837    -15.198    429.512   3879.211    429.512    480.744    429.512
118.170   3586.000   3582.664      3.336    429.903   3534.120    429.903    479.011    429.903
118.270   3340.000   3250.279     89.721    430.303   3203.714    430.303    477.386    430.303
118.370   2922.000   2936.513    -14.513    430.713   2891.827    430.713    475.866    430.713
118.470   2740.298   2644.176     96.123    431.133   2601.277    431.133    474.449    431.133
118.570   2350.013   2375.124    -25.111    431.562   2333.922    431.562    473.131    431.562
118.670   2170.000   2130.345     39.655    432.002   2090.754    432.002    471.910    432.002
118.770   1874.000   1910.061    -36.061    432.452   1872.001    432.452    470.782    432.452
118.870   1683.000   1713.850    -30.850    432.911   1677.244    432.911    469.745    432.911
118.970   1596.174   1540.766     55.408    433.381   1505.541    433.381    468.795    433.381
119.070   1395.731   1389.457      6.274    433.861   1355.544    433.861    467.930    433.861
119.170   1261.000   1258.285      2.715    434.352   1225.618    434.352    467.145    434.352
119.270   1135.618   1145.434     -9.816    434.853   1113.948    434.853    466.438    434.853
119.370   1032.000   1049.003    -17.003    435.364   1018.640    435.364    465.806    435.364
119.470   1043.000    967.095     75.905    435.886    937.796    435.886    465.246    435.886
119.570    907.724    897.875      9.848    436.419    869.587    436.419    464.755    436.419
119.670    804.594    839.626    -35.033    436.963    812.295    436.963    464.330    436.963
119.770    760.203    790.774    -30.571    437.517    764.350    437.517    463.968    437.517
119.870    707.976    749.909    -41.933    438.083    724.345    438.083    463.668    438.083
119.970    715.579    715.794     -0.215    438.659    691.044    438.659    463.425    438.659
120.070    719.098    687.357     31.742    439.247    663.379    439.247    463.239    439.247
120.170    683.000    663.686     19.314    439.846    640.437    439.846    463.106    439.846
120.270    643.000    644.013     -1.013    440.456    621.455    440.456    463.024    440.456
120.370    667.502    627.698     39.804    441.078    605.794    441.078    462.991    441.078
120.470    574.000    614.216    -40.216    441.711    592.930    441.711    463.006    441.711
120.570    568.577    603.134    -34.557    442.356    582.432    442.356    463.066    442.356
120.670    630.163    594.101     36.062    443.012    573.953    443.012    463.170    443.012
120.770    580.000    586.833     -6.833    443.680    567.208    443.680    463.315    443.680
120.870    593.000    581.099     11.901    444.360    561.969    444.360    463.500    444.360
120.970    570.000    576.709     -6.709    445.052    558.048    445.052    463.724    445.052
121.070    606.153    573.483     32.670    445.756    555.266    445.756    463.985    445.756
121.170    542.000    571.354    -29.354    446.473    553.557    446.473    464.282    446.473
121.270    552.000    570.195    -18.195    447.201    552.796    447.201    464.614    447.201
121.370    549.000    569.910    -20.910    447.942    552.888    447.942    464.978    447.942
121.470    561.000    570.418     -9.418    448.695    553.755    448.695    465.375    448.695
121.570    534.000    571.646    -37.646    449.461    555.323    449.461    465.802    449.461
121.670    594.000    573.524     20.476    450.239    557.524    450.239    466.260    450.239
121.770    583.000    575.983      7.017    451.030    560.289    451.030    466.746    451.030
121.870    544.899    578.951    -34.052    451.834    563.549    451.834    467.260    451.834
121.970    565.000    582.355    -17.355    452.651    567.231    452.651    467.801    452.651
122.070    586.454    586.116      0.338    453.480    571.258    453.480    468.367    453.480
122.170    592.000    590.151      1.849    454.323    575.547    454.323    468.959    454.323
122.270    573.405    594.371    -20.966    455.179    580.011    455.179    469.574    455.179
122.370    627.000    598.684     28.316    456.048    584.557    456.048    470.213    456.048
122.470    561.483    602.989    -41.506    456.931    589.087    456.931    470.873    456.931
122.570    634.000    607.186     26.814    457.827    593.500    457.827    471.556    457.827
122.670    657.955    611.169     46.787    458.737    597.693    458.737    472.258    458.737
122.770    604.018    614.835    -10.817    459.660    601.562    459.660    472.981    459.660
122.870    622.000    618.086      3.914    460.597    605.011    460.597    473.722    460.597
122.970    581.000    620.830    -39.830    461.548    607.950    461.548    474.481    461.548
123.070    668.419    622.993     45.427    462.513    610.302    462.513    475.258    462.513
123.170    648.154    624.513     23.641    463.492    612.009    463.492    476.052    463.492
123.270    657.000    625.354     31.646    464.485    613.035    464.485    476.861    464.485
123.370    649.688    625.502     24.186    465.493    613.364    465.493    477.687    465.493
123.470    630.000    624.963      5.037    466.515    613.007    466.515    478.527    466.515
123.570    578.705    623.767    -45.063    467.551    611.992    467.551    479.383    467.551
123.670    642.210    621.960     20.250    468.602    610.364    468.602    480.253    468.602
123.770    619.000    619.599     -0.599    469.667    608.183    469.667    481.137    469.667
123.870    626.000    616.751      9.249    470.748    605.515    470.748    482.035    470.748
123.970    651.000    613.488     37.512    471.843    602.433    471.843    482.948    471.843
124.070    580.000    609.885    -29.885    472.953    599.010    472.953    483.875    472.953
124.170    617.565    606.016     11.549    474.078    595.322    474.078    484.816    474.078
124.270    642.000    601.952     40.048    475.219    591.439    475.219    485.772    475.219
124.370    555.000    597.762    -42.762    476.375    587.431    476.375    486.743    476.375
124.470    557.344    593.509    -36.166    477.546    583.361    477.546    487.729    477.546
124.570    590.000    589.252      0.748    478.733    579.285    478.733    488.731    478.733
124.670    612.246    585.040     27.206    479.935    575.254    479.935    489.749    479.935
124.770    624.000    580.918     43.082    481.153    571.313    481.153    490.783    481.153
124.870    595.000    576.922     18.078    482.387    567.497    482.387    491.834    482.387
124.970    628.000    573.082     54.918    483.637    563.836    483.637    492.903    483.637
