neutron_powder_diffraction_0138
R_wp: 3.881
Temperature (K): 1076.038
Counts: 83369.00
Wavelength (Ã…): 2.52098
COMMENTS
Test file for demonstrating the .xyy file format in Reel1.0
END OF HEADER
   tth       Y_obs     Y_calc      Y_res    Background    Phase_1_Nuc    Phase_1_Mag    Phase_2_Nuc    Phase_2_Mag
  9.970    586.000    569.773     16.227    568.826    569.685    568.826    568.914    568.826
 10.070    574.939    569.985      4.955    568.963    569.896    568.963    569.051    568.963
 10.170    604.000    570.201     33.799    569.093    570.112    569.093    569.181    569.093
 10.270    597.000    570.423     26.577    569.217    570.334    569.217    569.305    569.217
 10.370    586.000    570.655     15.345    569.334    570.566    569.334    569.422    569.334
 10.470    615.000    570.900     44.100    569.444    570.811    569.444    569.533    569.444
 10.570    580.000    571.163      8.837    569.548    571.073    569.548    569.637    569.548
 10.670    583.139    571.450     11.689    569.645    571.360    569.645    569.735    569.645
 10.770    623.000    571.770     51.230    569.736    571.679    569.736    569.827    569.736
 10.870    526.642    572.134    -45.493    569.821    572.043    569.821    569.912    569.821
 10.970    562.000    572.559    -10.559    569.900    572.466    569.900    569.991    569.900
 11.070    558.000    573.066    -15.066    569.972    572.973    569.972    570.064    569.972
 11.170    533.000    573.689    -40.689    570.039    573.595    570.039    570.130    570.039
 11.270    554.000    574.481    -20.481    570.099    574.386    570.099    570.191    570.099
 11.370    570.586    575.537     -4.951    570.153    575.441    570.153    570.246    570.153
 11.470    613.000    577.072     35.928    570.202    576.976    570.202    570.295    570.202
 11.570    595.000    579.633     15.367    570.244    579.535    570.244    570.338    570.244
 11.670    593.000    584.519      8.481    570.281    584.417    570.281    570.375    570.281
 11.770    637.000    594.208     42.792    570.312    594.101    570.312    570.406    570.312
 11.870    578.999    611.985    -32.986    570.337    611.868    570.337    570.432    570.337
 11.970    623.000    639.640    -16.640    570.357    639.508    570.357    570.452    570.357
 12.070    705.643    673.091     32.551    570.371    672.940    570.371    570.466    570.371
 12.170    709.000    698.515     10.485    570.379    698.349    570.379    570.475    570.379
 12.270    684.090    699.250    -15.160    570.382    699.083    570.382    570.478    570.382
 12.370    628.228    674.677    -46.449    570.379    674.523    570.379    570.476    570.379
 12.470    643.696    641.176      2.519    570.372    641.041    570.372    570.469    570.372
 12.570    569.522    613.074    -43.553    570.358    612.954    570.358    570.456    570.358
 12.670    582.000    594.854    -12.854    570.340    594.743    570.340    570.438    570.340
 12.770    585.966    584.877      1.090    570.316    584.770    570.316    570.415    570.316
 12.870    572.000    579.854     -7.854    570.288    579.750    570.288    570.387    570.288
 12.970    545.000    577.239    -32.239    570.254    577.136    570.254    570.353    570.254
 13.070    577.685    575.687      1.998    570.215    575.584    570.215    570.315    570.215
 13.170    584.000    574.629      9.371    570.171    574.526    570.171    570.271    570.171
 13.270    549.000    573.842    -24.842    570.122    573.739    570.122    570.223    570.122
 13.370    607.423    573.228     34.195    570.068    573.125    570.068    570.170    570.068
 13.470    568.000    572.733     -4.733    570.010    572.630    570.010    570.112    570.010
 13.570    574.000    572.324      1.676    569.946    572.220    569.946    570.049    569.946
 13.670    567.459    571.977     -4.518    569.878    571.873    569.878    569.981    569.878
 13.770    570.000    571.677     -1.677    569.806    571.573    569.806    569.909    569.806
 13.870    603.214    571.411     31.803    569.728    571.307    569.728    569.832    569.728
 13.970    606.000    571.173     34.827    569.646    571.068    569.646    569.751    569.646
 14.070    575.070    570.954      4.116    569.560    570.849    569.560    569.665    569.560
 14.170    616.029    570.751     45.278    569.469    570.645    569.469    569.574    569.469
 14.270    608.125    570.559     37.566    569.374    570.452    569.374    569.480    569.374
 14.370    605.257    570.376     34.881    569.274    570.269    569.274    569.380    569.274
 14.470    526.986    570.200    -43.214    569.170    570.092    569.170    569.277    569.170
 14.570    577.471    570.029      7.443    569.062    569.921    569.062    569.169    569.062
 14.670    542.000    569.861    -27.861    568.949    569.753    568.949    569.057    568.949
 14.770    560.442    569.696     -9.254    568.833    569.587    568.833    568.941    568.833
 14.870    566.000    569.532     -3.532    568.712    569.423    568.712    568.821    568.712
 14.970    542.000    569.369    -27.369    568.587    569.259    568.587    568.697    568.587
 15.070    570.000    569.207      0.793    568.458    569.096    568.458    568.568    568.458
 15.170    536.000    569.044    -33.044    568.325    568.933    568.325    568.436    568.325
 15.270    587.000    568.880     18.120    568.188    568.769    568.188    568.300    568.188
 15.370    578.000    568.718      9.282    568.048    568.606    568.048    568.160    568.048
 15.470    574.000    568.553      5.447    567.903    568.440    567.903    568.016    567.903
 15.570    596.000    568.385     27.615    567.755    568.272    567.755    567.868    567.755
 15.670    580.315    568.216     12.099    567.603    568.102    567.603    567.717    567.603
 15.770    592.000    568.044     23.956    567.447    567.930    567.447    567.562    567.447
 15.870    572.736    567.871      4.866    567.288    567.755    567.288    567.403    567.288
 15.970    575.000    567.695      7.305    567.125    567.579    567.125    567.241    567.125
 16.070    568.693    567.517      1.176    566.959    567.401    566.959    567.075    566.959
 16.170    530.000    567.337    -37.337    566.789    567.220    566.789    566.906    566.789
 16.270    555.979    567.155    -11.176    566.615    567.037    566.615    566.733    566.615
 16.370    518.000    566.971    -48.971    566.439    566.852    566.439    566.557    566.439
 16.470    568.000    566.784      1.216    566.258    566.665    566.258    566.378    566.258
 16.570    591.000    566.594     24.406    566.075    566.474    566.075    566.195    566.075
 16.670    556.000    566.402    -10.402    565.888    566.281    565.888    566.009    565.888
 16.770    595.065    566.208     28.858    565.698    566.086    565.698    565.820    565.698
 16.870    578.000    566.010     11.990    565.505    565.888    565.505    565.627    565.505
 16.970    574.000    565.810      8.190    565.309    565.687    565.309    565.432    565.309
 17.070    524.899    565.607    -40.709    565.109    565.483    565.109    565.233    565.109
 17.170    552.000    565.402    -13.402    564.907    565.277    564.907    565.031    564.907
 17.270    574.000    565.194      8.806    564.701    565.069    564.701    564.827    564.701
 17.370    574.000    564.984      9.016    564.493    564.858    564.493    564.619    564.493
 17.470    544.000    564.772    -20.772    564.281    564.645    564.281    564.408    564.281
 17.570    550.162    564.557    -14.395    564.067    564.429    564.067    564.195    564.067
 17.670    521.780    564.339    -42.559    563.850    564.210    563.850    563.979    563.850
 17.770    551.000    564.121    -13.121    563.630    563.991    563.630    563.760    563.630
 17.870    569.000    563.914      5.086    563.407    563.783    563.407    563.538    563.407
 17.970    605.000    563.700     41.300    563.182    563.568    563.182    563.313    563.182
 18.070    540.000    563.474    -23.474    562.954    563.342    562.954    563.086    562.954
 18.170    552.000    563.245    -11.245    562.723    563.112    562.723    562.857    562.723
 18.270    533.788    563.014    -29.226    562.490    562.880    562.490    562.624    562.490
 18.370    526.530    562.781    -36.251    562.254    562.646    562.254    562.389    562.254
 18.470    535.000    562.545    -27.545    562.016    562.409    562.016    562.152    562.016
 18.570    595.000    562.308     32.692    561.775    562.171    561.775    561.912    561.775
 18.670    537.000    562.068    -25.068    561.532    561.930    561.532    561.670    561.532
 18.770    592.000    561.826     30.174    561.286    561.687    561.286    561.425    561.286
 18.870    559.000    561.583     -2.583    561.038    561.442    561.038    561.179    561.038
 18.970    530.000    561.337    -31.337    560.788    561.196    560.788    560.929    560.788
 19.070    565.213    561.089      4.123    560.536    560.947    560.536    560.678    560.536
 19.170    565.000    560.840      4.160    560.281    560.697    560.281    560.424    560.281
 19.270    563.395    560.589      2.806    560.024    560.444    560.024    560.168    560.024
 19.370    563.000    560.336      2.664    559.765    560.190    559.765    559.911    559.765
 19.470    544.000    560.082    -16.082    559.504    559.935    559.504    559.651    559.504
 19.570    540.000    559.825    -19.825    559.240    559.677    559.240    559.388    559.240
 19.670    568.000    559.568      8.432    558.975    559.418    558.975    559.124    558.975
 19.770    555.429    559.308     -3.879    558.708    559.158    558.708    558.858    558.708
 19.870    592.000    559.047     32.953    558.438    558.895    558.438    558.590    558.438
 19.970    558.000    558.785     -0.785    558.167    558.632    558.167    558.320    558.167
 20.070    590.000    558.523     31.477    557.894    558.368    557.894    558.049    557.894
 20.170    561.542    558.272      3.270    557.619    558.116    557.619    557.775    557.619
 20.270    543.000    558.096    -15.096    557.342    557.939    557.342    557.500    557.342
 20.370    522.000    557.849    -35.849    557.064    557.690    557.064    557.223    557.064
 20.470    513.417    557.582    -44.165    556.784    557.422    556.784    556.944    556.784
 20.570    561.000    557.313      3.687    556.502    557.152    556.502    556.663    556.502
 20.670    588.000    557.044     30.956    556.218    556.880    556.218    556.381    556.218
 20.770    580.806    556.773     24.033    555.933    556.608    555.933    556.098    555.933
 20.870    564.000    556.502      7.498    555.646    556.335    555.646    555.812    555.646
 20.970    587.386    556.230     31.156    555.357    556.062    555.357    555.525    555.357
 21.070    562.000    555.957      6.043    555.067    555.788    555.067    555.237    555.067
 21.170    558.000    555.689      2.311    554.776    555.518    554.776    554.947    554.776
 21.270    594.522    555.465     39.058    554.483    555.291    554.483    554.656    554.483
 21.370    556.000    555.211      0.789    554.188    555.036    554.188    554.364    554.188
 21.470    543.000    554.940    -11.940    553.893    554.763    553.893    554.070    553.893
 21.570    554.000    554.668     -0.668    553.595    554.489    553.595    553.775    553.595
 21.670    555.000    554.397      0.603    553.297    554.216    553.297    553.478    553.297
 21.770    559.000    554.127      4.873    552.997    553.943    552.997    553.181    552.997
 21.870    555.000    553.857      1.143    552.696    553.672    552.696    552.882    552.696
 21.970    531.167    553.592    -22.425    552.394    553.404    552.394    552.582    552.394
 22.070    534.000    553.348    -19.348    552.090    553.158    552.090    552.281    552.090
 22.170    541.296    553.110    -11.814    551.786    552.918    551.786    551.979    551.786
 22.270    548.413    552.852     -4.440    551.480    552.658    551.480    551.675    551.480
 22.370    544.000    552.595     -8.595    551.173    552.398    551.173    551.371    551.173
 22.470    535.000    552.343    -17.343    550.865    552.143    550.865    551.066    550.865
 22.570    572.000    552.095     19.905    550.556    551.893    550.556    550.759    550.556
 22.670    560.000    551.854      8.146    550.247    551.649    550.247    550.452    550.247
 22.770    535.000    551.624    -16.624    549.936    551.416    549.936    550.144    549.936
 22.870    518.000    551.400    -33.400    549.624    551.189    549.624    549.836    549.624
 22.970    531.000    551.187    -20.187    549.311    550.973    549.311    549.526    549.311
 23.070    569.000    550.990     18.010    548.997    550.772    548.997    549.216    548.997
 23.170    571.000    550.818     20.182    548.683    550.597    548.683    548.904    548.683
 23.270    525.000    550.662    -25.662    548.368    550.438    548.368    548.593    548.368
 23.370    541.397    550.533     -9.136    548.051    550.305    548.051    548.280    548.051
 23.470    549.000    550.441     -1.441    547.735    550.210    547.735    547.967    547.735
 23.570    525.000    550.399    -25.399    547.417    550.164    547.417    547.654    547.417
 23.670    577.000    550.424     26.576    547.099    550.184    547.099    547.340    547.099
 23.770    593.000    550.540     42.460    546.780    550.296    546.780    547.025    546.780
 23.870    595.708    550.789     44.920    546.460    550.541    546.460    546.710    546.460
 23.970    490.000    551.252    -61.252    546.140    551.000    546.140    546.394    546.140
 24.070    528.000    552.130    -24.130    545.819    551.874    545.819    546.079    545.819
 24.170    587.000    553.907     33.093    545.498    553.648    545.498    545.762    545.498
 24.270    559.000    557.580      1.420    545.176    557.318    545.176    545.446    545.176
 24.370    551.000    564.907    -13.907    544.853    564.644    544.853    545.129    544.853
 24.470    532.990    577.887    -44.897    544.531    577.628    544.531    544.813    544.531
 24.570    615.000    596.984     18.016    544.207    596.733    544.207    544.496    544.207
 24.670    584.220    618.349    -34.129    543.884    618.107    543.884    544.179    543.884
 24.770    590.617    632.061    -41.444    543.559    631.822    543.559    543.862    543.559
 24.870    657.485    628.578     28.907    543.235    628.329    543.235    543.545    543.235
 24.970    594.526    610.528    -16.003    542.910    610.259    542.910    543.228    542.910
 25.070    583.000    588.734     -5.734    542.585    588.441    542.585    542.911    542.585
 25.170    597.000    571.046     25.954    542.260    570.730    542.260    542.595    542.260
 25.270    547.185    559.580    -12.396    541.934    559.247    541.934    542.279    541.934
 25.370    568.576    553.154     15.422    541.608    552.806    541.608    541.963    541.608
 25.470    537.000    549.760    -12.760    541.282    549.399    541.282    541.647    541.282
 25.570    538.000    547.846     -9.846    540.956    547.472    540.956    541.333    540.956
 25.670    549.000    546.618      2.382    540.629    546.231    540.629    541.019    540.629
 25.770    566.000    545.726     20.274    540.303    545.325    540.303    540.705    540.303
 25.870    587.360    545.024     42.336    539.976    544.609    539.976    540.393    539.976
 25.970    537.142    544.453     -7.311    539.649    544.021    539.649    540.081    539.649
 26.070    521.053    543.990    -22.937    539.322    543.542    539.322    539.771    539.322
 26.170    514.000    543.598    -29.598    538.995    543.132    538.995    539.462    538.995
 26.270    564.000    543.262     20.738    538.668    542.777    538.668    539.154    538.668
 26.370    513.000    542.984    -29.984    538.342    542.477    538.342    538.849    538.342
 26.470    592.000    542.763     49.237    538.015    542.233    538.015    538.545    538.015
 26.570    518.000    542.598    -24.598    537.688    542.043    537.688    538.243    537.688
 26.670    539.000    542.494     -3.494    537.361    541.912    537.361    537.943    537.361
 26.770    550.000    542.460      7.540    537.035    541.848    537.035    537.647    537.035
 26.870    579.227    542.494     36.733    536.708    541.849    536.708    537.353    536.708
 26.970    574.000    542.620     31.380    536.382    541.939    536.382    537.064    536.382
 27.070    565.000    542.864     22.136    536.056    542.142    536.056    536.778    536.056
 27.170    535.292    543.260     -7.968    535.730    542.493    535.730    536.497    535.730
 27.270    502.885    543.860    -40.975    535.404    543.041    535.404    536.222    535.404
 27.370    588.000    544.740     43.260    535.079    543.865    535.079    535.953    535.079
 27.470    548.927    546.050      2.877    534.754    545.110    534.754    535.692    534.754
 27.570    574.000    548.178     25.822    534.429    547.165    534.429    535.439    534.429
 27.670    584.000    552.521     31.479    534.104    551.425    534.104    535.197    534.104
 27.770    552.000    563.832    -11.832    533.780    562.638    533.780    534.967    533.780
 27.870    606.000    594.097     11.903    533.456    592.784    533.456    534.752    533.456
 27.970    645.996    661.776    -15.780    533.133    660.316    533.133    534.555    533.133
 28.070    801.320    774.656     26.665    532.810    773.015    532.810    534.381    532.810
 28.170    949.029    900.264     48.765    532.487    898.419    532.487    534.235    532.487
 28.270    920.582    961.852    -41.270    532.165    959.798    532.165    534.126    532.165
 28.370    924.309    909.708     14.601    531.843    907.429    531.843    534.064    531.843
 28.470    846.186    797.514     48.672    531.522    794.947    531.522    534.066    531.522
 28.570    696.108    711.041    -14.933    531.201    708.079    531.201    534.153    531.201
 28.670    675.000    694.036    -19.036    530.881    690.551    530.881    534.352    530.881
 28.770    759.522    740.363     19.159    530.561    736.210    530.561    534.697    530.561
 28.870    842.000    808.955     33.045    530.242    803.957    530.242    535.229    530.242
 28.970    815.000    840.882    -25.882    529.923    834.818    529.923    535.991    529.923
 29.070    750.000    801.897    -51.897    529.605    794.492    529.605    537.024    529.605
 29.170    714.000    721.700     -7.700    529.287    712.648    529.287    538.353    529.287
 29.270    647.000    646.546      0.454    528.971    635.562    528.971    539.963    528.971
 29.370    576.000    597.906    -21.906    528.654    584.812    528.654    541.753    528.654
 29.470    608.942    573.911     35.032    528.339    558.771    528.339    543.479    528.339
 29.570    561.000    564.003     -3.003    528.024    547.288    528.024    544.738    528.024
 29.670    554.000    559.560     -5.560    527.710    542.185    527.710    545.084    527.710
 29.770    520.916    556.379    -35.463    527.397    539.478    527.397    544.295    527.397
 29.870    545.718    553.194     -7.476    527.084    537.738    527.084    542.537    527.084
 29.970    543.000    549.991     -6.991    526.772    536.524    526.772    540.237    526.772
 30.070    590.419    547.051     43.368    526.461    535.695    526.461    537.815    526.461
 30.170    538.000    544.627     -6.627    526.151    535.234    526.151    535.541    526.151
 30.270    498.651    542.968    -44.317    525.841    535.268    525.841    533.538    525.841
 30.370    538.000    542.575     -4.575    525.533    536.273    525.533    531.831    525.533
 30.470    547.000    544.591      2.409    525.225    539.409    525.225    530.400    525.225
 30.570    570.782    550.983     19.798    524.918    546.681    524.918    529.208    524.918
 30.670    528.448    563.706    -35.258    524.612    560.086    524.612    528.209    524.612
 30.770    619.057    582.364     36.693    524.306    579.269    524.306    527.364    524.306
 30.870    572.000    601.384    -29.384    524.002    598.699    524.002    526.637    524.002
 30.970    656.662    609.868     46.794    523.699    607.514    523.699    526.000    523.699
 31.070    623.000    600.704     22.296    523.396    598.627    523.396    525.429    523.396
 31.170    589.000    580.557      8.443    523.095    578.713    523.095    524.910    523.095
 31.270    555.000    560.303     -5.303    522.794    558.652    522.794    524.429    522.794
 31.370    562.000    545.704     16.296    522.495    544.212    522.495    523.978    522.495
 31.470    479.000    537.272    -58.272    522.196    535.912    522.196    523.552    522.196
 31.570    517.360    533.047    -15.687    521.899    531.798    521.899    523.145    521.899
 31.670    529.000    530.985     -1.985    521.602    529.831    521.602    522.754    521.602
 31.770    531.000    529.864      1.136    521.307    528.793    521.307    522.376    521.307
 31.870    513.000    529.153    -16.153    521.012    528.154    521.012    522.010    521.012
 31.970    501.273    528.661    -27.388    520.719    527.725    520.719    521.654    520.719
 32.070    545.000    528.323     16.677    520.427    527.443    520.427    521.306    520.427
 32.170    548.838    528.114     20.724    520.136    527.283    520.136    520.966    520.136
 32.270    499.621    528.027    -28.406    519.846    527.239    519.846    520.632    519.846
 32.370    515.168    528.062    -12.894    519.557    527.314    519.557    520.304    519.557
 32.470    575.000    528.231     46.769    519.269    527.517    519.269    519.982    519.269
 32.570    510.000    528.552    -18.552    518.982    527.869    518.982    519.664    518.982
 32.670    517.249    529.055    -11.806    518.697    528.401    518.697    519.350    518.697
 32.770    506.359    529.784    -23.425    518.413    529.155    518.413    519.041    518.413
 32.870    589.000    530.803     58.197    518.130    530.197    518.130    518.734    518.130
 32.970    522.000    532.207    -10.207    517.848    531.621    517.848    518.432    517.848
 33.070    536.000    534.146      1.854    517.567    533.579    517.567    518.132    517.567
 33.170    543.000    536.902      6.098    517.288    536.352    517.288    517.836    517.288
 33.270    530.581    541.138    -10.557    517.009    540.603    517.009    517.542    517.009
 33.370    580.834    548.570     32.264    516.733    548.048    516.733    517.250    516.733
 33.470    550.781    563.363    -12.582    516.457    562.852    516.457    516.962    516.457
 33.570    572.000    593.774    -21.774    516.183    593.270    516.183    516.675    516.183
 33.670    655.524    651.712      3.812    515.909    651.209    515.909    516.391    515.909
 33.770    738.523    746.644     -8.121    515.638    746.137    515.638    516.110    515.638
 33.870    844.412    873.131    -28.719    515.367    872.619    515.367    515.830    515.367
 33.970   1039.000    997.288     41.712    515.098    996.777    515.098    515.552    515.098
 34.070   1051.871   1057.152     -5.281    514.830   1056.658    514.830    515.277    514.830
 34.170   1046.000   1011.323     34.677    514.564   1010.860    514.564    515.003    514.564
 34.270    900.000    892.719      7.281    514.298    892.285    514.298    514.732    514.298
 34.370    748.000    763.554    -15.554    514.035    763.136    514.035    514.462    514.035
 34.470    634.900    662.420    -27.520    513.772    662.007    513.772    514.194    513.772
 34.570    590.000    598.480     -8.480    513.511    598.069    513.511    513.928    513.511
 34.670    578.000    563.819     14.181    513.252    563.409    513.252    513.664    513.252
 34.770    525.000    546.475    -21.475    512.993    546.067    512.993    513.402    512.993
 34.870    571.000    537.551     33.449    512.737    537.147    512.737    513.141    512.737
 34.970    528.000    532.326     -4.326    512.481    531.925    512.481    512.882    512.481
 35.070    558.000    528.779     29.221    512.227    528.381    512.227    512.625    512.227
 35.170    529.918    526.125      3.793    511.975    525.729    511.975    512.370    511.975
 35.270    490.000    524.035    -34.035    511.724    523.642    511.724    512.117    511.724
 35.370    561.000    522.341     38.659    511.474    521.950    511.474    511.865    511.474
 35.470    521.000    520.939      0.061    511.226    520.550    511.226    511.615    511.226
 35.570    533.000    519.758     13.242    510.979    519.371    510.979    511.367    510.979
 35.670    555.000    518.748     36.252    510.734    518.362    510.734    511.120    510.734
 35.770    466.000    517.873    -51.873    510.490    517.488    510.490    510.875    510.490
 35.870    489.000    517.106    -28.106    510.248    516.722    510.248    510.632    510.248
 35.970    507.000    516.426     -9.426    510.008    516.043    510.008    510.390    510.008
 36.070    580.000    515.820     64.180    509.768    515.438    509.768    510.151    509.768
 36.170    534.000    515.276     18.724    509.531    514.894    509.531    509.913    509.531
 36.270    534.000    514.786     19.214    509.295    514.404    509.295    509.676    509.295
 36.370    546.153    514.344     31.809    509.060    513.962    509.060    509.442    509.060
 36.470    543.051    513.946     29.105    508.827    513.565    508.827    509.209    508.827
 36.570    480.109    513.589    -33.480    508.596    513.208    508.596    508.977    508.596
 36.670    508.000    513.279     -5.279    508.366    512.897    508.366    508.748    508.366
 36.770    496.000    513.026    -17.026    508.138    512.644    508.138    508.520    508.138
 36.870    528.282    512.856     15.426    507.911    512.473    507.911    508.294    507.911
 36.970    494.253    512.830    -18.577    507.686    512.446    507.686    508.070    507.686
 37.070    520.912    513.075      7.837    507.462    512.690    507.462    507.847    507.462
 37.170    512.000    513.802     -1.802    507.240    513.417    507.240    507.626    507.240
 37.270    481.193    515.271    -34.077    507.020    514.884    507.020    507.407    507.020
 37.370    542.964    517.651     25.313    506.801    517.264    506.801    507.190    506.801
 37.470    515.000    520.804     -5.804    506.584    520.416    506.584    506.974    506.584
 37.570    539.000    524.025     14.975    506.368    523.637    506.368    506.760    506.368
 37.670    498.000    526.019    -28.019    506.155    525.631    506.155    506.548    506.155
 37.770    517.000    525.716     -8.716    505.942    525.328    505.942    506.337    505.942
 37.870    541.000    523.386     17.614    505.732    522.998    505.732    506.129    505.732
 37.970    473.000    520.180    -47.180    505.523    519.792    505.523    505.922    505.523
 38.070    510.000    516.996     -6.996    505.315    516.605    505.315    505.717    505.315
 38.170    516.000    514.232      1.768    505.110    513.839    505.110    505.513    505.110
 38.270    489.000    512.061    -23.061    504.906    511.662    504.906    505.312    504.906
 38.370    538.000    510.492     27.508    504.703    510.088    504.703    505.112    504.703
 38.470    524.000    509.414     14.586    504.503    509.006    504.503    504.914    504.503
 38.570    517.275    508.682      8.593    504.304    508.270    504.304    504.718    504.304
 38.670    527.000    508.170     18.830    504.106    507.755    504.106    504.523    504.106
 38.770    507.000    507.787     -0.787    503.911    507.368    503.911    504.330    503.911
 38.870    531.767    507.476     24.291    503.717    507.054    503.717    504.140    503.717
 38.970    482.898    507.206    -24.308    503.524    506.781    503.524    503.951    503.524
 39.070    548.666    506.963     41.703    503.334    506.534    503.334    503.763    503.334
 39.170    483.000    506.738    -23.738    503.145    506.306    503.145    503.578    503.145
 39.270    470.967    506.529    -35.562    502.958    506.093    502.958    503.394    502.958
 39.370    496.281    506.333    -10.051    502.772    505.893    502.772    503.213    502.772
 39.470    544.521    506.148     38.373    502.589    505.704    502.589    503.033    502.589
 39.570    512.069    505.974      6.095    502.406    505.526    502.406    502.855    502.406
 39.670    557.000    505.809     51.191    502.226    505.357    502.226    502.679    502.226
 39.770    532.487    505.654     26.833    502.047    505.198    502.047    502.504    502.047
 39.870    496.765    505.509     -8.744    501.871    505.048    501.871    502.332    501.871
 39.970    466.219    505.373    -39.154    501.695    504.907    501.695    502.161    501.695
 40.070    478.000    505.246    -27.246    501.522    504.776    501.522    501.993    501.522
 40.170    516.464    505.130     11.334    501.350    504.655    501.350    501.826    501.350
 40.270    528.000    505.025     22.975    501.180    504.545    501.180    501.661    501.180
 40.370    485.000    504.932    -19.932    501.012    504.446    501.012    501.498    501.012
 40.470    460.000    504.852    -44.852    500.845    504.361    500.845    501.337    500.845
 40.570    513.000    504.786      8.214    500.681    504.290    500.681    501.177    500.681
 40.670    481.000    504.738    -23.738    500.517    504.236    500.517    501.020    500.517
 40.770    493.441    504.709    -11.267    500.356    504.201    500.356    500.865    500.356
 40.870    491.990    504.702    -12.712    500.197    504.188    500.197    500.711    500.197
 40.970    489.383    504.722    -15.340    500.039    504.202    500.039    500.560    500.039
 41.070    472.000    504.775    -32.775    499.883    504.249    499.883    500.410    499.883
 41.170    467.272    504.868    -37.596    499.728    504.335    499.728    500.263    499.728
 41.270    525.000    505.011     19.989    499.576    504.471    499.576    500.117    499.576
 41.370    499.527    505.217     -5.690    499.425    504.669    499.425    499.973    499.425
 41.470    489.000    505.505    -16.505    499.276    504.951    499.276    499.832    499.276
 41.570    504.230    505.908     -1.679    499.129    505.347    499.129    499.692    499.129
 41.670    460.000    506.485    -46.485    498.983    505.916    498.983    499.555    498.983
 41.770    551.311    507.366     43.946    498.839    506.788    498.839    499.419    498.839
 41.870    514.000    508.843      5.157    498.697    508.258    498.697    499.285    498.697
 41.970    549.126    511.538     37.588    498.557    510.946    498.557    499.154    498.557
 42.070    516.000    516.574     -0.574    498.418    515.975    498.418    499.024    498.418
 42.170    549.000    525.585     23.415    498.281    524.980    498.281    498.897    498.281
 42.270    581.067    540.248     40.819    498.146    539.641    498.146    498.772    498.146
 42.370    506.000    561.203    -55.203    498.013    560.596    498.013    498.649    498.013
 42.470    588.000    586.550      1.450    497.881    585.946    497.881    498.528    497.881
 42.570    560.000    610.533    -50.533    497.752    609.932    497.752    498.409    497.752
 42.670    616.000    624.031     -8.031    497.624    623.428    497.624    498.292    497.624
 42.770    596.000    620.185    -24.185    497.497    619.571    497.497    498.177    497.497
 42.870    573.000    601.174    -28.174    497.373    600.540    497.373    498.065    497.373
 42.970    550.000    575.654    -25.654    497.250    574.994    497.250    497.955    497.250
 43.070    567.508    551.560     15.948    497.129    550.873    497.129    497.847    497.129
 43.170    492.000    532.973    -40.973    497.010    532.261    497.010    497.742    497.010
 43.270    520.000    520.596     -0.596    496.892    519.862    496.892    497.638    496.892
 43.370    509.000    513.224     -4.224    496.777    512.471    496.777    497.537    496.777
 43.470    465.000    509.121    -44.121    496.663    508.350    496.663    497.439    496.663
 43.570    537.573    506.849     30.725    496.550    506.060    496.550    497.343    496.550
 43.670    519.000    505.503     13.497    496.440    504.697    496.440    497.249    496.440
 43.770    506.000    504.617      1.383    496.331    503.792    496.331    497.158    496.331
 43.870    510.000    503.974      6.026    496.224    503.130    496.224    497.069    496.224
 43.970    496.000    503.479     -7.479    496.119    502.616    496.119    496.983    496.119
 44.070    497.000    503.088     -6.088    496.015    502.204    496.015    496.900    496.015
 44.170    490.845    502.773    -11.927    495.913    501.868    495.913    496.819    495.913
 44.270    504.015    502.519      1.496    495.813    501.591    495.813    496.741    495.813
 44.370    461.850    502.313    -40.463    495.715    501.363    495.715    496.666    495.715
 44.470    521.397    502.149     19.248    495.618    501.173    495.618    496.594    495.618
 44.570    483.000    502.018    -19.018    495.523    501.017    495.523    496.525    495.523
 44.670    484.000    501.917    -17.917    495.430    500.889    495.430    496.459    495.430
 44.770    500.112    501.843     -1.731    495.339    500.785    495.339    496.397    495.339
 44.870    522.260    501.792     20.468    495.249    500.704    495.249    496.337    495.249
 44.970    497.000    501.763     -4.763    495.161    500.643    495.161    496.281    495.161
 45.070    505.000    501.755      3.245    495.075    500.601    495.075    496.229    495.075
 45.170    497.930    501.767     -3.837    494.990    500.577    494.990    496.180    494.990
 45.270    495.000    501.799     -6.799    494.908    500.571    494.908    496.136    494.908
 45.370    502.000    501.850      0.150    494.827    500.582    494.827    496.095    494.827
 45.470    535.000    501.922     33.078    494.747    500.610    494.747    496.059    494.747
 45.570    504.000    502.015      1.985    494.669    500.657    494.669    496.028    494.669
 45.670    513.000    502.130     10.870    494.593    500.722    494.593    496.001    494.593
 45.770    505.398    502.269      3.129    494.519    500.808    494.519    495.980    494.519
 45.870    511.000    502.434      8.566    494.447    500.916    494.447    495.964    494.447
 45.970    486.000    502.628    -16.628    494.376    501.049    494.376    495.954    494.376
 46.070    520.563    502.853     17.710    494.306    501.208    494.306    495.951    494.306
 46.170    544.000    503.114     40.886    494.239    501.398    494.239    495.954    494.239
 46.270    514.000    503.417     10.583    494.173    501.625    494.173    495.965    494.173
 46.370    518.031    503.769     14.262    494.109    501.893    494.109    495.984    494.109
 46.470    525.000    504.178     20.822    494.046    502.211    494.046    496.012    494.046
 46.570    463.576    504.659    -41.083    493.985    502.593    493.985    496.050    493.985
 46.670    537.718    505.229     32.488    493.926    503.055    493.926    496.099    493.926
 46.770    496.000    505.926     -9.926    493.869    503.633    493.869    496.160    493.869
 46.870    517.000    506.821     10.179    493.813    504.397    493.813    496.235    493.813
 46.970    510.000    508.065      1.935    493.758    505.496    493.758    496.325    493.758
 47.070    511.000    509.959      1.041    493.706    507.229    493.706    496.432    493.706
 47.170    518.000    513.037      4.963    493.655    510.127    493.655    496.559    493.655
 47.270    518.297    518.087      0.210    493.606    514.975    493.606    496.708    493.606
 47.370    561.591    526.014     35.576    493.558    522.673    493.558    496.884    493.558
 47.470    537.000    537.445     -0.445    493.512    533.844    493.512    497.090    493.512
 47.570    580.000    552.130     27.870    493.467    548.232    493.467    497.332    493.467
 47.670    578.919    568.306     10.613    493.424    564.069    493.424    497.617    493.424
 47.770    581.000    582.341     -1.341    493.383    577.716    493.383    497.954    493.383
 47.870    619.000    589.408     29.592    493.344    584.338    493.344    498.358    493.344
 47.970    599.000    586.701     12.299    493.306    581.111    493.306    498.844    493.306
 48.070    582.000    576.213      5.787    493.269    570.002    493.269    499.438    493.269
 48.170    529.346    562.675    -33.329    493.234    555.704    493.234    500.174    493.234
 48.270    542.000    550.177     -8.177    493.201    542.259    493.201    501.097    493.201
 48.370    520.000    540.990    -20.990    493.169    531.875    493.169    502.270    493.169
 48.470    542.000    535.783      6.217    493.139    525.141    493.139    503.771    493.139
 48.570    545.000    534.227     10.773    493.111    521.637    493.111    505.694    493.111
 48.670    548.211    535.619     12.591    493.084    520.550    493.084    508.148    493.084
 48.770    505.041    539.326    -34.286    493.058    521.135    493.058    511.245    493.058
 48.870    507.199    544.973    -37.774    493.035    522.915    493.035    515.087    493.035
 48.970    557.461    552.453      5.007    493.012    525.718    493.012    519.743    493.012
 49.070    534.000    561.911    -27.911    492.992    529.689    492.992    525.207    492.992
 49.170    593.000    573.874     19.126    492.972    535.495    492.972    531.345    492.972
 49.270    629.928    589.851     40.077    492.955    544.998    492.955    537.798    492.955
 49.370    606.000    613.808     -7.808    492.938    562.834    492.938    543.898    492.938
 49.470    686.393    654.852     31.541    492.924    599.087    492.924    548.663    492.924
 49.570    744.000    730.352     13.648    492.910    672.172    492.910    551.046    492.910
 49.670    892.264    866.384     25.880    492.899    808.782    492.899    550.424    492.899
 49.770   1117.000   1090.361     26.639    492.889   1036.157    492.889    546.976    492.889
 49.870   1451.000   1413.109     37.891    492.880   1364.278    492.880    541.558    492.880
 49.970   1864.012   1806.028     57.985    492.873   1763.505    492.873    535.232    492.873
 50.070   2207.000   2187.645     19.355    492.867   2151.526    492.867    528.861    492.867
 50.170   2516.375   2437.568     78.807    492.863   2407.420    492.863    522.977    492.863
 50.270   2419.000   2453.759    -34.759    492.860   2428.862    492.860    517.840    492.860
 50.370   2204.000   2227.253    -23.253    492.858   2206.759    492.858    513.523    492.858
 50.470   1780.000   1850.971    -70.971    492.859   1834.032    492.859    509.997    492.859
 50.570   1429.952   1449.049    -19.097    492.860   1434.912    492.860    507.179    492.860
 50.670   1063.000   1112.055    -49.055    492.863   1100.100    492.863    504.958    492.863
 50.770    812.000    877.086    -65.086    492.867    866.826    492.867    503.225    492.867
 50.870    721.000    737.712    -16.712    492.873    728.778    492.873    501.874    492.873
 50.970    640.000    665.826    -25.826    492.880    657.937    492.880    500.818    492.880
 51.070    617.319    631.077    -13.757    492.889    624.020    492.889    499.986    492.889
 51.170    596.000    611.416    -15.416    492.899    605.028    492.899    499.322    492.899
 51.270    611.000    595.625     15.375    492.910    589.780    492.910    498.785    492.910
 51.370    638.000    580.587     57.413    492.923    575.187    492.923    498.346    492.923
 51.470    566.000    566.778     -0.778    492.937    561.750    492.937    497.983    492.937
 51.570    578.000    555.242     22.758    492.952    550.526    492.952    497.681    492.952
 51.670    553.000    546.526      6.474    492.969    542.076    492.969    497.428    492.969
 51.770    578.000    540.586     37.414    492.987    536.364    492.987    497.216    492.987
 51.870    530.000    536.995     -6.995    493.007    532.969    493.007    497.038    493.007
 51.970    530.000    535.218     -5.218    493.028    531.359    493.028    496.890    493.028
 52.070    560.000    534.804     25.196    493.050    531.090    493.050    496.767    493.050
 52.170    548.000    535.498     12.502    493.073    531.907    493.073    496.667    493.073
 52.270    515.219    537.279    -22.060    493.098    533.793    493.098    496.586    493.098
 52.370    590.000    540.441     49.559    493.124    537.044    493.124    496.524    493.124
 52.470    525.000    545.770    -20.770    493.152    542.446    493.152    496.477    493.152
 52.570    597.876    554.881     42.995    493.180    551.618    493.180    496.445    493.180
 52.670    551.407    570.657    -19.250    493.210    567.443    493.210    496.426    493.210
 52.770    563.812    597.542    -33.730    493.241    594.364    493.241    496.419    493.241
 52.870    593.000    641.240    -48.240    493.274    638.090    493.274    496.423    493.274
 52.970    746.000    707.329     38.671    493.307    704.196    493.307    496.438    493.307
 53.070    831.533    798.607     32.925    493.342    795.485    493.342    496.464    493.342
 53.170    917.000    911.686      5.314    493.379    908.568    493.379    496.499    493.379
 53.270   1036.000   1033.741      2.259    493.416   1030.622    493.416    496.543    493.416
 53.370   1156.000   1140.831     15.169    493.454   1137.706    493.454    496.596    493.454
 53.470   1266.767   1201.990     64.777    493.494   1198.856    493.494    496.658    493.494
 53.570   1244.139   1194.773     49.366    493.535   1191.620    493.535    496.728    493.535
 53.670   1164.762   1122.369     42.393    493.577   1119.185    493.577    496.807    493.577
 53.770   1042.000   1010.653     31.347    493.621   1007.424    493.621    496.895    493.621
 53.870    889.000    889.762     -0.762    493.665    886.474    493.665    496.991    493.665
 53.970    739.982    781.321    -41.339    493.711    777.965    493.711    497.096    493.711
 54.070    740.000    695.999     44.001    493.758    692.567    493.758    497.210    493.758
 54.170    660.000    635.643     24.357    493.806    632.129    493.806    497.334    493.806
 54.270    596.000    596.640     -0.640    493.855    593.037    493.855    497.467    493.855
 54.370    619.239    573.236     46.004    493.905    569.537    493.905    497.610    493.905
 54.470    555.000    559.931     -4.931    493.956    556.128    493.956    497.763    493.956
 54.570    563.000    552.619     10.381    494.009    548.703    494.009    497.927    494.009
 54.670    558.000    548.706      9.294    494.062    544.667    494.062    498.103    494.062
 54.770    577.000    546.760     30.240    494.117    542.587    494.117    498.292    494.117
 54.870    527.049    546.072    -19.023    494.172    541.753    494.172    498.493    494.172
 54.970    579.698    546.320     33.378    494.229    541.842    494.229    498.709    494.229
 55.070    585.000    547.377     37.623    494.287    542.726    494.287    498.940    494.287
 55.170    568.000    549.218     18.782    494.346    544.377    494.346    499.187    494.346
 55.270    582.142    551.881     30.261    494.405    546.835    494.405    499.453    494.405
 55.370    554.072    555.469     -1.397    494.466    550.198    494.466    499.738    494.466
 55.470    570.000    560.183      9.817    494.528    554.667    494.528    500.045    494.528
 55.570    605.000    566.416     38.584    494.591    560.632    494.591    500.376    494.591
 55.670    562.157    574.985    -12.829    494.655    568.908    494.655    500.732    494.655
 55.770    588.000    587.602      0.398    494.720    581.204    494.720    501.118    494.720
 55.870    648.463    607.715     40.748    494.785    600.963    494.785    501.536    494.785
 55.970    635.000    641.711     -6.711    494.852    634.567    494.852    501.991    494.852
 56.070    713.000    700.113     12.887    494.920    692.536    494.920    502.486    494.920
 56.170    828.354    797.847     30.507    494.989    789.789    494.989    503.026    494.989
 56.270    995.906    952.160     43.746    495.058    943.567    495.058    503.619    495.058
 56.370   1192.169   1177.104     15.065    495.129   1167.918    495.129    504.272    495.129
 56.470   1480.000   1474.949      5.051    495.200   1465.110    495.200    504.992    495.200
 56.570   1851.233   1826.918     24.315    495.273   1816.361    495.273    505.790    495.273
 56.670   2250.000   2186.612     63.388    495.346   2175.268    495.346    506.680    495.346
 56.770   2476.000   2480.375     -4.375    495.420   2468.164    495.420    507.678    495.420
 56.870   2553.504   2624.922    -71.418    495.495   2611.737    495.495    508.806    495.495
 56.970   2513.000   2570.913    -57.913    495.571   2556.597    495.571    510.091    495.571
 57.070   2282.534   2339.328    -56.794    495.648   2323.656    495.648    511.571    495.648
 57.170   2072.980   2004.093     68.888    495.725   1986.776    495.725    513.300    495.725
 57.270   1657.000   1646.200     10.800    495.803   1626.884    495.803    515.351    495.803
 57.370   1271.000   1325.069    -54.069    495.883   1303.317    495.883    517.820    495.883
 57.470   1038.000   1071.739    -33.739    495.963   1046.995    495.963    520.842    495.963
 57.570    902.000    892.840      9.160    496.043    864.385    496.043    524.588    496.043
 57.670    823.190    779.146     44.043    496.125    746.052    496.125    529.275    496.125
 57.770    728.056    714.982     13.074    496.207    676.058    496.207    535.162    496.207
 57.870    691.000    685.462      5.538    496.291    639.223    496.291    542.543    496.291
 57.970    636.438    680.234    -43.796    496.374    624.880    496.374    551.729    496.374
 58.070    676.000    694.184    -18.184    496.459    627.612    496.459    563.021    496.459
 58.170    725.000    726.253     -1.253    496.544    646.112    496.544    576.665    496.544
 58.270    811.000    777.439     33.561    496.630    681.240    496.630    592.798    496.630
 58.370    798.000    848.613    -50.613    496.717    733.925    496.717    611.364    496.717
 58.470    945.000    938.531      6.469    496.805    803.293    496.805    631.994    496.805
 58.570    980.480   1042.303    -61.823    496.893    885.319    496.893    653.825    496.893
 58.670   1136.000   1150.869    -14.869    496.982    972.507    496.982    675.297    496.982
 58.770   1219.000   1252.504    -33.504    497.071   1055.505    497.071    694.035    497.071
 58.870   1299.000   1335.850    -36.850    497.161   1125.865    497.161    707.128    497.161
 58.970   1393.000   1391.406      1.594    497.252   1176.658    497.252    712.001    497.252
 59.070   1443.000   1411.418     31.582    497.344   1201.197    497.344    707.585    497.344
 59.170   1419.000   1392.773     26.227    497.436   1195.347    497.436    694.895    497.436
 59.270   1371.502   1341.805     29.697    497.528   1162.889    497.528    676.480    497.528
 59.370   1248.748   1273.620    -24.872    497.622   1116.012    497.622    655.253    497.622
 59.470   1208.647   1205.775      2.872    497.716   1069.882    497.716    633.607    497.716
 59.570   1193.000   1154.057     38.943    497.810   1038.701    497.810    613.128    497.810
 59.670   1265.000   1132.346    132.654    497.905   1035.473    497.905    594.695    497.905
 59.770   1213.000   1151.231     61.769    498.001   1070.408    498.001    578.691    498.001
 59.870   1272.000   1213.512     58.488    498.097   1146.243    498.097    565.179    498.097
 59.970   1366.000   1309.960     56.040    498.193   1253.890    498.193    554.027    498.193
 60.070   1476.000   1418.269     57.731    498.291   1371.295    498.291    544.992    498.291
 60.170   1609.000   1505.738    103.262    498.388   1466.067    498.388    537.776    498.388
 60.270   1603.000   1538.035     64.965    498.486   1504.191    498.486    532.070    498.486
 60.370   1505.000   1495.449      9.551    498.585   1466.244    498.585    527.580    498.585
 60.470   1400.000   1384.852     15.148    498.684   1359.340    498.684    524.048    498.684
 60.570   1241.000   1233.253      7.747    498.784   1210.686    498.784    521.259    498.784
 60.670   1054.000   1071.814    -17.814    498.884   1051.606    498.884    519.042    498.884
 60.770    921.224    925.026     -3.803    498.984    906.720    498.984    517.268    498.984
 60.870    838.741    807.079     31.663    499.085    790.315    499.085    515.840    499.085
 60.970    728.000    722.513      5.487    499.187    707.007    499.187    514.687    499.187
 61.070    700.000    669.277     30.723    499.289    654.799    499.289    513.759    499.289
 61.170    645.254    642.688      2.566    499.391    629.048    499.391    513.018    499.391
 61.270    685.000    638.838     46.162    499.493    625.877    499.493    512.433    499.493
 61.370    702.000    656.524     45.476    499.596    644.110    499.596    511.977    499.596
 61.470    681.031    697.419    -16.388    499.699    685.444    499.699    511.623    499.699
 61.570    795.000    764.609     30.391    499.803    753.000    499.803    511.339    499.803
 61.670    862.194    859.947      2.247    499.907    848.665    499.907    511.088    499.907
 61.770    951.000    980.902    -29.902    500.011    969.954    500.011    510.829    500.011
 61.870   1083.000   1117.876    -34.876    500.116   1107.308    500.116    510.528    500.116
 61.970   1160.000   1252.880    -92.880    500.221   1242.765    500.221    510.165    500.221
 62.070   1368.985   1360.664      8.321    500.326   1351.079    500.326    509.742    500.326
 62.170   1377.000   1414.654    -37.654    500.432   1405.661    500.432    509.279    500.432
 62.270   1329.000   1398.904    -69.904    500.537   1390.532    500.537    508.803    500.537
 62.370   1360.662   1317.953     42.710    500.643   1310.193    500.643    508.338    500.643
 62.470   1178.000   1193.590    -15.590    500.750   1186.406    500.750    507.904    500.750
 62.570   1002.020   1052.737    -50.717    500.856   1046.077    500.856    507.512    500.856
 62.670    823.000    917.901    -94.901    500.963    911.708    500.963    507.165    500.963
 62.770    741.000    803.434    -62.434    501.070    797.652    501.070    506.865    501.070
 62.870    707.000    715.407     -8.407    501.177    709.985    501.177    506.610    501.177
 62.970    648.000    653.369     -5.369    501.284    648.264    501.284    506.397    501.284
 63.070    659.701    612.981     46.720    501.392    608.155    501.392    506.221    501.392
 63.170    577.397    588.588    -11.191    501.499    584.008    501.499    506.079    501.499
 63.270    587.379    575.057     12.321    501.607    570.695    501.607    505.966    501.607
 63.370    584.000    568.696     15.304    501.715    564.527    501.715    505.878    501.715
 63.470    563.000    567.467     -4.467    501.823    563.471    501.823    505.812    501.823
 63.570    602.811    570.846     31.965    501.931    567.003    501.931    505.763    501.931
 63.670    546.344    579.551    -33.207    502.040    575.846    502.040    505.730    502.040
 63.770    602.956    595.241      7.715    502.148    591.657    502.148    505.710    502.148
 63.870    637.000    620.093     16.907    502.257    616.617    502.257    505.701    502.257
 63.970    691.000    656.188     34.812    502.365    652.806    502.365    505.702    502.365
 64.070    731.129    704.669     26.460    502.474    701.369    502.474    505.712    502.474
 64.170    733.000    764.779    -31.779    502.582    761.550    502.582    505.729    502.582
 64.270    863.000    832.981     30.019    502.691    829.817    502.691    505.754    502.691
 64.370    851.727    902.376    -50.648    502.800    899.274    502.800    505.785    502.800
 64.470    939.000    962.923    -23.923    502.909    959.885    502.909    505.822    502.909
 64.570   1011.115   1003.560      7.555    503.017   1000.591    503.017    505.864    503.017
 64.670   1041.000   1016.534     24.466    503.126   1013.641    503.126    505.912    503.126
 64.770    983.000   1000.876    -17.876    503.235    998.061    503.235    505.964    503.235
 64.870   1016.957    961.856     55.101    503.343    959.120    503.343    506.020    503.343
 64.970    975.000    908.130     66.870    503.452    905.468    503.452    506.081    503.452
 65.070    803.929    848.925    -44.997    503.561    846.330    503.561    506.145    503.561
 65.170    803.977    791.687     12.289    503.669    789.150    503.669    506.213    503.669
 65.270    684.000    740.790    -56.790    503.778    738.302    503.778    506.284    503.778
 65.370    714.000    697.765     16.235    503.886    695.316    503.886    506.359    503.886
 65.470    638.000    662.497    -24.497    503.994    660.079    503.994    506.437    503.994
 65.570    599.000    634.311    -35.311    504.102    631.918    504.102    506.517    504.102
 65.670    591.367    612.386    -21.019    504.210    610.013    504.210    506.601    504.210
 65.770    572.000    595.805    -23.805    504.318    593.448    504.318    506.687    504.318
 65.870    614.000    583.646     30.354    504.426    581.304    504.426    506.776    504.426
 65.970    593.966    575.088     18.878    504.533    572.758    504.533    506.868    504.533
 66.070    565.000    569.454     -4.454    504.641    567.135    504.641    506.962    504.641
 66.170    604.414    566.209     38.205    504.748    563.900    504.748    507.058    504.748
 66.270    569.000    564.941      4.059    504.855    562.639    504.855    507.157    504.855
 66.370    539.657    565.361    -25.704    504.962    563.065    504.962    507.258    504.962
 66.470    580.000    567.343     12.657    505.068    565.050    505.068    507.362    505.068
 66.570    578.113    570.995      7.118    505.174    568.703    505.174    507.468    505.174
 66.670    597.000    576.789     20.211    505.281    574.495    505.281    507.577    505.281
 66.770    618.865    585.786     33.080    505.386    583.486    505.386    507.687    505.386
 66.870    574.000    599.961    -25.961    505.492    597.653    505.492    507.801    505.492
 66.970    668.078    622.629     45.449    505.597    620.310    505.597    507.916    505.597
 67.070    665.000    658.831      6.169    505.702    656.496    505.702    508.035    505.702
 67.170    712.560    715.468     -2.908    505.807    713.113    505.807    508.155    505.807
 67.270    818.544    800.855     17.689    505.911    798.477    505.911    508.279    505.911
 67.370    918.000    923.372     -5.372    506.015    920.971    506.015    508.405    506.015
 67.470   1031.346   1089.126    -57.779    506.119   1086.700    506.119    508.534    506.119
 67.570   1357.029   1298.887     58.143    506.223   1296.441    506.223    508.666    506.223
 67.670   1543.000   1545.005     -2.005    506.326   1542.547    506.326    508.801    506.326
 67.770   1782.000   1809.117    -27.117    506.428   1806.656    506.428    508.940    506.428
 67.870   2137.000   2061.425     75.575    506.531   2058.973    506.531    509.082    506.531
 67.970   2297.000   2262.919     34.081    506.632   2260.485    506.632    509.227    506.632
 68.070   2419.026   2373.498     45.528    506.734   2371.083    506.734    509.377    506.734
 68.170   2298.000   2367.163    -69.163    506.835   2364.755    506.835    509.531    506.835
 68.270   2290.453   2245.610     44.843    506.936   2243.179    506.936    509.689    506.936
 68.370   1957.000   2037.185    -80.185    507.036   2034.696    507.036    509.852    507.036
 68.470   1776.708   1782.418     -5.710    507.136   1779.838    507.136    510.021    507.136
 68.570   1450.243   1519.533    -69.290    507.235   1516.838    507.235    510.195    507.235
 68.670   1246.000   1277.127    -31.127    507.334   1274.302    507.334    510.375    507.334
 68.770   1109.420   1072.351     37.070    507.432   1069.387    507.432    510.562    507.432
 68.870    902.000    911.826     -9.826    507.530    908.721    507.530    510.757    507.530
 68.970    755.000    794.063    -39.063    507.628    790.816    507.628    510.959    507.628
 69.070    781.000    712.583     68.417    507.725    709.194    507.725    511.170    507.725
 69.170    622.000    658.922    -36.922    507.821    655.390    507.821    511.391    507.821
 69.270    597.350    624.871    -27.522    507.917    621.190    507.917    511.623    507.917
 69.370    611.000    603.708      7.292    508.012    599.870    508.012    511.867    508.012
 69.470    599.000    590.567      8.433    508.107    586.562    508.107    512.123    508.107
 69.570    602.000    582.257     19.743    508.201    578.071    508.201    512.395    508.201
 69.670    582.000    576.852      5.148    508.295    572.470    508.295    512.683    508.295
 69.770    599.000    573.265     25.735    508.388    568.668    508.388    512.989    508.388
 69.870    535.000    570.916    -35.916    508.480    566.083    508.480    513.317    508.480
 69.970    543.425    569.512    -26.087    508.572    564.418    508.572    513.667    508.572
 70.070    568.000    568.915     -0.915    508.663    563.534    508.663    514.045    508.663
 70.170    588.515    569.088     19.427    508.753    563.389    508.753    514.453    508.753
 70.270    603.972    570.075     33.898    508.843    564.022    508.843    514.895    508.843
 70.370    558.000    572.024    -14.024    508.933    565.575    508.933    515.379    508.933
 70.470    615.745    575.250     40.495    509.021    568.357    509.021    515.911    509.021
 70.570    538.432    580.341    -41.909    509.109    572.945    509.109    516.500    509.109
 70.670    568.000    588.324    -20.324    509.196    580.353    509.196    517.159    509.196
 70.770    570.000    600.869    -30.869    509.283    592.233    509.283    517.905    509.283
 70.870    599.000    620.511    -21.511    509.369    611.096    509.369    518.764    509.369
 70.970    659.000    650.786      8.214    509.454    640.442    509.454    519.767    509.454
 71.070    649.190    696.167    -46.977    509.538    684.698    509.538    520.963    509.538
 71.170    721.000    761.642    -40.642    509.622    748.784    509.622    522.416    509.622
 71.270    848.000    851.829     -3.829    509.705    837.235    509.705    524.212    509.705
 71.370   1033.000    969.654     63.346    509.787    952.864    509.787    526.463    509.787
 71.470   1118.645   1114.776      3.869    509.868   1095.191    509.868    529.310    509.868
 71.570   1318.438   1282.092     36.347    509.949   1258.950    509.949    532.920    509.949
 71.670   1447.000   1460.688    -13.688    510.029   1433.042    510.029    537.484    510.029
 71.770   1624.000   1633.552     -9.552    510.108   1600.258    510.108    543.201    510.108
 71.870   1795.857   1778.619     17.237    510.186   1738.346    510.186    550.263    510.186
 71.970   1862.000   1872.487    -10.487    510.264   1823.748    510.264    558.827    510.264
 72.070   1818.025   1897.728    -79.703    510.340   1838.942    510.340    568.984    510.340
 72.170   1881.000   1850.834     30.166    510.416   1780.426    510.416    580.720    510.416
 72.270   1700.535   1744.120    -43.585    510.491   1660.671    510.491    593.870    510.491
 72.370   1608.000   1599.465      8.535    510.565   1501.921    510.565    608.067    510.565
 72.470   1465.000   1439.771     25.229    510.638   1327.717    510.638    622.670    510.638
 72.570   1271.000   1283.577    -12.577    510.710   1157.576    510.710    636.702    510.710
 72.670   1117.423   1143.149    -25.726    510.782   1005.081    510.782    648.846    510.782
 72.770   1012.000   1024.487    -12.487    510.852    877.746    510.852    657.591    510.852
 72.870    889.000    928.489    -39.489    510.922    777.813    510.922    661.595    510.922
 72.970    810.000    852.797    -42.797    510.991    703.610    510.991    660.174    510.991
 73.070    774.000    793.674    -19.674    511.059    651.128    511.059    653.599    511.059
 73.170    701.000    747.340    -46.340    511.125    615.490    511.125    642.969    511.125
 73.270    726.000    710.607     15.393    511.191    592.023    511.191    629.770    511.191
 73.370    654.000    681.047    -27.047    511.256    576.867    511.256    615.432    511.256
 73.470    659.000    656.945      2.055    511.320    567.172    511.320    601.090    511.320
 73.570    661.650    637.182     24.469    511.383    561.031    511.383    587.533    511.383
 73.670    619.152    621.068     -1.916    511.445    557.267    511.445    575.247    511.445
 73.770    572.000    608.184    -36.184    511.506    555.212    511.506    564.484    511.506
 73.870    633.000    598.237     34.763    511.567    554.491    511.567    555.322    511.567
 73.970    544.000    590.947    -46.947    511.626    554.874    511.626    547.712    511.626
 74.070    543.498    585.981    -42.483    511.684    556.158    511.684    541.525    511.684
 74.170    592.000    582.916      9.084    511.741    558.100    511.741    536.582    511.741
 74.270    635.000    581.230     53.770    511.797    560.375    511.797    532.683    511.797
 74.370    526.000    580.310    -54.310    511.852    562.566    511.852    529.633    511.852
 74.470    549.342    579.495    -30.153    511.906    564.190    511.906    527.253    511.906
 74.570    608.000    578.173     29.827    511.958    564.787    511.958    525.389    511.958
 74.670    566.678    575.935     -9.256    512.010    564.074    512.010    523.916    512.010
 74.770    595.000    572.704     22.296    512.061    562.071    512.061    522.737    512.061
 74.870    613.184    568.729     44.455    512.110    559.101    512.110    521.777    512.110
 74.970    624.000    564.458     59.542    512.159    555.668    512.159    520.983    512.159
 75.070    584.000    560.404     23.596    512.206    552.324    512.206    520.313    512.206
 75.170    609.000    557.072     51.928    512.253    549.604    512.253    519.741    512.253
 75.270    596.000    554.949     41.051    512.298    548.014    512.298    519.246    512.298
 75.370    608.000    554.516     53.484    512.342    548.052    512.342    518.814    512.342
 75.470    600.300    556.267     44.032    512.385    550.221    512.385    518.432    512.385
 75.570    558.287    560.699     -2.412    512.427    555.027    512.427    518.094    512.427
 75.670    547.000    568.280    -21.280    512.467    562.944    512.467    517.793    512.467
 75.770    585.000    579.368      5.632    512.507    574.334    512.507    517.524    512.507
 75.870    631.000    594.090     36.910    512.545    589.327    512.545    517.282    512.545
 75.970    692.000    612.198     79.802    512.582    607.682    512.582    517.065    512.582
 76.070    644.000    632.948     11.052    512.618    628.656    512.618    516.868    512.618
 76.170    681.000    655.001     25.999    512.653    650.913    512.653    516.690    512.653
 76.270    682.000    676.406      5.594    512.686    672.506    512.686    516.529    512.686
 76.370    706.000    694.679     11.321    512.718    690.954    512.718    516.383    512.718
 76.470    671.000    707.109    -36.109    512.750    703.546    512.750    516.249    512.750
 76.570    696.000    711.433    -15.433    512.779    708.025    512.779    516.127    512.779
 76.670    668.740    706.724    -37.984    512.808    703.462    512.808    516.015    512.808
 76.770    699.661    693.838      5.823    512.836    690.714    512.836    515.913    512.836
 76.870    657.609    674.990    -17.382    512.862    671.995    512.862    515.818    512.862
 76.970    647.000    652.870     -5.870    512.887    649.995    512.887    515.731    512.887
 77.070    598.517    629.951    -31.434    512.910    627.188    512.910    515.651    512.910
 77.170    591.538    608.173    -16.635    512.933    605.513    512.933    515.577    512.933
 77.270    603.000    588.845     14.155    512.954    586.280    512.954    515.507    512.954
 77.370    545.000    572.665    -27.665    512.974    570.188    512.974    515.443    512.974
 77.470    541.000    559.810    -18.810    512.992    557.415    512.992    515.383    512.992
 77.570    552.000    550.065      1.935    513.009    547.744    513.009    515.326    513.009
 77.670    542.000    542.976     -0.976    513.025    540.725    513.025    515.274    513.025
 77.770    550.778    537.994     12.784    513.040    535.808    513.040    515.224    513.040
 77.870    516.000    534.583    -18.583    513.053    532.458    513.053    515.177    513.053
 77.970    525.651    532.281     -6.631    513.065    530.213    513.065    515.132    513.065
 78.070    488.814    530.731    -41.916    513.076    528.716    513.076    515.090    513.076
 78.170    522.000    529.675     -7.675    513.085    527.710    513.085    515.049    513.085
 78.270    549.119    528.941     20.178    513.093    527.022    513.093    515.011    513.093
 78.370    570.456    528.406     42.051    513.100    526.530    513.100    514.974    513.100
 78.470    512.212    528.023    -15.810    513.105    526.188    513.105    514.939    513.105
 78.570    518.000    527.791     -9.791    513.109    525.993    513.109    514.906    513.109
 78.670    506.000    527.679    -21.679    513.112    525.916    513.112    514.874    513.112
 78.770    531.000    527.691      3.309    513.113    525.959    513.113    514.844    513.113
 78.870    522.831    527.840     -5.009    513.113    526.137    513.113    514.815    513.113
 78.970    492.000    528.148    -36.148    513.111    526.470    513.111    514.788    513.111
 79.070    559.000    528.640     30.360    513.108    526.984    513.108    514.763    513.108
 79.170    552.897    529.345     23.552    513.104    527.707    513.104    514.740    513.104
 79.270    495.000    530.290    -35.290    513.098    528.667    513.098    514.719    513.098
 79.370    533.000    531.505      1.495    513.091    529.892    513.091    514.701    513.091
 79.470    520.408    533.022    -12.614    513.082    531.415    513.082    514.686    513.082
 79.570    550.000    534.887     15.113    513.072    533.282    513.072    514.673    513.072
 79.670    523.328    537.169    -13.840    513.061    535.561    513.061    514.663    513.061
 79.770    550.000    539.975     10.025    513.048    538.361    513.048    514.656    513.048
 79.870    542.249    543.471     -1.223    513.034    541.848    513.034    514.652    513.034
 79.970    567.000    547.903     19.097    513.018    546.267    513.018    514.650    513.018
 80.070    569.000    553.614     15.386    513.001    551.962    513.001    514.649    513.001
 80.170    501.000    561.041    -60.041    512.982    559.371    512.982    514.649    512.982
 80.270    536.000    570.658    -34.658    512.962    568.972    512.962    514.648    512.962
 80.370    575.000    582.886     -7.886    512.941    581.186    512.941    514.644    512.941
 80.470    585.000    597.969    -12.969    512.918    596.260    512.918    514.633    512.918
 80.570    569.444    615.881    -46.438    512.893    614.170    512.893    514.615    512.893
 80.670    642.000    636.235      5.765    512.867    634.531    512.867    514.586    512.867
 80.770    663.862    658.249      5.613    512.840    656.565    512.840    514.546    512.840
 80.870    646.991    680.782    -33.791    512.811    679.127    512.811    514.493    512.811
 80.970    656.000    702.451    -46.451    512.781    700.836    512.781    514.431    512.781
 81.070    674.284    721.829    -47.545    512.749    720.261    512.749    514.359    512.749
 81.170    787.160    737.635     49.525    512.715    736.117    512.715    514.282    512.715
 81.270    787.516    748.843     38.673    512.680    747.378    512.680    514.202    512.680
 81.370    727.000    754.775    -27.775    512.644    753.361    512.644    514.120    512.644
 81.470    778.000    755.160     22.840    512.606    753.795    512.606    514.037    512.606
 81.570    733.000    750.152    -17.152    512.567    748.832    512.567    513.956    512.567
 81.670    742.469    740.275      2.194    512.526    738.996    512.526    513.877    512.526
 81.770    721.000    726.397     -5.397    512.484    725.153    512.484    513.799    512.484
 81.870    673.668    709.688    -36.020    512.440    708.474    512.440    513.724    512.440
 81.970    694.122    691.458      2.663    512.394    690.270    512.394    513.650    512.394
 82.070    632.000    672.894    -40.894    512.347    671.727    512.347    513.579    512.347
 82.170    714.000    654.845     59.155    512.299    653.696    512.299    513.509    512.299
 82.270    659.000    637.784     21.216    512.249    636.649    512.249    513.440    512.249
 82.370    565.000    621.914    -56.914    512.197    620.790    512.197    513.373    512.197
 82.470    634.000    607.339     26.661    512.144    606.223    512.144    513.306    512.144
 82.570    581.332    594.184    -12.851    512.089    593.073    512.089    513.240    512.089
 82.670    536.000    582.622    -46.622    512.033    581.515    512.033    513.173    512.033
 82.770    563.000    572.838     -9.838    511.975    571.732    511.975    513.107    511.975
 82.870    600.000    564.989     35.011    511.916    563.884    511.916    513.041    511.916
 82.970    507.000    559.191    -52.191    511.855    558.084    511.855    512.973    511.855
 83.070    577.000    555.499     21.501    511.793    554.391    511.793    512.906    511.793
 83.170    546.000    553.897     -7.897    511.729    552.785    511.729    512.837    511.729
 83.270    525.796    554.271    -28.475    511.664    553.156    511.664    512.768    511.664
 83.370    565.000    556.401      8.599    511.596    555.281    511.596    512.698    511.596
 83.470    583.000    559.942     23.058    511.528    558.818    511.528    512.626    511.528
 83.570    575.000    564.436     10.564    511.458    563.308    511.458    512.554    511.458
 83.670    592.593    569.316     23.277    511.386    568.184    511.386    512.481    511.386
 83.770    581.000    573.940      7.060    511.313    572.804    511.313    512.407    511.313
 83.870    569.000    577.636     -8.636    511.238    576.498    511.238    512.331    511.238
 83.970    608.288    579.795     28.493    511.161    578.656    511.161    512.254    511.161
 84.070    589.000    579.989      9.011    511.083    578.851    511.083    512.177    511.083
 84.170    554.000    578.092    -24.092    511.004    576.956    511.004    512.098    511.004
 84.270    583.199    574.303      8.895    510.922    573.170    510.922    512.018    510.922
 84.370    564.000    569.068     -5.068    510.840    567.937    510.840    511.936    510.840
 84.470    546.000    562.941    -16.941    510.755    561.813    510.755    511.854    510.755
 84.570    576.000    556.470     19.530    510.669    555.345    510.669    511.770    510.669
 84.670    565.778    550.125     15.653    510.582    549.002    510.582    511.686    510.582
 84.770    505.412    544.269    -38.857    510.493    543.147    510.493    511.600    510.493
 84.870    540.643    539.139      1.504    510.402    538.017    510.402    511.512    510.402
 84.970    549.223    534.860     14.363    510.310    533.736    510.310    511.424    510.310
 85.070    568.000    531.454     36.546    510.216    530.328    510.216    511.335    510.216
 85.170    524.335    528.871     -4.536    510.121    527.742    510.121    511.244    510.121
 85.270    547.000    527.019     19.981    510.024    525.886    510.024    511.152    510.024
 85.370    555.000    525.788     29.212    509.925    524.649    509.925    511.059    509.925
 85.470    538.000    525.075     12.925    509.825    523.930    509.825    510.965    509.825
 85.570    504.000    524.800    -20.800    509.723    523.649    509.723    510.869    509.723
 85.670    551.000    524.918     26.082    509.620    523.760    509.620    510.772    509.620
 85.770    514.681    525.423    -10.742    509.515    524.257    509.515    510.674    509.515
 85.870    525.000    526.351     -1.351    509.409    525.176    509.409    510.575    509.409
 85.970    523.000    527.779     -4.779    509.301    526.594    509.301    510.475    509.301
 86.070    524.000    529.825     -5.825    509.191    528.629    509.191    510.374    509.191
 86.170    552.000    532.634     19.366    509.080    531.425    509.080    510.272    509.080
 86.270    514.792    536.369    -21.577    508.967    535.145    508.967    510.169    508.967
 86.370    517.859    541.191    -23.333    508.853    539.951    508.853    510.065    508.853
 86.470    541.111    547.234     -6.123    508.737    545.976    508.737    509.960    508.737
 86.570    582.000    554.572     27.428    508.620    553.294    508.620    509.853    508.620
 86.670    570.000    563.184      6.816    508.501    561.884    508.501    509.746    508.501
 86.770    549.562    572.922    -23.360    508.380    571.599    508.380    509.638    508.380
 86.870    540.451    583.484    -43.033    508.258    582.136    508.258    509.529    508.258
 86.970    579.000    594.397    -15.397    508.134    593.024    508.134    509.418    508.134
 87.070    561.152    605.023    -43.871    508.009    603.625    508.009    509.307    508.009
 87.170    608.599    614.580     -5.981    507.882    613.159    507.882    509.196    507.882
 87.270    663.000    622.216     40.784    507.754    620.775    507.754    509.083    507.754
 87.370    672.000    627.142     44.858    507.624    625.683    507.624    508.969    507.624
 87.470    636.000    628.816      7.184    507.492    627.342    507.492    508.855    507.492
 87.570    624.945    627.105     -2.160    507.359    625.620    507.359    508.740    507.359
 87.670    580.346    622.329    -41.983    507.225    620.835    507.225    508.625    507.225
 87.770    627.000    615.158     11.842    507.089    613.655    507.089    508.509    507.089
 87.870    643.858    606.450     37.408    506.951    604.940    506.951    508.392    506.951
 87.970    558.585    597.113    -38.527    506.812    595.593    506.812    508.275    506.812
 88.070    577.770    588.002    -10.232    506.671    586.472    506.671    508.157    506.671
 88.170    581.221    579.864      1.358    506.529    578.321    506.529    508.039    506.529
 88.270    547.287    573.288    -26.001    506.385    571.731    506.385    507.921    506.385
 88.370    597.000    568.689     28.311    506.240    567.114    506.240    507.803    506.240
 88.470    566.787    566.290      0.497    506.093    564.696    506.093    507.684    506.093
 88.570    575.000    566.129      8.871    505.944    564.514    505.944    507.566    505.944
 88.670    567.000    568.066     -1.066    505.795    566.428    505.795    507.447    505.795
 88.770    571.000    571.796     -0.796    505.643    570.132    505.643    507.329    505.643
 88.870    585.000    576.872      8.128    505.490    575.181    505.490    507.211    505.490
 88.970    666.000    582.726     83.274    505.336    581.005    505.336    507.094    505.336
 89.070    582.000    588.698     -6.698    505.180    586.945    505.180    506.978    505.180
 89.170    592.284    594.063     -1.778    505.023    592.275    505.023    506.862    505.023
 89.270    562.346    598.135    -35.789    504.864    596.309    504.864    506.747    504.864
 89.370    636.532    600.317     36.214    504.703    598.449    504.703    506.634    504.703
 89.470    581.000    600.216    -19.216    504.542    598.300    504.542    506.522    504.542
 89.570    641.668    597.750     43.919    504.378    595.781    504.378    506.412    504.378
 89.670    596.000    593.148      2.852    504.214    591.120    504.214    506.304    504.214
 89.770    580.000    586.871     -6.871    504.047    584.779    504.047    506.199    504.047
 89.870    536.000    579.490    -43.490    503.880    577.326    503.880    506.096    503.880
 89.970    562.000    571.577     -9.577    503.711    569.337    503.711    505.998    503.711
 90.070    530.000    563.645    -33.645    503.540    561.322    503.540    505.903    503.540
 90.170    522.000    556.111    -34.111    503.368    553.698    503.368    505.814    503.368
 90.270    516.434    549.279    -32.845    503.194    546.770    503.194    505.730    503.194
 90.370    573.840    543.345     30.495    503.020    540.731    503.020    505.655    503.020
 90.470    570.274    538.399     31.875    502.843    535.671    502.843    505.588    502.843
 90.570    491.000    534.449    -43.449    502.666    531.595    502.666    505.532    502.666
 90.670    547.000    531.438     15.562    502.486    528.444    502.486    505.489    502.486
 90.770    511.000    529.273    -18.273    502.306    526.121    502.306    505.464    502.306
 90.870    557.000    527.847     29.153    502.124    524.517    502.124    505.458    502.124
 90.970    503.000    527.058    -24.058    501.941    523.523    501.941    505.478    501.941
 91.070    498.518    526.825    -28.307    501.756    523.054    501.756    505.527    501.756
 91.170    503.000    527.099    -24.099    501.570    523.055    501.570    505.613    501.570
 91.270    503.250    527.871    -24.621    501.383    523.509    501.383    505.743    501.383
 91.370    490.000    529.174    -39.174    501.194    524.439    501.194    505.925    501.194
 91.470    518.000    531.084    -13.084    501.004    525.915    501.004    506.168    501.004
 91.570    499.911    533.721    -33.811    500.812    528.047    500.812    506.481    500.812
 91.670    544.000    537.245      6.755    500.619    530.982    500.619    506.874    500.619
 91.770    551.000    541.846      9.154    500.425    534.903    500.425    507.357    500.425
 91.870    512.827    547.737    -34.910    500.230    540.013    500.230    507.940    500.230
 91.970    565.597    555.141     10.456    500.033    546.526    500.033    508.630    500.033
 92.070    539.150    564.258    -25.108    499.835    554.637    499.835    509.433    499.835
 92.170    553.000    575.251    -22.251    499.636    564.504    499.636    510.355    499.636
 92.270    567.000    588.221    -21.221    499.435    576.226    499.435    511.396    499.435
 92.370    564.000    603.175    -39.175    499.233    589.816    499.233    512.552    499.233
 92.470    612.000    620.003     -8.003    499.030    605.172    499.030    513.814    499.030
 92.570    631.000    638.432     -7.432    498.826    622.035    498.826    515.168    498.826
 92.670    654.000    658.151     -4.151    498.620    640.119    498.620    516.590    498.620
 92.770    672.000    678.619     -6.619    498.413    658.916    498.413    518.049    498.413
 92.870    665.075    699.164    -34.089    498.205    677.798    498.205    519.499    498.205
 92.970    687.000    719.055    -32.055    497.996    696.090    497.996    520.884    497.996
 93.070    741.431    737.585      3.846    497.785    713.156    497.785    522.136    497.785
 93.170    771.041    754.202     16.839    497.573    728.520    497.573    523.176    497.573
 93.270    807.436    768.607     38.829    497.360    741.961    497.360    523.928    497.360
 93.370    751.559    780.776    -29.218    497.146    753.524    497.146    524.321    497.146
 93.470    774.000    790.894    -16.894    496.931    763.440    496.931    524.308    496.931
 93.570    826.000    799.264     26.736    496.714    772.029    496.714    523.876    496.714
 93.670    799.989    806.244     -6.255    496.497    779.625    496.497    523.045    496.497
 93.770    853.587    812.223     41.365    496.278    786.565    496.278    521.867    496.278
 93.870    883.000    817.675     65.325    496.058    793.253    496.058    520.414    496.058
 93.970    854.000    823.161     30.839    495.837    800.170    495.837    518.764    495.837
 94.070    878.000    829.251     48.749    495.615    807.810    495.615    516.995    495.615
 94.170    794.946    836.370    -41.424    495.392    816.529    495.392    515.174    495.392
 94.270    882.354    844.631     37.724    495.168    826.388    495.168    513.354    495.168
 94.370    812.714    853.727    -41.014    494.943    837.039    494.943    511.577    494.943
 94.470    812.706    862.913    -50.207    494.716    847.703    494.716    509.876    494.716
 94.570    844.268    871.056    -26.788    494.489    857.229    494.489    508.270    494.489
 94.670    899.170    876.775     22.395    494.260    864.221    494.260    506.775    494.260
 94.770    934.000    878.644     55.356    494.031    867.244    494.031    505.398    494.031
 94.870    881.286    875.467      5.820    493.800    865.100    493.800    504.142    493.800
 94.970    853.000    866.560    -13.560    493.569    857.107    493.569    503.005    493.569
 95.070    885.000    851.950     33.050    493.337    843.294    493.337    501.984    493.337
 95.170    872.000    832.383     39.617    493.103    824.414    493.103    501.071    493.103
 95.270    797.061    809.175    -12.114    492.869    801.790    492.869    500.258    492.869
 95.370    767.647    783.989    -16.341    492.634    777.093    492.634    499.536    492.634
 95.470    774.000    758.624     15.376    492.397    752.134    492.397    498.896    492.397
 95.570    766.000    734.879     31.121    492.160    728.720    492.160    498.328    492.160
 95.670    727.000    714.449     12.551    491.922    708.556    491.922    497.823    491.922
 95.770    669.000    698.878    -29.878    491.684    693.193    491.684    497.371    491.684
 95.870    716.723    689.522     27.201    491.444    683.996    491.444    496.967    491.444
 95.970    694.000    687.535      6.465    491.203    682.127    491.203    496.602    491.203
 96.070    722.089    693.866     28.223    490.962    688.539    490.962    496.272    490.962
 96.170    743.000    709.250     33.750    490.720    703.973    490.720    495.971    490.720
 96.270    757.000    734.189     22.811    490.476    728.934    490.476    495.695    490.476
 96.370    747.000    768.898    -21.898    490.233    763.643    490.233    495.441    490.233
 96.470    852.000    813.309     38.691    489.988    808.033    489.988    495.207    489.988
 96.570    920.720    866.905     53.815    489.743    861.589    489.743    494.991    489.743
 96.670    934.000    928.681      5.319    489.496    923.308    489.496    494.791    489.496
 96.770    940.000    997.077    -57.077    489.250    991.633    489.250    494.608    489.250
 96.870   1037.000   1069.925    -32.925    489.002   1064.395    489.002    494.439    489.002
 96.970   1191.000   1144.441     46.559    488.754   1138.812    488.754    494.286    488.754
 97.070   1254.631   1217.253     37.379    488.505   1211.513    488.505    494.148    488.505
 97.170   1315.000   1284.512     30.488    488.255   1278.649    488.255    494.027    488.255
 97.270   1394.000   1342.115     51.885    488.005   1336.115    488.005    493.922    488.005
 97.370   1395.000   1386.093      8.907    487.754   1379.942    487.754    493.835    487.754
 97.470   1429.875   1413.173     16.701    487.502   1406.855    487.502    493.769    487.502
 97.570   1459.000   1421.375     37.625    487.250   1414.869    487.250    493.724    487.250
 97.670   1429.000   1410.410     18.590    486.997   1403.690    486.997    493.705    486.997
 97.770   1447.446   1381.689     65.758    486.744   1374.726    486.744    493.715    486.744
 97.870   1312.000   1337.960    -25.960    486.490   1330.717    486.490    493.758    486.490
 97.970   1306.000   1282.772     23.228    486.236   1275.207    486.236    493.840    486.236
 98.070   1221.000   1219.988      1.012    485.981   1212.048    485.981    493.968    485.981
 98.170   1103.048   1153.436    -50.388    485.726   1145.064    485.726    494.152    485.726
 98.270   1090.544   1086.703      3.842    485.470   1077.826    485.470    494.401    485.470
 98.370   1003.000   1023.002    -20.002    485.214   1013.539    485.214    494.730    485.214
 98.470    966.501    965.118      1.383    484.957    954.971    484.957    495.154    484.957
 98.570    969.049    915.383     53.667    484.700    904.435    484.700    495.690    484.700
 98.670    864.000    875.681    -11.681    484.442    863.798    484.442    496.361    484.442
 98.770    771.000    847.483    -76.483    484.184    834.505    484.184    497.189    484.184
 98.870    836.000    831.889      4.111    483.926    817.630    483.926    498.202    483.926
 98.970    809.000    829.684    -20.684    483.667    813.931    483.667    499.429    483.667
 99.070    769.000    841.387    -72.387    483.408    823.895    483.408    500.900    483.408
 99.170    918.512    867.263     51.248    483.149    847.757    483.149    502.648    483.149
 99.270    878.000    907.333    -29.333    482.890    885.505    482.890    504.704    482.890
 99.370    926.231    961.336    -35.105    482.630    936.848    482.630    507.100    482.630
 99.470    999.000   1028.675    -29.675    482.370   1001.163    482.370    509.863    482.370
 99.570   1099.000   1108.345     -9.345    482.110   1077.421    482.110    513.015    482.110
 99.670   1260.001   1198.854     61.146    481.849   1164.115    481.849    516.574    481.849
 99.770   1318.631   1298.155     20.476    481.588   1259.190    481.588    520.547    481.588
 99.870   1385.175   1403.601    -18.426    481.328   1360.003    481.328    524.931    481.328
 99.970   1508.881   1511.941     -3.060    481.067   1463.321    481.067    529.707    481.067
100.070   1603.000   1619.401    -16.401    480.806   1565.403    480.806    534.844    480.806
100.170   1723.000   1721.869      1.131    480.545   1662.188    480.545    540.288    480.545
100.270   1793.000   1815.188    -22.188    480.283   1749.595    480.283    545.964    480.283
100.370   1977.000   1895.564     81.436    480.022   1823.928    480.022    551.772    480.022
100.470   2038.000   1959.800     78.200    479.761   1882.120    479.761    557.579    479.761
100.570   1955.728   2005.450    -49.722    479.500   1921.890    479.500    563.223    479.500
100.670   2052.433   2030.821     21.612    479.238   1941.738    479.238    568.506    479.238
100.770   2041.000   2034.943      6.057    478.977   1940.917    478.977    573.204    478.977
100.870   1992.000   2017.677    -25.677    478.716   1919.526    478.716    577.081    478.716
100.970   1952.000   1979.962    -27.962    478.455   1878.733    478.455    579.907    478.455
101.070   1909.000   1924.026    -15.026    478.194   1820.955    478.194    581.490    478.194
101.170   1866.000   1853.359     12.641    477.933   1749.808    477.933    581.707    477.933
101.270   1713.000   1772.374    -59.374    477.672   1669.736    477.672    580.526    477.672
101.370   1574.000   1685.862   -111.862    477.412   1585.467    477.412    578.012    477.412
101.470   1524.000   1598.441    -74.441    477.152   1501.471    477.152    574.312    477.152
101.570   1504.062   1514.134    -10.072    476.892   1421.565    476.892    569.635    476.892
101.670   1345.000   1436.112    -91.112    476.632   1348.686    476.632    564.216    476.632
101.770   1424.000   1366.582     57.418    476.372   1284.807    476.372    558.290    476.372
101.870   1334.000   1306.762     27.238    476.113   1230.930    476.113    552.074    476.113
101.970   1286.722   1256.927     29.794    475.854   1187.145    475.854    545.753    475.854
102.070   1230.000   1216.491     13.509    475.596   1152.712    475.596    539.480    475.596
102.170   1241.453   1184.127     57.327    475.338   1126.186    475.338    533.376    475.338
102.270   1152.000   1157.930     -5.930    475.080   1105.569    475.080    527.533    475.080
102.370   1119.000   1135.619    -16.619    474.823   1088.512    474.823    522.018    474.823
102.470   1090.000   1114.786    -24.786    474.566   1072.562    474.566    516.878    474.566
102.570   1054.173   1093.195    -39.022    474.309   1055.454    474.309    512.138    474.309
102.670   1033.925   1069.069    -35.144    474.054   1035.399    474.054    507.813    474.054
102.770   1003.654   1041.308    -37.654    473.798   1011.296    473.798    503.900    473.798
102.870    974.000   1009.554    -35.554    473.544    982.797    473.544    500.390    473.544
102.970    988.449    974.111     14.338    473.290    950.225    473.290    497.264    473.290
103.070    916.000    935.754    -19.754    473.036    914.379    473.036    494.496    473.036
103.170    863.584    895.522    -31.938    472.783    876.327    472.783    492.059    472.783
103.270    899.000    854.545     44.455    472.531    837.232    472.531    489.920    472.531
103.370    840.461    813.922     26.539    472.280    798.223    472.280    488.048    472.280
103.470    765.121    774.643     -9.522    472.029    760.324    472.029    486.411    472.029
103.570    748.995    737.541     11.454    471.779    724.398    471.779    484.978    471.779
103.670    706.000    703.264      2.736    471.530    691.121    471.530    483.722    471.530
103.770    716.000    672.263     43.737    471.281    660.971    471.281    482.615    471.281
103.870    678.000    644.792     33.208    471.034    634.225    471.034    481.637    471.034
103.970    693.000    620.926     72.074    470.787    610.977    470.787    480.766    470.787
104.070    604.343    600.582      3.761    470.541    591.163    470.541    479.984    470.541
104.170    581.923    583.559     -1.636    470.296    574.597    470.296    479.278    470.296
104.270    573.000    569.570      3.430    470.053    561.002    470.053    478.635    470.053
104.370    601.000    558.277     42.723    469.810    550.054    469.810    478.045    469.810
104.470    570.000    549.327     20.673    469.568    541.404    469.568    477.499    469.568
104.570    556.000    542.373     13.627    469.327    534.715    469.327    476.991    469.327
104.670    520.000    537.099    -17.099    469.087    529.675    469.087    476.515    469.087
104.770    526.000    533.226     -7.226    468.849    526.010    468.849    476.066    468.849
104.870    514.269    530.530    -16.261    468.611    523.499    468.611    475.642    468.611
104.970    499.000    528.835    -29.835    468.375    521.969    468.375    475.240    468.375
105.070    549.000    528.018     20.982    468.140    521.298    468.140    474.857    468.140
105.170    572.000    528.004     43.996    467.906    521.413    467.906    474.492    467.906
105.270    562.714    528.759     33.955    467.674    522.284    467.674    474.142    467.674
105.370    569.000    530.294     38.706    467.443    523.922    467.443    473.807    467.443
105.470    526.797    532.654     -5.857    467.213    526.371    467.213    473.485    467.213
105.570    534.556    535.901     -1.345    466.984    529.696    466.984    473.177    466.984
105.670    513.627    540.117    -26.491    466.757    533.980    466.757    472.880    466.757
105.770    565.691    545.387     20.303    466.531    539.307    466.531    472.595    466.531
105.870    536.782    551.785    -15.003    466.307    545.752    466.307    472.321    466.307
105.970    539.000    559.358    -20.358    466.084    553.363    466.084    472.057    466.084
106.070    553.000    568.111    -15.111    465.863    562.146    465.863    471.803    465.863
106.170    583.000    578.022      4.978    465.644    572.077    465.644    471.559    465.644
106.270    655.000    588.991     66.009    465.425    583.060    465.425    471.325    465.425
106.370    570.000    600.863    -30.863    465.209    594.936    465.209    471.100    465.209
106.470    608.000    613.417     -5.417    464.994    607.489    464.994    470.884    464.994
106.570    636.000    626.376      9.624    464.781    620.439    464.781    470.677    464.781
106.670    682.923    639.403     43.520    464.570    633.451    464.570    470.479    464.570
106.770    665.000    652.121     12.879    464.361    646.147    464.361    470.290    464.361
106.870    692.000    664.120     27.880    464.153    658.119    464.153    470.110    464.153
106.970    678.000    674.989      3.011    463.947    668.953    463.947    469.938    463.947
107.070    644.000    684.348    -40.348    463.743    678.272    463.743    469.775    463.743
107.170    650.466    691.896    -41.431    463.541    685.775    463.541    469.621    463.541
107.270    696.000    697.464     -1.464    463.341    691.290    463.341    469.476    463.341
107.370    723.000    701.046     21.954    463.143    694.813    463.143    469.340    463.143
107.470    691.000    702.808    -11.808    462.947    696.511    462.947    469.213    462.947
107.570    691.757    703.065    -11.309    462.753    696.696    462.753    469.095    462.753
107.670    678.000    702.223    -24.223    462.561    695.774    462.561    468.987    462.561
107.770    699.809    700.719     -0.910    462.371    694.183    462.371    468.888    462.371
107.870    691.513    698.964     -7.451    462.184    692.334    462.184    468.799    462.184
107.970    714.330    697.303     17.027    461.998    690.571    461.998    468.720    461.998
108.070    722.000    695.984     26.016    461.815    689.141    461.815    468.652    461.815
108.170    645.982    695.143    -49.161    461.634    688.181    461.634    468.594    461.634
108.270    700.000    694.797      5.203    461.456    687.706    461.456    468.548    461.456
108.370    724.000    694.842     29.158    461.279    687.613    461.279    468.513    461.279
108.470    723.000    695.062     27.938    461.106    687.686    461.106    468.490    461.106
108.570    727.039    695.147     31.891    460.934    687.614    460.934    468.480    460.934
108.670    657.903    694.724    -36.820    460.766    687.022    460.766    468.482    460.766
108.770    680.000    693.395    -13.395    460.599    685.514    460.599    468.498    460.599
108.870    706.000    690.801     15.199    460.436    682.728    460.436    468.529    460.436
108.970    674.000    686.668    -12.668    460.274    678.391    460.274    468.574    460.274
109.070    643.572    680.858    -37.285    460.116    672.362    460.116    468.635    460.116
109.170    682.000    673.384      8.616    459.960    664.655    459.960    468.713    459.960
109.270    632.000    664.401    -32.401    459.807    655.424    459.807    468.809    459.807
109.370    659.000    654.170      4.830    459.657    644.928    459.657    468.924    459.657
109.470    602.543    643.017    -40.474    459.509    633.491    459.509    469.059    459.509
109.570    662.405    631.294     31.112    459.364    621.464    459.364    469.217    459.364
109.670    596.356    619.346    -22.989    459.223    609.192    459.223    469.398    459.223
109.770    602.000    607.496     -5.496    459.084    596.994    459.084    469.605    459.084
109.870    615.402    596.033     19.369    458.948    585.157    458.948    469.841    458.948
109.970    558.376    585.199    -26.824    458.815    573.921    458.815    470.108    458.815
110.070    590.687    575.191     15.495    458.685    563.479    458.685    470.411    458.685
110.170    565.861    566.157     -0.295    458.558    553.973    458.558    470.753    458.558
110.270    598.004    558.194     39.810    458.435    545.499    458.435    471.139    458.435
110.370    582.000    551.356     30.644    458.314    538.102    458.314    471.575    458.314
110.470    532.450    545.656    -13.206    458.197    531.790    458.197    472.068    458.197
110.570    519.000    541.072    -22.072    458.083    526.532    458.083    472.626    458.083
110.670    553.000    537.557     15.443    457.972    522.271    457.972    473.259    457.972
110.770    504.889    535.043    -30.154    457.865    518.930    457.865    473.979    457.865
110.870    582.000    533.454     48.546    457.761    516.417    457.761    474.797    457.761
110.970    588.000    532.707     55.293    457.661    514.635    457.661    475.730    457.661
111.070    554.504    532.721     21.783    457.564    513.486    457.564    476.795    457.564
111.170    540.279    533.420      6.859    457.471    512.875    457.471    478.011    457.471
111.270    503.074    534.738    -31.664    457.381    512.713    457.381    479.400    457.381
111.370    498.935    536.617    -37.681    457.295    512.917    457.295    480.987    457.295
111.470    539.000    538.990      0.010    457.212    513.395    457.212    482.800    457.212
111.570    562.412    541.859     20.553    457.134    514.117    457.134    484.867    457.134
111.670    530.000    545.225    -15.225    457.059    515.053    457.059    487.222    457.059
111.770    547.719    549.064     -1.345    456.987    516.144    456.987    489.898    456.987
111.870    549.997    553.381     -3.384    456.920    517.361    456.920    492.930    456.920
111.970    523.000    558.197    -35.197    456.857    518.689    456.857    496.354    456.857
112.070    551.000    563.544    -12.544    456.797    520.122    456.797    500.208    456.797
112.170    550.887    569.463    -18.575    456.742    521.667    456.742    504.527    456.742
112.270    556.145    576.003    -19.858    456.690    523.337    456.690    509.344    456.690
112.370    624.669    583.218     41.451    456.643    525.158    456.643    514.692    456.643
112.470    598.577    591.169      7.408    456.600    527.162    456.600    520.595    456.600
112.570    604.000    599.919      4.081    456.561    529.391    456.561    527.077    456.561
112.670    588.484    609.536    -21.052    456.526    531.901    456.526    534.149    456.526
112.770    608.376    620.097    -11.721    456.496    534.761    456.496    541.819    456.496
112.870    601.048    631.686    -30.638    456.469    538.062    456.469    550.080    456.469
112.970    662.000    644.402     17.598    456.448    541.921    456.448    558.915    456.448
113.070    647.000    658.369    -11.369    456.430    546.490    456.430    568.293    456.430
113.170    638.000    673.739    -35.739    456.418    551.971    456.418    578.169    456.418
113.270    723.762    690.711     33.051    456.409    558.625    456.409    588.477    456.409
113.370    675.000    709.538    -34.538    456.406    566.790    456.406    599.133    456.406
113.470    714.000    730.553    -16.553    456.407    576.905    456.407    610.030    456.407
113.570    673.000    754.179    -81.179    456.412    589.525    456.412    621.038    456.412
113.670    798.939    780.960     17.979    456.423    605.351    456.423    631.999    456.423
113.770    778.000    811.577    -33.577    456.438    625.251    456.438    642.725    456.438
113.870    881.761    846.877     34.884    456.458    650.286    456.458    653.002    456.458
113.970    844.000    887.898    -43.898    456.483    681.731    456.483    662.593    456.483
114.070    917.000    935.887    -18.887    456.513    721.090    456.513    671.242    456.513
114.170    966.000    992.321    -26.321    456.548    770.101    456.548    678.684    456.548
114.270   1063.000   1058.917      4.083    456.588    830.736    456.588    684.668    456.588
114.370   1132.000   1137.631     -5.631    456.633    905.171    456.633    688.970    456.633
114.470   1207.000   1230.635    -23.635    456.683    995.751    456.683    691.419    456.683
114.570   1365.000   1340.276     24.724    456.739   1104.922    456.739    691.915    456.739
114.670   1512.000   1468.990     43.010    456.799   1235.140    456.799    690.439    456.799
114.770   1591.038   1619.197    -28.159    456.865   1388.759    456.865    687.055    456.865
114.870   1888.000   1793.151     94.849    456.937   1567.893    456.937    681.905    456.937
114.970   2189.000   1992.766    196.234    457.014   1774.254    457.014    675.192    457.014
115.070   2379.000   2219.429    159.571    457.096   2008.986    457.096    667.156    457.096
115.170   2613.000   2473.796    139.204    457.184   2272.489    457.184    658.060    457.184
115.270   2836.075   2755.617     80.458    457.277   2564.249    457.277    648.164    457.277
115.370   3072.850   3063.562      9.287    457.377   2882.692    457.377    637.718    457.377
115.470   3486.000   3395.102     90.898    457.481   3225.064    457.481    626.945    457.481
115.570   3783.000   3746.420     36.580    457.592   3587.352    457.592    616.047    457.592
115.670   4076.322   4112.386    -36.064    457.708   3964.255    457.708    605.192    457.708
115.770   4520.000   4486.579     33.421    457.831   4349.215    457.831    594.525    457.831
115.870   4753.000   4861.377   -108.377    457.959   4734.491    457.959    584.163    457.959
115.970   5267.000   5228.100     38.900    458.093   5111.313    458.093    574.200    458.093
116.070   5682.116   5577.229    104.887    458.234   5470.090    458.234    564.708    458.234
116.170   5968.000   5898.697     69.303    458.380   5800.700    458.380    555.743    458.380
116.270   6153.382   6182.277    -28.895    458.532   6092.881    458.532    547.342    458.532
116.370   6528.736   6418.091    110.645    458.691   6336.732    458.691    539.528    458.691
116.470   6730.752   6597.234    133.518    458.856   6523.334    458.856    532.312    458.856
116.570   6683.000   6712.476    -29.476    459.028   6645.457    459.028    525.693    459.028
116.670   6733.000   6758.945    -25.945    459.206   6698.235    459.206    519.661    459.206
116.770   6760.000   6734.650     25.350    459.390   6679.691    459.390    514.198    459.390
116.870   6587.887   6640.699    -52.812    459.581   6590.952    459.581    509.279    459.581
116.970   6408.000   6481.160    -73.160    459.778   6436.111    459.778    504.877    459.778
117.070   6220.000   6262.594    -42.594    459.982   6221.759    459.982    500.957    459.982
117.170   5879.058   5993.403   -114.345    460.193   5956.328    460.193    497.485    460.193
117.270   5459.000   5683.119   -224.119    460.410   5649.386    460.410    494.425    460.410
117.370   5214.000   5341.762   -127.762    460.634   5310.987    460.634    491.741    460.634
117.470   4823.000   4979.308   -156.308    460.865   4951.145    460.865    489.396    460.865
117.570   4582.000   4605.282    -23.282    461.104   4579.418    461.104    487.356    461.104
117.670   4132.000   4228.448    -96.448    461.349   4204.605    461.349    485.589    461.349
117.770   3843.270   3856.586    -13.316    461.601   3834.517    461.601    484.063    461.601
117.870   3396.364   3496.342    -99.979    461.860   3475.833    461.860    482.751    461.860
117.970   3138.000   3153.147    -15.147    462.127   3134.007    462.127    481.627    462.127
118.070   2825.000   2831.187     -6.187    462.400   2813.253    462.400    480.667    462.400
118.170   2621.000   2533.439     87.561    462.681   2516.570    462.681    479.852    462.681
118.270   2190.000   2261.751    -71.751    462.970   2245.827    462.970    479.162    462.970
118.370   1992.365   2016.954    -24.588    463.266   2001.871    463.266    478.583    463.266
118.470   1766.000   1798.997    -32.997    463.569   1784.667    463.569    478.099    463.569
118.570   1566.000   1607.101    -41.101    463.880   1593.450    463.880    477.700    463.880
118.670   1321.000   1439.904   -118.904    464.199   1426.866    464.199    477.376    464.199
118.770   1206.000   1295.634    -89.634    464.525   1283.155    464.525    477.116    464.525
118.870   1134.000   1172.283    -38.283    464.859   1160.315    464.859    476.916    464.859
118.970   1032.000   1067.645    -35.645    465.201   1056.147    465.201    476.767    465.201
119.070   1011.948    979.501     32.446    465.551    968.437    465.551    476.666    465.551
119.170    957.781    905.698     52.083    465.909    895.036    465.909    476.608    465.909
119.270    871.595    844.206     27.389    466.274    833.917    466.274    476.590    466.274
119.370    836.487    793.170     43.317    466.648    783.229    466.648    476.608    466.648
119.470    796.621    750.934     45.687    467.030    741.316    467.030    476.661    467.030
119.570    695.000    716.047    -21.047    467.421    706.730    467.421    476.746    467.421
119.670    670.000    687.264    -17.264    467.819    678.227    467.819    476.861    467.819
119.770    705.000    663.534     41.466    468.226    654.757    468.226    477.007    468.226
119.870    662.000    643.981     18.019    468.642    635.444    468.642    477.181    468.642
119.970    587.258    627.884    -40.626    469.065    619.568    469.065    477.382    469.065
120.070    624.000    614.657      9.343    469.498    606.545    469.498    477.611    469.498
120.170    597.000    603.828     -6.828    469.939    595.901    469.939    477.867    469.939
120.270    628.000    595.017     32.983    470.389    587.258    470.389    478.149    470.389
120.370    585.000    587.924     -2.924    470.847    580.317    470.847    478.456    470.847
120.470    566.000    582.312    -16.312    471.315    574.839    471.315    478.790    471.315
120.570    559.000    577.991    -18.991    471.791    570.636    471.791    479.148    471.791
120.670    540.000    574.813    -34.813    472.276    567.560    472.276    479.533    472.276
120.770    555.000    572.659    -17.660    472.771    565.492    472.771    479.942    472.771
120.870    606.000    571.436     34.564    473.274    564.339    473.274    480.377    473.274
120.970    598.000    571.065     26.935    473.787    564.023    473.787    480.836    473.787
121.070    597.395    571.482     25.914    474.309    564.478    474.309    481.320    474.309
121.170    593.000    572.626     20.374    474.840    565.647    474.840    481.828    474.840
121.270    533.000    574.445    -41.445    475.381    567.476    475.381    482.360    475.381
121.370    568.000    576.884     -8.884    475.931    569.912    475.931    482.916    475.931
121.470    548.847    579.886    -31.039    476.491    572.897    476.491    483.494    476.491
121.570    568.000    583.392    -15.392    477.060    576.374    477.060    484.094    477.060
121.670    583.000    587.334     -4.334    477.639    580.276    477.639    484.716    477.639
121.770    615.517    591.639     23.877    478.228    584.531    478.228    485.358    478.228
121.870    593.000    596.227     -3.227    478.827    589.059    478.827    486.018    478.827
121.970    562.011    601.009    -38.998    479.436    593.774    479.436    486.697    479.436
122.070    606.166    605.888      0.278    480.054    598.580    480.054    487.391    480.054
122.170    620.000    610.762      9.238    480.683    603.377    480.683    488.100    480.683
122.270    631.000    615.523     15.477    481.322    608.059    481.322    488.820    481.322
122.370    659.000    620.061     38.939    481.971    612.518    481.971    489.550    481.971
122.470    612.769    624.264    -11.495    482.630    616.647    482.630    490.287    482.630
122.570    655.000    628.028     26.972    483.300    620.341    483.300    491.028    483.300
122.670    641.512    631.255     10.258    483.980    623.508    483.980    491.770    483.980
122.770    655.471    633.863     21.608    484.671    626.070    484.671    492.510    484.671
122.870    608.000    635.793    -27.793    485.372    627.967    485.372    493.245    485.372
122.970    658.000    637.007     20.993    486.084    629.167    486.084    493.971    486.084
123.070    659.000    637.495     21.505    486.807    629.663    486.807    494.688    486.807
123.170    643.000    637.273      5.727    487.541    629.470    487.541    495.391    487.541
123.270    678.011    636.379     41.632    488.285    628.630    488.285    496.081    488.285
123.370    612.000    634.869    -22.869    489.041    627.199    489.041    496.756    489.041
123.470    663.000    632.814     30.186    489.807    625.248    489.807    497.418    489.807
123.570    647.677    630.292     17.385    490.585    622.853    490.585    498.067    490.585
123.670    653.000    627.386     25.614    491.374    620.095    491.374    498.704    491.374
123.770    647.000    624.177     22.823    492.174    617.054    492.174    499.334    492.174
123.870    618.146    620.745     -2.599    492.986    613.807    492.986    499.958    492.986
123.970    622.766    617.164      5.602    493.809    610.425    493.809    500.579    493.809
124.070    651.000    613.501     37.499    494.643    606.972    494.643    501.201    494.643
124.170    619.000    609.814      9.186    495.490    603.503    495.490    501.826    495.490
124.270    632.000    606.150     25.850    496.348    600.063    496.348    502.458    496.348
124.370    626.000    602.547     23.453    497.217    596.686    497.217    503.098    497.217
124.470    577.000    599.032    -22.032    498.099    593.398    498.099    503.750    498.099
124.570    562.446    595.621    -33.175    498.993    590.214    498.993    504.415    498.993
124.670    580.067    592.324    -12.257    499.898    587.141    499.898    505.094    499.898
124.770    609.000    589.141     19.859    500.816    584.180    500.816    505.787    500.816
124.870    581.000    586.075     -5.075    501.746    581.329    501.746    506.501    501.746
124.970    603.000    583.120     19.880    502.688    578.580    502.688    507.235    502.688
