neutron_powder_diffraction_0135
R_wp: 3.860
Temperature (K): 1062.733
Counts: 83192.00
Wavelength (Ã…): 2.52098
COMMENTS
Test file for demonstrating the .xyy file format in Reel1.0
END OF HEADER
   tth       Y_obs     Y_calc      Y_res    Background    Phase_1_Nuc    Phase_1_Mag    Phase_2_Nuc    Phase_2_Mag
  9.970    605.000    566.926     38.074    566.114    566.862    566.114    566.178    566.114
 10.070    575.726    567.127      8.599    566.250    567.062    566.250    566.314    566.250
 10.170    534.825    567.330    -32.505    566.379    567.265    566.379    566.443    566.379
 10.270    598.986    567.538     31.448    566.502    567.473    566.502    566.567    566.502
 10.370    584.000    567.754     16.246    566.619    567.689    566.619    566.683    566.619
 10.470    525.818    567.981    -42.164    566.729    567.916    566.729    566.794    566.729
 10.570    588.000    568.223     19.777    566.833    568.157    566.833    566.899    566.833
 10.670    622.000    568.485     53.515    566.931    568.419    566.931    566.997    566.931
 10.770    590.000    568.775     21.225    567.024    568.709    567.024    567.090    567.024
 10.870    583.000    569.103     13.897    567.110    569.036    567.110    567.176    567.110
 10.970    578.900    569.483      9.418    567.190    569.415    567.190    567.257    567.190
 11.070    563.639    569.934     -6.295    567.265    569.866    567.265    567.331    567.265
 11.170    587.000    570.485     16.515    567.333    570.417    567.333    567.400    567.333
 11.270    538.966    571.182    -32.216    567.396    571.113    567.396    567.464    567.396
 11.370    541.683    572.104    -30.421    567.453    572.034    567.453    567.521    567.453
 11.470    574.000    573.427      0.573    567.505    573.355    567.505    567.573    567.505
 11.570    564.000    575.624    -11.624    567.551    575.552    567.551    567.619    567.551
 11.670    619.109    579.942     39.168    567.592    579.866    567.592    567.660    567.592
 11.770    561.196    589.032    -27.836    567.627    588.951    567.627    567.696    567.627
 11.870    624.000    606.826     17.174    567.656    606.735    567.656    567.726    567.656
 11.970    639.000    636.017      2.983    567.681    635.910    567.681    567.750    567.681
 12.070    697.000    672.669     24.331    567.700    672.542    567.700    567.770    567.700
 12.170    642.000    701.387    -59.387    567.713    701.242    567.713    567.785    567.713
 12.270    689.000    702.866    -13.866    567.722    702.719    567.722    567.795    567.722
 12.370    660.000    675.819    -15.819    567.725    675.686    567.725    567.798    567.725
 12.470    669.000    638.994     30.006    567.724    638.881    567.724    567.797    567.724
 12.570    567.180    608.854    -41.674    567.717    608.758    567.717    567.791    567.717
 12.670    588.000    590.172     -2.172    567.705    590.086    567.705    567.779    567.705
 12.770    620.313    580.550     39.763    567.689    580.469    567.689    567.763    567.689
 12.870    589.000    575.997     13.003    567.667    575.918    567.667    567.742    567.667
 12.970    547.000    573.717    -26.717    567.641    573.639    567.641    567.716    567.641
 13.070    532.653    572.372    -39.720    567.610    572.294    567.610    567.685    567.610
 13.170    535.000    571.451    -36.451    567.574    571.374    567.574    567.650    567.574
 13.270    595.147    570.765     24.382    567.533    570.687    567.533    567.609    567.533
 13.370    615.000    570.229     44.771    567.488    570.151    567.488    567.565    567.488
 13.470    586.417    569.798     16.619    567.438    569.720    567.438    567.515    567.438
 13.570    577.000    569.442      7.558    567.384    569.364    567.384    567.461    567.384
 13.670    564.000    569.143     -5.143    567.325    569.065    567.325    567.403    567.325
 13.770    572.962    568.884      4.079    567.262    568.805    567.262    567.340    567.262
 13.870    570.000    568.653      1.347    567.195    568.573    567.195    567.273    567.195
 13.970    577.000    568.444      8.556    567.123    568.365    567.123    567.202    567.123
 14.070    515.000    568.253    -53.253    567.047    568.173    567.047    567.126    567.047
 14.170    563.000    568.075     -5.075    566.966    567.995    566.966    567.046    566.966
 14.270    557.000    567.907    -10.907    566.882    567.826    566.882    566.962    566.882
 14.370    549.000    567.746    -18.746    566.793    567.665    566.793    566.874    566.793
 14.470    523.642    567.591    -43.949    566.701    567.509    566.701    566.781    566.701
 14.570    530.000    567.439    -37.439    566.604    567.358    566.604    566.685    566.604
 14.670    570.000    567.291      2.709    566.503    567.209    566.503    566.585    566.503
 14.770    546.000    567.144    -21.144    566.398    567.062    566.398    566.480    566.398
 14.870    525.605    566.999    -41.394    566.290    566.916    566.290    566.372    566.290
 14.970    579.000    566.853     12.147    566.177    566.770    566.177    566.260    566.177
 15.070    601.000    566.708     34.292    566.061    566.624    566.061    566.144    566.061
 15.170    526.709    566.562    -39.853    565.941    566.478    565.941    566.025    565.941
 15.270    535.000    566.415    -31.415    565.817    566.330    565.817    565.901    565.817
 15.370    531.824    566.267    -34.442    565.690    566.182    565.690    565.774    565.690
 15.470    568.828    566.117      2.711    565.559    566.032    565.559    565.644    565.559
 15.570    589.000    565.966     23.034    565.424    565.880    565.424    565.510    565.424
 15.670    565.000    565.812     -0.812    565.286    565.726    565.286    565.372    565.286
 15.770    549.368    565.657    -16.289    565.144    565.570    565.144    565.231    565.144
 15.870    548.000    565.500    -17.500    564.999    565.413    564.999    565.086    564.999
 15.970    583.000    565.341     17.659    564.851    565.253    564.851    564.939    564.851
 16.070    555.000    565.181    -10.181    564.699    565.093    564.699    564.787    564.699
 16.170    559.000    565.018     -6.018    564.544    564.930    564.544    564.633    564.544
 16.270    584.925    564.852     20.073    564.386    564.763    564.386    564.475    564.386
 16.370    600.551    564.684     35.868    564.224    564.594    564.224    564.314    564.224
 16.470    581.000    564.513     16.487    564.059    564.423    564.059    564.149    564.059
 16.570    556.000    564.340     -8.340    563.891    564.249    563.891    563.982    563.891
 16.670    526.253    564.164    -37.912    563.720    564.073    563.720    563.812    563.720
 16.770    545.000    563.987    -18.987    563.546    563.895    563.546    563.638    563.546
 16.870    586.000    563.807     22.193    563.369    563.715    563.369    563.462    563.369
 16.970    534.000    563.624    -29.624    563.189    563.531    563.189    563.282    563.189
 17.070    592.603    563.439     29.164    563.006    563.345    563.006    563.100    563.006
 17.170    588.000    563.251     24.749    562.821    563.157    562.821    562.915    562.821
 17.270    547.000    563.060    -16.060    562.632    562.966    562.632    562.727    562.632
 17.370    548.000    562.868    -14.868    562.440    562.772    562.440    562.536    562.440
 17.470    583.000    562.673     20.327    562.246    562.577    562.246    562.342    562.246
 17.570    523.000    562.475    -39.475    562.049    562.378    562.049    562.146    562.049
 17.670    566.086    562.275      3.811    561.850    562.178    561.850    561.947    561.850
 17.770    610.000    562.073     47.927    561.647    561.975    561.647    561.745    561.647
 17.870    518.277    561.869    -43.592    561.443    561.771    561.443    561.541    561.443
 17.970    535.317    561.663    -26.345    561.235    561.563    561.235    561.334    561.235
 18.070    597.000    561.454     35.546    561.025    561.354    561.025    561.125    561.025
 18.170    540.848    561.243    -20.395    560.813    561.142    560.813    560.913    560.813
 18.270    577.274    561.031     16.243    560.598    560.930    560.598    560.699    560.598
 18.370    530.792    560.829    -30.037    560.381    560.727    560.381    560.483    560.381
 18.470    565.000    560.624      4.376    560.161    560.521    560.161    560.264    560.161
 18.570    528.886    560.406    -31.520    559.939    560.303    559.939    560.043    559.939
 18.670    564.835    560.185      4.650    559.715    560.081    559.715    559.819    559.715
 18.770    558.000    559.963     -1.963    559.489    559.858    559.489    559.594    559.489
 18.870    549.000    559.738    -10.738    559.260    559.632    559.260    559.366    559.260
 18.970    541.000    559.511    -18.511    559.029    559.405    559.029    559.136    559.029
 19.070    518.206    559.283    -41.077    558.796    559.176    558.796    558.903    558.796
 19.170    597.426    559.053     38.373    558.561    558.945    558.561    558.669    558.561
 19.270    540.000    558.821    -18.821    558.324    558.712    558.324    558.433    558.324
 19.370    514.425    558.588    -44.162    558.085    558.478    558.085    558.195    558.085
 19.470    561.149    558.360      2.789    557.844    558.249    557.844    557.954    557.844
 19.570    556.000    558.198     -2.198    557.600    558.086    557.600    557.712    557.600
 19.670    519.000    557.994    -38.994    557.355    557.881    557.355    557.468    557.355
 19.770    546.000    557.757    -11.757    557.109    557.644    557.109    557.222    557.109
 19.870    533.827    557.517    -23.690    556.860    557.402    556.860    556.974    556.860
 19.970    486.000    557.274    -71.274    556.609    557.159    556.609    556.725    556.609
 20.070    547.000    557.032    -10.032    556.357    556.915    556.357    556.474    556.357
 20.170    564.000    556.791      7.209    556.103    556.673    556.103    556.221    556.103
 20.270    525.541    556.545    -31.004    555.847    556.427    555.847    555.966    555.847
 20.370    532.922    556.298    -23.377    555.590    556.179    555.590    555.710    555.590
 20.470    569.439    556.051     13.388    555.331    555.930    555.331    555.452    555.331
 20.570    530.146    555.804    -25.658    555.070    555.682    555.070    555.192    555.070
 20.670    552.000    555.558     -3.558    554.808    555.435    554.808    554.931    554.808
 20.770    550.000    555.308     -5.308    554.544    555.184    554.544    554.668    554.544
 20.870    551.000    555.057     -4.057    554.279    554.932    554.279    554.404    554.279
 20.970    515.000    554.806    -39.806    554.012    554.679    554.012    554.139    554.012
 21.070    580.000    554.554     25.446    553.744    554.425    553.744    553.872    553.744
 21.170    544.000    554.301    -10.301    553.474    554.172    553.474    553.604    553.474
 21.270    517.000    554.048    -37.048    553.203    553.918    553.203    553.334    553.203
 21.370    571.864    553.796     18.069    552.931    553.663    552.931    553.063    552.931
 21.470    541.000    553.543    -12.543    552.658    553.409    552.658    552.791    552.658
 21.570    537.708    553.291    -15.583    552.383    553.156    552.383    552.518    552.383
 21.670    565.000    553.045     11.955    552.107    552.908    552.107    552.243    552.107
 21.770    574.000    552.856     21.144    551.829    552.718    551.829    551.968    551.829
 21.870    561.000    552.656      8.344    551.551    552.516    551.551    551.691    551.551
 21.970    518.000    552.413    -34.413    551.271    552.271    551.271    551.413    551.271
 22.070    555.000    552.168      2.832    550.991    552.024    550.991    551.134    550.991
 22.170    574.076    551.923     22.152    550.709    551.778    550.709    550.854    550.709
 22.270    525.000    551.681    -26.681    550.426    551.534    550.426    550.573    550.426
 22.370    571.000    551.442     19.558    550.142    551.293    550.142    550.291    550.142
 22.470    571.000    551.207     19.793    549.857    551.056    549.857    550.008    549.857
 22.570    558.000    550.976      7.024    549.571    550.823    549.571    549.724    549.571
 22.670    589.156    550.751     38.405    549.284    550.596    549.284    549.440    549.284
 22.770    518.140    550.532    -32.392    548.997    550.375    548.997    549.154    548.997
 22.870    555.000    550.322      4.678    548.708    550.163    548.708    548.868    548.708
 22.970    501.000    550.122    -49.122    548.419    549.960    548.419    548.581    548.419
 23.070    491.000    549.935    -58.935    548.129    549.771    548.129    548.293    548.129
 23.170    544.000    549.764     -5.764    547.838    549.598    547.838    548.005    547.838
 23.270    506.639    549.616    -42.977    547.546    549.447    547.546    547.716    547.546
 23.370    582.000    549.490     32.510    547.253    549.319    547.253    547.426    547.253
 23.470    557.000    549.397      7.603    546.960    549.223    546.960    547.136    546.960
 23.570    572.980    549.348     23.632    546.666    549.171    546.666    546.845    546.666
 23.670    526.000    549.358    -23.358    546.372    549.178    546.372    546.553    546.372
 23.770    514.258    549.449    -35.191    546.077    549.266    546.077    546.261    546.077
 23.870    545.000    549.664     -4.664    545.781    549.478    545.781    545.969    545.781
 23.970    552.000    550.060      1.940    545.485    549.870    545.485    545.676    545.485
 24.070    533.425    550.803    -17.378    545.188    550.610    545.188    545.383    545.188
 24.170    540.276    552.328    -12.052    544.891    552.133    544.891    545.090    544.891
 24.270    592.000    555.665     36.335    544.593    555.468    544.593    544.796    544.593
 24.370    585.000    562.735     22.265    544.295    562.539    544.295    544.502    544.295
 24.470    587.000    575.806     11.194    543.996    575.616    543.996    544.208    543.996
 24.570    571.000    595.650    -24.650    543.697    595.469    543.697    543.914    543.697
 24.670    601.000    618.422    -17.422    543.397    618.253    543.397    543.620    543.397
 24.770    626.000    633.582     -7.582    543.098    633.420    543.098    543.325    543.098
 24.870    623.000    630.647     -7.647    542.798    630.477    542.798    543.031    542.798
 24.970    595.000    611.844    -16.844    542.497    611.654    542.497    542.736    542.497
 25.070    618.000    588.736     29.264    542.196    588.524    542.196    542.442    542.196
 25.170    578.000    570.094      7.906    541.895    569.861    541.895    542.148    541.895
 25.270    577.000    558.289     18.711    541.594    558.040    541.594    541.853    541.594
 25.370    546.000    551.927     -5.927    541.293    551.667    541.293    541.560    541.293
 25.470    545.000    548.711     -3.711    540.991    548.440    540.991    541.266    540.991
 25.570    524.000    546.953    -22.953    540.690    546.672    540.690    540.973    540.690
 25.670    543.000    545.840     -2.840    540.388    545.549    540.388    540.681    540.388
 25.770    575.000    545.032     29.968    540.086    544.731    540.086    540.389    540.086
 25.870    563.000    544.398     18.602    539.784    544.086    539.784    540.097    539.784
 25.970    540.000    543.883     -3.883    539.482    543.559    539.482    539.807    539.482
 26.070    561.000    543.465     17.535    539.179    543.128    539.179    539.517    539.179
 26.170    573.000    543.135     29.865    538.877    542.785    538.877    539.228    538.877
 26.270    528.000    542.841    -14.841    538.575    542.476    538.575    538.941    538.575
 26.370    542.000    542.599     -0.599    538.273    542.219    538.273    538.654    538.273
 26.470    534.000    542.411     -8.411    537.971    542.013    537.971    538.369    537.971
 26.570    579.761    542.274     37.487    537.669    541.857    537.669    538.086    537.669
 26.670    549.879    542.195      7.684    537.367    541.757    537.367    537.805    537.367
 26.770    581.424    542.192     39.233    537.065    541.731    537.065    537.526    537.065
 26.870    572.000    542.264     29.736    536.764    541.778    536.764    537.249    536.764
 26.970    546.740    542.421      4.319    536.462    541.908    536.462    536.975    536.462
 27.070    527.000    542.701    -15.701    536.161    542.158    536.161    536.705    536.161
 27.170    541.882    543.126     -1.244    535.860    542.548    535.860    536.438    535.860
 27.270    525.068    543.751    -18.684    535.559    543.135    535.559    536.175    535.559
 27.370    513.000    544.660    -31.660    535.259    544.001    535.259    535.917    535.259
 27.470    517.705    546.004    -28.298    534.958    545.296    534.958    535.665    534.958
 27.570    530.417    548.182    -17.765    534.659    547.418    534.659    535.420    534.659
 27.670    575.942    552.604     23.338    534.359    551.776    534.359    535.183    534.359
 27.770    616.000    563.941     52.059    534.059    563.038    534.059    534.955    534.059
 27.870    611.000    593.678     17.322    533.760    592.682    533.760    534.739    533.760
 27.970    702.000    659.117     42.883    533.462    658.003    533.462    534.537    533.462
 28.070    803.000    767.280     35.720    533.164    766.022    533.164    534.352    533.164
 28.170    933.831    887.669     46.162    532.866    886.250    532.866    534.188    532.866
 28.270    977.430    948.147     29.283    532.568    946.569    532.568    534.053    532.568
 28.370    875.742    900.716    -24.974    532.272    898.975    532.272    533.954    532.272
 28.470    783.281    794.153    -10.872    531.975    792.201    531.975    533.904    531.975
 28.570    758.375    709.765     48.610    531.679    707.515    531.679    533.922    531.679
 28.670    655.000    691.333    -36.333    531.384    688.675    531.384    534.033    531.384
 28.770    697.254    735.306    -38.053    531.089    732.107    531.089    534.271    531.089
 28.870    800.000    802.848     -2.848    530.794    798.944    530.794    534.677    530.794
 28.970    792.738    835.561    -42.824    530.500    830.748    530.500    535.300    530.500
 29.070    782.000    798.059    -16.059    530.207    792.080    530.207    536.189    530.207
 29.170    689.000    718.924    -29.924    529.915    711.470    529.915    537.383    529.915
 29.270    643.000    644.287     -1.287    529.622    635.040    529.622    538.884    529.622
 29.370    637.000    595.927     41.073    529.331    584.650    529.331    540.617    529.331
 29.470    555.000    572.165    -17.165    529.040    558.850    529.040    542.360    529.040
 29.570    604.000    562.475     41.525    528.750    547.532    528.750    543.694    528.750
 29.670    602.466    558.200     44.266    528.461    542.537    528.461    544.124    528.461
 29.770    538.861    555.110    -16.249    528.172    539.902    528.172    543.379    528.172
 29.870    637.000    551.969     85.031    527.884    538.213    527.884    541.640    527.884
 29.970    587.506    548.817     38.689    527.597    537.033    527.597    539.380    527.597
 30.070    546.000    545.964      0.036    527.310    536.227    527.310    537.045    527.310
 30.170    563.108    543.654     19.454    527.025    535.773    527.025    534.904    527.025
 30.270    547.000    542.112      4.888    526.740    535.788    526.740    533.061    526.740
 30.370    555.000    541.803     13.197    526.455    536.728    526.455    531.527    526.455
 30.470    555.532    543.854     11.678    526.172    539.751    526.172    530.269    526.172
 30.570    629.000    550.301     78.699    525.890    546.939    525.890    529.239    525.890
 30.670    569.000    563.283      5.717    525.608    560.479    525.608    528.390    525.608
 30.770    572.525    582.570    -10.045    525.327    580.183    525.327    527.677    525.327
 30.870    564.258    602.513    -38.255    525.047    600.445    525.047    527.065    525.047
 30.970    578.670    611.832    -33.162    524.768    610.021    524.768    526.526    524.768
 31.070    600.000    602.929     -2.929    524.490    601.334    524.490    526.041    524.490
 31.170    578.000    582.372     -4.372    524.213    580.960    524.213    525.596    524.213
 31.270    544.000    561.477    -17.477    523.937    560.216    523.937    525.181    523.937
 31.370    565.407    546.429     18.978    523.661    545.292    523.661    524.789    523.661
 31.470    531.874    537.822     -5.948    523.387    536.788    523.387    524.417    523.387
 31.570    529.000    533.582     -4.582    523.113    532.634    523.113    524.059    523.113
 31.670    549.401    531.559     17.842    522.841    530.684    522.841    523.714    522.841
 31.770    499.000    530.482    -31.482    522.570    529.671    522.570    523.380    522.570
 31.870    549.000    529.807     19.193    522.299    529.051    522.299    523.055    522.299
 31.970    529.463    529.342      0.121    522.030    528.634    522.030    522.737    522.030
 32.070    508.488    529.022    -20.534    521.762    528.357    521.762    522.426    521.762
 32.170    576.000    528.824     47.176    521.494    528.195    521.494    522.122    521.494
 32.270    510.668    528.738    -18.069    521.228    528.142    521.228    521.822    521.228
 32.370    511.851    528.765    -16.913    520.963    528.199    520.963    521.528    520.963
 32.470    528.713    528.915     -0.202    520.699    528.376    520.699    521.237    520.699
 32.570    521.332    529.204     -7.872    520.436    528.689    520.436    520.950    520.436
 32.670    570.403    529.660     40.743    520.174    529.166    520.174    520.667    520.174
 32.770    525.000    530.322     -5.322    519.914    529.848    519.914    520.387    519.914
 32.870    544.603    531.249     13.353    519.654    530.792    519.654    520.110    519.654
 32.970    557.000    532.527     24.473    519.396    532.085    519.396    519.836    519.396
 33.070    503.654    534.290    -30.636    519.139    533.862    519.139    519.565    519.139
 33.170    513.001    536.788    -23.787    518.883    536.374    518.883    519.296    518.883
 33.270    546.000    540.606      5.394    518.628    540.202    518.628    519.029    518.628
 33.370    526.000    547.303    -21.303    518.374    546.909    518.374    518.764    518.374
 33.470    548.000    560.835    -12.835    518.122    560.449    518.122    518.502    518.122
 33.570    605.301    589.433     15.868    517.870    589.050    517.870    518.242    517.870
 33.670    689.081    645.595     43.486    517.620    645.212    517.620    517.984    517.620
 33.770    774.000    740.091     33.909    517.372    739.701    517.372    517.727    517.372
 33.870    904.586    868.630     35.956    517.124    868.232    517.124    517.473    517.124
 33.970   1033.349    997.136     36.213    516.878    996.736    516.878    517.221    516.878
 34.070   1030.000   1061.821    -31.821    516.633   1061.437    516.633    516.970    516.633
 34.170   1015.000   1018.392     -3.392    516.389   1018.037    516.389    516.721    516.389
 34.270    892.000    898.350     -6.350    516.147    898.023    516.147    516.474    516.147
 34.370    795.000    765.890     29.110    515.906    765.577    515.906    516.228    515.906
 34.470    672.000    662.278      9.722    515.666    661.969    515.666    515.984    515.666
 34.570    624.822    597.493     27.330    515.428    597.185    515.428    515.742    515.428
 34.670    579.000    563.038     15.962    515.191    562.730    515.191    515.502    515.191
 34.770    539.052    546.211     -7.159    514.955    545.904    514.955    515.263    514.955
 34.870    554.000    537.752     16.248    514.721    537.447    514.721    515.026    514.721
 34.970    523.362    532.869     -9.507    514.488    532.566    514.488    514.790    514.488
 35.070    553.380    529.572     23.808    514.256    529.272    514.256    514.556    514.256
 35.170    499.000    527.107    -28.107    514.026    526.809    514.026    514.324    514.026
 35.270    551.000    525.169     25.831    513.797    524.872    513.797    514.093    513.797
 35.370    561.134    523.602     37.532    513.569    523.308    513.569    513.864    513.569
 35.470    547.000    522.308     24.692    513.343    522.015    513.343    513.636    513.343
 35.570    525.339    521.219      4.120    513.118    520.927    513.118    513.410    513.118
 35.670    540.000    520.289     19.711    512.895    519.998    512.895    513.186    512.895
 35.770    502.000    519.484    -17.484    512.673    519.194    512.673    512.963    512.673
 35.870    494.000    518.779    -24.779    512.453    518.490    512.453    512.742    512.453
 35.970    555.000    518.156     36.844    512.234    517.867    512.234    512.522    512.234
 36.070    505.000    517.600    -12.600    512.016    517.312    512.016    512.304    512.016
 36.170    517.671    517.101      0.570    511.800    516.814    511.800    512.088    511.800
 36.270    532.670    516.653     16.018    511.586    516.365    511.586    511.873    511.586
 36.370    490.000    516.248    -26.248    511.373    515.961    511.373    511.660    511.373
 36.470    485.000    515.885    -30.885    511.161    515.597    511.161    511.448    511.161
 36.570    518.934    515.562      3.372    510.951    515.274    510.951    511.238    510.951
 36.670    512.000    515.281     -3.281    510.742    514.993    510.742    511.030    510.742
 36.770    515.000    515.051     -0.051    510.535    514.763    510.535    510.823    510.535
 36.870    520.000    514.897      5.103    510.329    514.608    510.329    510.618    510.329
 36.970    487.000    514.879    -27.879    510.125    514.590    510.125    510.414    510.125
 37.070    537.000    515.126     21.874    509.922    514.836    509.922    510.212    509.922
 37.170    525.000    515.856      9.144    509.721    515.566    509.721    510.012    509.721
 37.270    543.620    517.346     26.274    509.521    517.055    509.521    509.813    509.521
 37.370    555.330    519.787     35.543    509.323    519.496    509.323    509.616    509.323
 37.470    526.000    523.052      2.948    509.127    522.760    509.127    509.421    509.127
 37.570    511.000    526.430    -15.430    508.932    526.138    508.932    509.227    508.932
 37.670    500.000    528.606    -28.606    508.738    528.315    508.738    509.034    508.738
 37.770    505.000    528.449    -23.449    508.546    528.158    508.546    508.844    508.546
 37.870    534.000    526.141      7.859    508.356    525.850    508.356    508.655    508.356
 37.970    542.000    522.841     19.159    508.167    522.551    508.167    508.468    508.167
 38.070    497.000    519.532    -22.532    507.980    519.241    507.980    508.282    507.980
 38.170    495.000    516.676    -21.676    507.794    516.381    507.794    508.098    507.794
 38.270    494.000    514.460    -20.460    507.610    514.161    507.610    507.916    507.610
 38.370    487.000    512.889    -25.889    507.427    512.586    507.427    507.735    507.427
 38.470    502.310    511.834     -9.525    507.246    511.527    507.246    507.556    507.246
 38.570    552.000    511.137     40.863    507.067    510.827    507.067    507.379    507.067
 38.670    519.112    510.661      8.451    506.889    510.347    506.889    507.203    506.889
 38.770    524.851    510.310     14.541    506.713    509.994    506.713    507.030    506.713
 38.870    480.182    510.027    -29.846    506.539    509.709    506.539    506.857    506.539
 38.970    485.000    509.783    -24.783    506.366    509.462    506.366    506.687    506.366
 39.070    493.000    509.563    -16.563    506.194    509.240    506.194    506.518    506.194
 39.170    524.000    509.361     14.639    506.024    509.035    506.024    506.351    506.024
 39.270    546.000    509.172     36.828    505.856    508.843    505.856    506.186    505.856
 39.370    503.000    508.996     -5.996    505.690    508.664    505.690    506.022    505.690
 39.470    508.000    508.830     -0.830    505.525    508.495    505.525    505.860    505.525
 39.570    508.000    508.674     -0.674    505.362    508.336    505.362    505.700    505.362
 39.670    513.000    508.526      4.474    505.200    508.186    505.200    505.541    505.200
 39.770    473.336    508.388    -35.052    505.040    508.044    505.040    505.384    505.040
 39.870    474.825    508.258    -33.433    504.882    507.911    504.882    505.229    504.882
 39.970    530.122    508.137     21.985    504.725    507.786    504.725    505.076    504.725
 40.070    489.000    508.025    -19.025    504.570    507.670    504.570    504.925    504.570
 40.170    532.202    507.922     24.280    504.416    507.564    504.416    504.775    504.416
 40.270    503.000    507.829     -4.829    504.264    507.467    504.264    504.627    504.264
 40.370    496.729    507.747    -11.019    504.114    507.382    504.114    504.480    504.114
 40.470    506.000    507.677     -1.677    503.966    507.308    503.966    504.336    503.966
 40.570    518.000    507.621     10.379    503.819    507.247    503.819    504.193    503.819
 40.670    498.385    507.580     -9.195    503.674    507.201    503.674    504.052    503.674
 40.770    492.813    507.556    -14.742    503.530    507.173    503.530    503.913    503.530
 40.870    456.000    507.553    -51.553    503.388    507.165    503.388    503.776    503.388
 40.970    499.000    507.574     -8.574    503.248    507.182    503.248    503.640    503.248
 41.070    504.000    507.624     -3.624    503.109    507.227    503.109    503.507    503.109
 41.170    497.000    507.711    -10.711    502.972    507.309    502.972    503.375    502.972
 41.270    477.166    507.842    -30.676    502.837    507.435    502.837    503.245    502.837
 41.370    529.000    508.030     20.970    502.703    507.618    502.703    503.116    502.703
 41.470    508.000    508.293     -0.293    502.571    507.875    502.571    502.990    502.571
 41.570    477.280    508.657    -31.377    502.441    508.234    502.441    502.865    502.441
 41.670    509.000    509.176     -0.176    502.312    508.747    502.312    502.743    502.312
 41.770    459.000    509.963    -50.963    502.185    509.528    502.185    502.622    502.185
 41.870    505.000    511.286     -6.286    502.060    510.845    502.060    502.503    502.060
 41.970    492.000    513.729    -21.729    501.936    513.283    501.936    502.386    501.936
 42.070    524.000    518.397      5.603    501.814    517.946    501.814    502.271    501.814
 42.170    504.227    526.962    -22.735    501.693    526.509    501.693    502.157    501.693
 42.270    585.394    541.239     44.155    501.575    540.786    501.575    502.046    501.575
 42.370    533.566    562.062    -28.496    501.458    561.611    501.458    501.936    501.458
 42.470    566.288    587.686    -21.398    501.342    587.241    501.342    501.829    501.342
 42.570    633.000    612.395     20.605    501.228    611.955    501.228    501.723    501.228
 42.670    658.791    626.948     31.843    501.116    626.510    501.116    501.620    501.116
 42.770    592.000    624.052    -32.052    501.006    623.607    501.006    501.518    501.006
 42.870    573.000    605.348    -32.348    500.897    604.887    500.897    501.418    500.897
 42.970    550.000    579.494    -29.494    500.790    579.009    500.790    501.321    500.790
 43.070    566.000    554.844     11.156    500.684    554.335    500.684    501.225    500.684
 43.170    505.000    535.833    -30.833    500.581    535.302    500.581    501.132    500.581
 43.270    495.000    523.277    -28.277    500.478    522.727    500.478    501.040    500.478
 43.370    493.000    515.914    -22.914    500.378    515.349    500.378    500.951    500.378
 43.470    491.000    511.905    -20.905    500.279    511.325    500.279    500.864    500.279
 43.570    508.019    509.740     -1.721    500.182    509.147    500.182    500.779    500.182
 43.670    460.000    508.486    -48.486    500.086    507.880    500.086    500.696    500.086
 43.770    542.000    507.672     34.328    499.992    507.052    499.992    500.615    499.992
 43.870    516.000    507.087      8.913    499.900    506.452    499.900    500.537    499.900
 43.970    548.345    506.639     41.706    499.809    505.990    499.809    500.460    499.809
 44.070    479.000    506.287    -27.287    499.720    505.622    499.720    500.387    499.720
 44.170    481.393    506.005    -24.613    499.633    505.324    499.633    500.315    499.633
 44.270    537.000    505.780     31.220    499.547    505.082    499.547    500.246    499.547
 44.370    540.563    505.600     34.964    499.463    504.884    499.463    500.180    499.463
 44.470    522.538    505.457     17.082    499.381    504.722    499.381    500.116    499.381
 44.570    500.000    505.345     -5.345    499.300    504.592    499.300    500.054    499.300
 44.670    540.541    505.261     35.280    499.221    504.487    499.221    499.995    499.221
 44.770    511.000    505.201      5.799    499.143    504.406    499.143    499.939    499.143
 44.870    465.900    505.164    -39.264    499.067    504.345    499.067    499.886    499.067
 44.970    526.000    505.146     20.854    498.993    504.303    498.993    499.836    498.993
 45.070    497.000    505.148     -8.148    498.920    504.279    498.920    499.789    498.920
 45.170    547.454    505.168     42.286    498.849    504.272    498.849    499.745    498.849
 45.270    492.441    505.206    -12.765    498.780    504.282    498.780    499.704    498.780
 45.370    490.605    505.263    -14.658    498.712    504.308    498.712    499.667    498.712
 45.470    510.000    505.338      4.662    498.646    504.350    498.646    499.633    498.646
 45.570    531.000    505.433     25.567    498.581    504.410    498.581    499.603    498.581
 45.670    522.000    505.548     16.452    498.518    504.488    498.518    499.577    498.518
 45.770    534.000    505.685     28.315    498.456    504.586    498.456    499.556    498.456
 45.870    473.000    505.846    -32.846    498.397    504.704    498.397    499.539    498.397
 45.970    501.000    506.033     -5.033    498.338    504.845    498.338    499.526    498.338
 46.070    477.000    506.249    -29.249    498.282    505.012    498.282    499.519    498.282
 46.170    487.000    506.499    -19.499    498.227    505.208    498.227    499.517    498.227
 46.270    524.000    506.787     17.213    498.173    505.437    498.173    499.522    498.173
 46.370    499.000    507.119     -8.119    498.121    505.707    498.121    499.533    498.121
 46.470    504.000    507.504     -3.504    498.071    506.023    498.071    499.550    498.071
 46.570    470.349    507.953    -37.604    498.022    506.398    498.022    499.576    498.022
 46.670    512.000    508.485      3.515    497.975    506.848    497.975    499.610    497.975
 46.770    544.236    509.131     35.106    497.929    507.404    497.929    499.654    497.929
 46.870    519.000    509.956      9.044    497.885    508.130    497.885    499.709    497.885
 46.970    476.692    511.100    -34.408    497.842    509.165    497.842    499.775    497.842
 47.070    500.000    512.851    -12.851    497.801    510.793    497.801    499.855    497.801
 47.170    538.661    515.729     22.932    497.761    513.535    497.761    499.950    497.761
 47.270    486.000    520.529    -34.529    497.723    518.182    497.723    500.062    497.723
 47.370    553.074    528.191     24.883    497.687    525.670    497.687    500.195    497.687
 47.470    551.471    539.409     12.062    497.652    536.688    497.652    500.350    497.652
 47.570    543.000    554.004    -11.004    497.619    551.057    497.619    500.534    497.619
 47.670    597.000    570.273     26.727    497.587    567.066    497.587    500.750    497.587
 47.770    582.471    584.594     -2.123    497.556    581.093    497.556    501.005    497.556
 47.870    609.000    592.136     16.864    497.528    588.297    497.528    501.310    497.528
 47.970    605.466    589.925     15.540    497.500    585.697    497.500    501.676    497.500
 48.070    593.000    579.635     13.365    497.474    574.943    497.474    502.123    497.474
 48.170    593.214    565.895     27.319    497.450    560.637    497.450    502.677    497.450
 48.270    556.000    552.944      3.056    497.427    546.974    497.427    503.376    497.427
 48.370    577.000    543.232     33.768    497.406    536.351    497.406    504.273    497.406
 48.470    558.249    537.527     20.722    497.386    529.464    497.386    505.440    497.386
 48.570    529.000    535.520     -6.520    497.367    525.913    497.367    506.968    497.367
 48.670    556.652    536.485     20.167    497.350    524.862    497.350    508.969    497.350
 48.770    564.000    539.766     24.234    497.334    525.531    497.334    511.565    497.334
 48.870    556.000    544.980     11.020    497.320    527.421    497.320    514.876    497.320
 48.970    544.000    552.042     -8.042    497.308    530.353    497.308    518.994    497.308
 49.070    593.000    561.129     31.871    497.296    534.475    497.296    523.947    497.296
 49.170    568.000    572.820     -4.820    497.287    540.461    497.287    529.641    497.287
 49.270    552.000    588.671    -36.671    497.278    550.170    497.278    535.773    497.278
 49.370    591.488    612.627    -21.139    497.271    568.167    497.271    541.720    497.271
 49.470    676.000    653.546     22.454    497.266    604.278    497.266    546.511    497.266
 49.570    774.000    728.135     45.865    497.261    676.310    497.261    549.044    497.261
 49.670    841.000    861.400    -20.400    497.259    809.973    497.259    548.612    497.259
 49.770   1088.168   1079.786      8.382    497.257   1031.579    497.257    545.350    497.257
 49.870   1441.025   1394.254     46.770    497.257   1351.220    497.257    540.141    497.257
 49.970   1791.929   1778.467     13.462    497.259   1741.479    497.259    534.084    497.259
 50.070   2137.731   2155.315    -17.584    497.262   2124.396    497.262    528.054    497.262
 50.170   2463.258   2408.720     54.538    497.266   2383.376    497.266    522.571    497.266
 50.270   2402.000   2436.692    -34.692    497.271   2416.167    497.271    517.871    497.271
 50.370   2264.560   2224.968     39.591    497.278   2208.400    497.278    514.006    497.278
 50.470   1866.105   1860.802      5.302    497.286   1847.353    497.286    510.926    497.286
 50.570   1374.000   1465.442    -91.442    497.296   1454.385    497.296    508.529    497.296
 50.670   1130.072   1129.427      0.645    497.307   1120.181    497.307    506.691    497.307
 50.770    859.000    891.825    -32.825    497.319    883.948    497.319    505.293    497.319
 50.870    773.000    748.708     24.292    497.332    741.878    497.332    504.229    497.332
 50.970    679.000    673.722      5.278    497.347    667.706    497.347    503.413    497.347
 51.070    669.000    637.165     31.835    497.363    631.791    497.363    502.779    497.363
 51.170    649.000    616.795     32.205    497.381    611.934    497.381    502.278    497.381
 51.270    627.000    600.818     26.182    497.400    596.372    497.400    501.876    497.400
 51.370    593.000    585.637      7.363    497.420    581.532    497.420    501.549    497.420
 51.470    581.000    571.553      9.447    497.441    567.732    497.441    501.281    497.441
 51.570    549.000    559.630    -10.630    497.463    556.049    497.463    501.059    497.463
 51.670    550.000    550.501     -0.501    497.487    547.123    497.487    500.874    497.487
 51.770    547.000    544.187      2.813    497.512    540.984    497.512    500.722    497.512
 51.870    537.000    540.287     -3.287    497.539    537.235    497.539    500.596    497.539
 51.970    501.721    538.251    -36.530    497.566    535.328    497.566    500.493    497.566
 52.070    572.000    537.601     34.399    497.595    534.789    497.595    500.410    497.595
 52.170    604.000    538.049     65.951    497.625    535.332    497.625    500.345    497.625
 52.270    556.000    539.550     16.450    497.656    536.914    497.656    500.295    497.656
 52.370    566.000    542.362     23.638    497.688    539.794    497.688    500.259    497.688
 52.470    524.633    547.224    -22.591    497.722    544.713    497.722    500.235    497.722
 52.570    540.000    555.692    -15.692    497.757    553.227    497.757    500.223    497.757
 52.670    541.921    570.595    -28.675    497.793    568.168    497.793    500.221    497.793
 52.770    634.543    596.378     38.164    497.830    593.980    497.830    500.229    497.830
 52.870    614.381    638.877    -24.495    497.868    636.499    497.868    500.245    497.868
 52.970    705.000    703.965      1.035    497.907    701.601    497.907    500.270    497.907
 53.070    840.000    794.870     45.130    497.948    792.515    497.948    500.303    497.948
 53.170    927.981    908.630     19.351    497.990    906.279    497.990    500.343    497.990
 53.270   1011.000   1032.744    -21.744    498.033   1030.395    498.033    500.391    498.033
 53.370   1082.585   1143.529    -60.944    498.076   1141.179    498.076    500.445    498.076
 53.470   1179.000   1209.928    -30.928    498.122   1207.576    498.122    500.507    498.122
 53.570   1257.781   1208.143     49.639    498.168   1205.780    498.168    500.575    498.168
 53.670   1157.669   1139.049     18.620    498.215   1136.665    498.215    500.650    498.215
 53.770   1023.000   1027.404     -4.404    498.263   1024.984    498.263    500.731    498.263
 53.870    939.000    904.054     34.946    498.313    901.588    498.313    500.819    498.313
 53.970    786.031    792.052     -6.021    498.363    789.533    498.363    500.914    498.363
 54.070    676.642    703.289    -26.647    498.415    700.710    498.415    501.016    498.415
 54.170    655.000    640.291     14.709    498.467    637.649    498.467    501.126    498.467
 54.270    634.000    599.597     34.403    498.521    596.886    498.521    501.242    498.521
 54.370    600.565    575.282     25.284    498.576    572.497    498.576    501.367    498.576
 54.470    556.000    561.572     -5.572    498.631    558.709    498.631    501.499    498.631
 54.570    540.000    554.116    -14.116    498.688    551.167    498.688    501.640    498.688
 54.670    516.144    550.162    -34.018    498.746    547.121    498.746    501.790    498.746
 54.770    556.924    548.196      8.728    498.804    545.053    498.804    501.949    498.804
 54.870    554.000    547.468      6.532    498.864    544.215    498.864    502.119    498.864
 54.970    555.916    547.643      8.273    498.925    544.271    498.925    502.299    498.925
 55.070    580.000    548.589     31.411    498.986    545.086    498.986    502.491    498.986
 55.170    550.078    550.276     -0.198    499.049    546.630    499.049    502.696    499.049
 55.270    515.234    552.736    -37.502    499.112    548.936    499.112    502.915    499.112
 55.370    566.000    556.064      9.936    499.177    552.094    499.177    503.148    499.177
 55.470    572.000    560.441     11.559    499.242    556.286    499.242    503.398    499.242
 55.570    583.000    566.225     16.775    499.308    561.869    499.308    503.667    499.308
 55.670    542.490    574.164    -31.674    499.376    569.586    499.376    503.955    499.376
 55.770    566.246    585.846    -19.600    499.444    581.025    499.444    504.265    499.444
 55.870    617.000    604.533     12.467    499.513    599.444    499.513    504.600    499.513
 55.970    626.000    636.389    -10.389    499.582    631.004    499.582    504.963    499.582
 56.070    684.000    691.803     -7.803    499.653    686.090    499.653    505.356    499.653
 56.170    753.000    785.857    -32.857    499.725    779.777    499.725    505.785    499.725
 56.270    883.413    936.478    -53.066    499.797    929.992    499.797    506.253    499.797
 56.370   1093.000   1158.983    -65.983    499.871   1152.045    499.871    506.767    499.871
 56.470   1512.400   1457.190     55.210    499.945   1449.756    499.945    507.332    499.945
 56.570   1783.399   1813.539    -30.140    500.020   1805.566    500.020    507.956    500.020
 56.670   2144.000   2181.967    -37.967    500.095   2173.407    500.095    508.650    500.095
 56.770   2476.000   2488.071    -12.071    500.172   2478.873    500.172    509.426    500.172
 56.870   2582.000   2646.371    -64.371    500.249   2636.460    500.249    510.297    500.249
 56.970   2564.000   2603.359    -39.359    500.327   2592.619    500.327    511.286    500.327
 57.070   2448.000   2375.793     72.207    500.406   2364.048    500.406    512.418    500.406
 57.170   2053.996   2036.878     17.118    500.486   2023.904    500.486    513.733    500.486
 57.270   1651.000   1670.387    -19.387    500.566   1655.913    500.566    515.284    500.566
 57.370   1316.000   1339.316    -23.316    500.647   1323.012    500.647    517.147    500.647
 57.470   1039.000   1077.262    -38.262    500.729   1058.704    500.729    519.429    500.729
 57.570    901.000    891.932      9.068    500.812    870.562    500.812    522.277    500.812
 57.670    791.000    774.006     16.994    500.895    749.074    500.895    525.886    500.895
 57.770    740.000    707.127     32.873    500.979    677.638    500.979    530.501    500.979
 57.870    720.679    675.644     45.035    501.064    640.306    501.064    536.418    501.064
 57.970    658.132    668.612    -10.480    501.149    625.800    501.149    543.965    501.149
 58.070    751.000    680.532     70.468    501.235    628.283    501.235    553.479    501.235
 58.170    702.933    710.124     -7.191    501.322    646.173    501.322    565.258    501.322
 58.270    733.000    758.278    -25.278    501.409    680.158    501.409    579.505    501.409
 58.370    810.000    825.879    -15.879    501.497    731.097    501.497    596.246    501.497
 58.470    875.000    911.845    -36.845    501.585    798.180    501.585    615.211    501.585
 58.570    984.000   1011.622    -27.622    501.674    877.590    501.674    635.665    501.674
 58.670   1067.000   1116.591    -49.591    501.764    962.127    501.764    656.192    501.764
 58.770   1267.020   1215.392     51.628    501.855   1042.693    501.855    674.529    501.855
 58.870   1285.000   1296.902    -11.902    501.946   1111.081    501.946    687.758    501.946
 58.970   1368.000   1351.954     16.046    502.037   1160.851    502.037    693.150    502.037
 59.070   1456.000   1373.134     82.866    502.129   1185.844    502.129    689.447    502.129
 59.170   1402.000   1357.295     44.705    502.222   1181.980    502.222    677.577    502.222
 59.270   1286.953   1310.179    -23.226    502.315   1152.429    502.315    660.107    502.315
 59.370   1292.000   1246.144     45.856    502.409   1108.593    502.409    639.987    502.409
 59.470   1220.000   1182.157     37.843    502.503   1065.052    502.503    619.611    502.503
 59.570   1201.000   1133.478     67.522    502.598   1035.514    502.598    600.529    502.598
 59.670   1162.000   1113.462     48.538    502.693   1032.499    502.693    583.580    502.693
 59.770   1127.000   1132.601     -5.601    502.789   1066.163    502.789    569.100    502.789
 59.870   1227.000   1194.157     32.843    502.885   1139.755    502.885    557.107    502.885
 59.970   1256.068   1289.785    -33.717    502.981   1245.111    502.981    547.425    502.981
 60.070   1430.000   1398.210     31.790    503.078   1361.257    503.078    539.766    503.078
 60.170   1552.000   1487.658     64.342    503.176   1456.759    503.176    533.799    503.176
 60.270   1543.000   1524.167     18.833    503.274   1497.992    503.274    529.192    503.274
 60.370   1570.000   1487.225     82.775    503.372   1464.743    503.372    525.647    503.372
 60.470   1336.034   1382.008    -45.974    503.471   1362.422    503.471    522.909    503.471
 60.570   1216.000   1234.229    -18.229    503.570   1216.927    503.570    520.779    503.570
 60.670   1095.000   1074.753     20.247    503.670   1059.267    503.670    519.105    503.670
 60.770    916.517    928.409    -11.892    503.770    914.379    503.770    517.777    503.770
 60.870    844.000    809.939     34.061    503.870    797.082    503.870    516.718    503.870
 60.970    689.842    724.403    -34.561    503.971    712.495    503.971    515.875    503.971
 61.070    691.471    670.097     21.374    504.072    658.954    504.072    515.209    504.072
 61.170    666.000    642.473     23.527    504.173    631.942    504.173    514.693    504.173
 61.270    652.000    637.601     14.399    504.275    627.550    504.275    514.306    504.275
 61.370    680.000    654.206     25.794    504.377    644.524    504.377    514.026    504.377
 61.470    657.993    693.947    -35.954    504.479    684.545    504.479    513.832    504.479
 61.570    713.713    760.051    -46.338    504.582    750.865    504.582    513.696    504.582
 61.670    891.827    854.667     37.159    504.685    845.671    504.685    513.583    504.685
 61.770   1035.000    975.663     59.337    504.788    966.869    504.788    513.453    504.788
 61.870   1136.000   1113.805     22.195    504.891   1105.271    504.891    513.271    504.891
 61.970   1233.719   1251.328    -17.609    504.995   1243.139    504.995    513.015    504.995
 62.070   1386.698   1362.970     23.728    505.099   1355.215    505.099    512.687    505.099
 62.170   1362.000   1421.700    -59.700    505.203   1414.449    505.203    512.310    505.203
 62.270   1309.000   1410.430   -101.430    505.307   1403.719    505.307    511.913    505.307
 62.370   1326.985   1332.319     -5.334    505.411   1326.144    505.411    511.523    505.411
 62.470   1201.989   1208.532     -6.544    505.516   1202.860    505.516    511.161    505.516
 62.570   1039.000   1066.354    -27.354    505.621   1061.136    505.621    510.836    505.621
 62.670    877.000    929.118    -52.118    505.726    924.300    505.726    510.554    505.726
 62.770    855.153    811.979     43.174    505.831    807.508    505.831    510.316    505.831
 62.870    701.000    721.573    -20.573    505.936    717.401    505.936    510.121    505.936
 62.970    691.105    657.718     33.387    506.042    653.805    506.042    509.963    506.042
 63.070    578.960    616.098    -37.138    506.147    612.409    506.147    509.840    506.147
 63.170    570.000    590.935    -20.935    506.253    587.441    506.253    509.747    506.253
 63.270    597.772    576.921     20.851    506.359    573.598    506.359    509.679    506.359
 63.370    571.529    570.196      1.333    506.465    567.023    506.465    509.632    506.465
 63.470    550.000    568.586    -18.586    506.571    565.547    506.571    509.603    506.571
 63.570    567.000    571.466     -4.466    506.677    568.544    506.677    509.588    506.677
 63.670    560.384    579.492    -19.108    506.783    576.675    506.783    509.586    506.783
 63.770    635.955    594.312     41.643    506.889    591.587    506.889    509.593    506.889
 63.870    626.000    618.161      7.839    506.995    615.517    506.995    509.610    506.995
 63.970    612.311    653.261    -40.950    507.101    650.685    507.101    509.634    507.101
 64.070    704.005    700.963      3.043    507.207    698.446    507.207    509.664    507.207
 64.170    731.800    760.752    -28.952    507.314    758.287    507.314    509.701    507.314
 64.270    882.989    829.313     53.676    507.420    826.893    507.420    509.743    507.420
 64.370    892.586    899.913     -7.327    507.526    897.537    507.526    509.790    507.526
 64.470    914.466    962.583    -48.118    507.632    960.254    507.632    509.841    507.632
 64.570    937.000   1006.113    -69.113    507.738   1003.837    507.738    509.896    507.738
 64.670   1070.949   1022.224     48.725    507.844   1020.009    507.844    509.955    507.844
 64.770   1098.000   1009.172     88.828    507.950   1007.022    507.950    510.018    507.950
 64.870    941.608    971.623    -30.016    508.056    969.539    508.056    510.084    508.056
 64.970    899.000    918.080    -19.080    508.162    916.059    508.162    510.153    508.162
 65.070    880.000    858.046     21.954    508.267    856.081    508.267    510.225    508.267
 65.170    774.000    799.472    -25.472    508.373    797.555    508.373    510.300    508.373
 65.270    748.000    747.221      0.779    508.478    745.343    508.478    510.377    508.478
 65.370    743.948    703.126     40.822    508.583    701.280    508.583    510.457    508.583
 65.470    651.000    667.133    -16.133    508.689    665.311    508.689    510.539    508.689
 65.570    618.000    638.477    -20.477    508.794    636.673    508.794    510.623    508.794
 65.670    597.987    616.207    -18.219    508.898    614.416    508.898    510.709    508.898
 65.770    555.061    599.316    -44.255    509.003    597.537    509.003    510.797    509.003
 65.870    534.000    586.840    -52.840    509.108    585.070    509.108    510.887    509.108
 65.970    548.113    577.951    -29.838    509.212    576.189    509.212    510.979    509.212
 66.070    613.190    571.986     41.205    509.316    570.232    509.316    511.073    509.316
 66.170    546.000    568.424    -22.424    509.420    566.676    509.420    511.169    509.420
 66.270    532.000    566.857    -34.857    509.523    565.116    509.523    511.266    509.523
 66.370    572.000    566.992      5.008    509.627    565.254    509.627    511.366    509.627
 66.470    600.834    568.677     32.158    509.730    566.941    509.730    511.467    509.730
 66.570    541.764    571.977    -30.213    509.832    570.242    509.832    511.569    509.832
 66.670    580.000    577.307      2.693    509.935    575.571    509.935    511.673    509.935
 66.770    569.000    585.643    -16.643    510.037    583.903    510.037    511.779    510.037
 66.870    641.414    598.857     42.556    510.139    597.111    510.139    511.887    510.139
 66.970    628.000    620.158      7.842    510.241    618.402    510.241    511.997    510.241
 67.070    642.236    654.520    -12.284    510.342    652.752    510.342    512.108    510.342
 67.170    641.000    708.893    -67.893    510.443    707.109    510.443    512.221    510.443
 67.270    837.616    791.838     45.779    510.544    790.036    510.544    512.336    510.544
 67.370    944.000    912.239     31.761    510.644    910.419    510.644    512.453    510.644
 67.470   1053.000   1076.938    -23.938    510.744   1075.102    510.744    512.573    510.744
 67.570   1263.000   1287.538    -24.538    510.844   1285.690    510.844    512.694    510.844
 67.670   1546.000   1537.073      8.927    510.943   1535.223    510.943    512.817    510.943
 67.770   1798.764   1807.496     -8.732    511.041   1805.655    511.041    512.943    511.041
 67.870   2028.652   2068.838    -40.186    511.140   2067.020    511.140    513.072    511.140
 67.970   2227.000   2281.357    -54.357    511.238   2279.572    511.238    513.203    511.238
 68.070   2466.024   2403.415     62.610    511.335   2401.665    511.335    513.337    511.335
 68.170   2378.330   2406.552    -28.221    511.432   2404.824    511.432    513.474    511.432
 68.270   2229.759   2290.007    -60.248    511.529   2288.272    511.529    513.614    511.529
 68.370   2123.000   2081.187     41.813    511.625   2079.407    511.625    513.758    511.625
 68.470   1869.000   1821.527     47.473    511.721   1819.670    511.721    513.906    511.721
 68.570   1531.000   1551.122    -20.122    511.816   1549.164    511.816    514.058    511.816
 68.670   1300.194   1300.484     -0.291    511.911   1298.411    511.911    514.214    511.911
 68.770   1102.000   1088.218     13.782    512.005   1086.023    512.005    514.376    512.005
 68.870    879.858    921.758    -41.900    512.099    919.442    512.099    514.542    512.099
 68.970    825.000    799.828     25.172    512.192    797.394    512.192    514.715    512.192
 69.070    712.000    715.751     -3.751    512.285    713.200    512.285    514.895    512.285
 69.170    636.000    660.665    -24.665    512.377    658.000    512.377    515.081    512.377
 69.270    616.000    625.948     -9.948    512.468    623.167    512.468    515.276    512.468
 69.370    598.113    604.544     -6.430    512.559    601.641    512.559    515.479    512.559
 69.470    601.000    591.361      9.639    512.650    588.330    512.650    515.693    512.650
 69.570    607.000    583.079     23.921    512.739    579.910    512.739    515.917    512.739
 69.670    541.284    577.706    -36.423    512.829    574.388    512.829    516.154    512.829
 69.770    599.000    574.129     24.871    512.917    570.647    512.917    516.404    512.917
 69.870    547.000    571.757    -24.757    513.005    568.096    513.005    516.671    513.005
 69.970    560.106    570.293    -10.187    513.093    566.434    513.093    516.955    513.093
 70.070    612.890    569.597     43.293    513.179    565.520    513.179    517.259    513.179
 70.170    572.000    569.626      2.374    513.266    565.308    513.266    517.586    513.266
 70.270    546.000    570.413    -24.413    513.351    565.826    513.351    517.939    513.351
 70.370    578.110    572.088      6.022    513.436    567.200    513.436    518.323    513.436
 70.470    575.000    574.933      0.067    513.520    569.709    513.520    518.742    513.520
 70.570    567.118    579.489    -12.371    513.603    573.885    513.603    519.204    513.603
 70.670    602.000    586.719     15.281    513.686    580.681    513.686    519.717    513.686
 70.770    648.000    598.218     49.782    513.768    591.681    513.768    520.294    513.768
 70.870    573.000    616.459    -43.459    513.849    609.340    513.849    520.951    513.849
 70.970    636.000    644.962     -8.962    513.930    637.151    513.930    521.714    513.930
 71.070    709.895    688.276     21.619    514.010    679.627    514.010    522.618    514.010
 71.170    736.000    751.600    -15.600    514.089    741.918    514.089    523.713    514.089
 71.270    800.000    839.923    -39.923    514.167    828.940    514.167    525.069    514.167
 71.370    916.303    956.654    -40.351    514.245    944.011    514.245    526.781    514.245
 71.470   1095.000   1101.957     -6.957    514.322   1087.172    514.322    528.973    514.322
 71.570   1207.000   1271.122    -64.122    514.398   1253.562    514.398    531.798    514.398
 71.670   1368.000   1453.400    -85.400    514.473   1432.255    514.473    535.440    514.473
 71.770   1689.000   1631.661     57.339    514.547   1605.923    514.547    540.099    514.547
 71.870   1892.000   1783.392    108.608    514.621   1751.855    514.621    545.979    514.621
 71.970   1815.000   1884.237    -69.237    514.694   1845.515    514.694    553.260    514.694
 72.070   1881.629   1915.240    -33.611    514.766   1867.821    514.766    562.063    514.766
 72.170   1835.512   1871.325    -35.813    514.837   1813.664    514.837    572.414    514.837
 72.270   1801.662   1764.070     37.591    514.907   1694.730    514.907    584.198    514.907
 72.370   1667.000   1615.734     51.266    514.976   1533.585    514.976    597.104    514.976
 72.470   1519.000   1450.308     68.692    515.045   1354.788    515.045    610.563    515.045
 72.570   1312.000   1287.629     24.371    515.113   1179.059    515.113    623.691    515.113
 72.670   1106.506   1141.096    -34.591    515.179   1021.024    515.179    635.265    515.179
 72.770   1002.000   1017.499    -15.499    515.245    888.922    515.245    643.836    515.245
 72.870    879.147    918.088    -38.941    515.310    785.341    515.310    648.068    515.310
 72.970    827.945    840.468    -12.523    515.374    708.638    515.374    647.213    515.374
 73.070    772.328    780.632     -8.304    515.437    654.630    515.437    641.447    515.437
 73.170    719.000    734.452    -15.452    515.500    618.177    515.500    631.779    515.500
 73.270    659.000    698.420    -39.420    515.561    594.350    515.561    619.635    515.561
 73.370    633.666    669.861    -36.195    515.621    579.084    515.621    606.402    515.621
 73.470    631.000    646.892    -15.892    515.681    569.392    515.681    593.184    515.681
 73.570    619.000    628.289     -9.289    515.739    563.281    515.739    580.751    515.739
 73.670    573.000    613.305    -40.305    515.796    559.537    515.796    569.571    515.796
 73.770    630.000    601.490     28.510    515.853    557.470    515.853    559.882    515.853
 73.870    576.000    592.532    -16.532    515.908    556.708    515.908    551.744    515.908
 73.970    561.000    586.141    -25.141    515.963    557.025    515.963    545.095    515.963
 74.070    568.000    581.981    -13.981    516.016    558.231    516.016    539.786    516.016
 74.170    534.971    579.630    -44.659    516.069    560.098    516.069    535.627    516.069
 74.270    545.874    578.579    -32.705    516.120    562.317    516.120    532.414    516.120
 74.370    558.776    578.233    -19.457    516.170    564.491    516.170    529.950    516.170
 74.470    620.000    577.957     42.043    516.220    566.157    516.220    528.062    516.220
 74.570    636.000    577.157     58.843    516.268    566.863    516.268    526.607    516.268
 74.670    637.000    575.423     61.577    516.315    566.312    516.315    525.472    516.315
 74.770    611.000    572.655     38.345    516.361    564.491    516.361    524.570    516.361
 74.870    610.000    569.076     40.924    516.406    561.684    516.406    523.839    516.406
 74.970    546.612    565.116    -18.504    516.450    558.366    516.450    523.235    516.450
 75.070    605.000    561.279     43.721    516.493    555.074    516.493    522.726    516.493
 75.170    587.000    558.070     28.930    516.535    552.335    516.535    522.291    516.535
 75.270    525.367    555.975    -30.607    516.576    550.650    516.576    521.915    516.576
 75.370    582.329    555.478     26.852    516.615    550.515    516.615    521.586    516.615
 75.470    571.000    557.073     13.927    516.654    552.433    516.654    521.296    516.654
 75.570    590.000    561.269     28.731    516.691    556.917    516.691    521.040    516.691
 75.670    591.000    568.549     22.451    516.727    564.455    516.727    520.812    516.727
 75.770    572.000    579.301     -7.301    516.762    575.439    516.762    520.608    516.762
 75.870    605.000    593.694     11.306    516.796    590.041    516.796    520.425    516.796
 75.970    662.000    611.530     50.470    516.829    608.065    516.829    520.261    516.829
 76.070    646.827    632.112     14.714    516.860    628.819    516.860    520.113    516.860
 76.170    688.072    654.150     33.922    516.891    651.013    516.891    519.980    516.891
 76.270    706.294    675.732     30.563    516.920    672.737    516.920    519.859    516.920
 76.370    706.337    694.405     11.932    516.948    691.544    516.948    519.749    516.948
 76.470    737.000    707.476     29.524    516.975    704.740    516.975    519.649    516.975
 76.570    690.173    712.641    -22.468    517.000    710.024    517.000    519.558    517.000
 76.670    714.000    708.846      5.154    517.025    706.343    517.025    519.474    517.025
 76.770    698.000    696.773      1.227    517.048    694.377    517.048    519.398    517.048
 76.870    654.000    678.503    -24.503    517.070    676.208    517.070    519.327    517.070
 76.970    635.519    656.685    -21.166    517.091    654.485    517.091    519.262    517.091
 77.070    596.000    633.835    -37.835    517.110    631.721    517.110    519.201    517.110
 77.170    599.000    611.964    -12.964    517.128    609.931    517.128    519.145    517.128
 77.270    569.000    592.460    -23.460    517.145    590.501    517.145    519.093    517.145
 77.370    592.000    576.084     15.916    517.161    574.194    517.161    519.044    517.161
 77.470    544.000    563.055    -19.055    517.176    561.228    517.176    518.998    517.176
 77.570    557.000    553.178      3.822    517.189    551.409    517.189    518.955    517.189
 77.670    501.000    546.006    -45.006    517.201    544.291    517.201    518.914    517.201
 77.770    553.000    540.984     12.016    517.212    539.318    517.212    518.875    517.212
 77.870    498.000    537.564    -39.564    517.221    535.946    517.221    518.839    517.221
 77.970    564.046    535.275     28.770    517.229    533.700    517.229    518.803    517.229
 78.070    510.000    533.750    -23.750    517.236    532.215    517.236    518.769    517.236
 78.170    516.910    532.723    -15.813    517.241    531.227    517.241    518.737    517.241
 78.270    512.000    532.022    -20.022    517.245    530.561    517.245    518.705    517.245
 78.370    489.693    531.536    -41.843    517.248    530.109    517.248    518.675    517.248
 78.470    567.001    531.206     35.796    517.250    529.809    517.250    518.646    517.250
 78.570    493.000    530.998    -37.998    517.250    529.631    517.250    518.617    517.250
 78.670    548.460    530.889     17.571    517.249    529.548    517.249    518.590    517.249
 78.770    546.000    530.892     15.108    517.246    529.575    517.246    518.563    517.246
 78.870    554.827    531.056     23.771    517.243    529.761    517.243    518.537    517.243
 78.970    530.000    531.379     -1.379    517.238    530.103    517.238    518.512    517.238
 79.070    548.988    531.886     17.102    517.231    530.627    517.231    518.489    517.231
 79.170    502.000    532.603    -30.603    517.223    531.357    517.223    518.467    517.223
 79.270    561.210    533.557     27.652    517.214    532.322    517.214    518.447    517.214
 79.370    496.354    534.776    -38.422    517.203    533.548    517.203    518.429    517.203
 79.470    538.000    536.290      1.710    517.191    535.066    517.191    518.413    517.191
 79.570    545.000    538.139      6.861    517.178    536.914    517.178    518.399    517.178
 79.670    519.000    540.382    -21.382    517.163    539.153    517.163    518.388    517.163
 79.770    551.000    543.113      7.887    517.147    541.876    517.147    518.379    517.147
 79.870    570.000    546.482     23.518    517.129    545.234    517.129    518.373    517.129
 79.970    515.000    550.705    -35.705    517.111    549.443    517.111    518.369    517.111
 80.070    516.000    556.092    -40.092    517.090    554.812    517.090    518.366    517.090
 80.170    555.000    563.039     -8.039    517.068    561.741    517.068    518.364    517.068
 80.270    556.000    571.992    -15.992    517.045    570.675    517.045    518.361    517.045
 80.370    550.000    583.354    -33.354    517.021    582.021    517.021    518.356    517.021
 80.470    594.000    597.384     -3.384    516.995    596.039    516.995    518.345    516.995
 80.570    607.000    614.096     -7.096    516.967    612.745    516.967    518.327    516.967
 80.670    617.201    633.177    -15.976    516.938    631.830    516.938    518.299    516.938
 80.770    654.327    653.951      0.376    516.908    652.619    516.908    518.260    516.908
 80.870    653.756    675.396    -21.640    516.876    674.089    516.876    518.209    516.876
 80.970    668.000    696.245    -28.245    516.843    694.972    516.843    518.149    516.843
 81.070    745.017    715.161     29.856    516.809    713.930    516.809    518.079    516.809
 81.170    699.000    730.914    -31.914    516.773    729.729    516.773    518.005    516.773
 81.270    750.000    742.489      7.511    516.735    741.353    516.735    517.926    516.735
 81.370    732.993    749.168    -16.175    516.696    748.078    516.696    517.846    516.696
 81.470    723.000    750.600    -27.600    516.656    749.554    516.656    517.766    516.656
 81.570    729.000    746.827    -17.827    516.614    745.822    516.614    517.688    516.614
 81.670    703.087    738.248    -35.161    516.571    737.278    516.571    517.610    516.571
 81.770    744.321    725.597     18.723    516.526    724.659    516.526    517.535    516.526
 81.870    711.000    709.931      1.069    516.480    709.019    516.480    517.462    516.480
 81.970    673.000    692.491    -19.491    516.432    691.601    516.432    517.390    516.432
 82.070    726.000    674.459     51.541    516.383    673.586    516.383    517.321    516.383
 82.170    699.000    656.729     42.271    516.332    655.870    516.332    517.252    516.332
 82.270    640.000    639.841      0.159    516.280    638.993    516.280    517.185    516.280
 82.370    622.000    624.061     -2.061    516.226    623.220    516.226    517.119    516.226
 82.470    593.000    609.535    -16.535    516.171    608.699    516.171    517.053    516.171
 82.570    615.000    596.410     18.590    516.114    595.577    516.114    516.987    516.114
 82.670    584.000    584.862     -0.862    516.056    584.031    516.056    516.921    516.056
 82.770    570.000    575.069     -5.069    515.996    574.237    515.996    516.855    515.996
 82.870    542.000    567.173    -25.173    515.935    566.340    515.935    516.788    515.935
 82.970    611.000    561.272     49.728    515.873    560.436    515.873    516.721    515.873
 83.070    566.000    557.410      8.590    515.809    556.571    515.809    516.653    515.809
 83.170    596.000    555.561     40.439    515.743    554.719    515.743    516.583    515.743
 83.270    543.000    555.619    -12.619    515.676    554.771    515.676    516.513    515.676
 83.370    546.000    557.373    -11.373    515.607    556.521    515.607    516.442    515.607
 83.470    516.804    560.506    -43.702    515.537    559.649    515.537    516.370    515.537
 83.570    562.682    564.591     -1.909    515.466    563.729    515.466    516.297    515.466
 83.670    551.000    569.103    -18.103    515.393    568.236    515.393    516.223    515.393
 83.770    551.005    573.442    -22.436    515.318    572.571    515.318    516.147    515.318
 83.870    550.000    576.978    -26.978    515.242    576.105    515.242    516.071    515.242
 83.970    570.000    579.129     -9.129    515.164    578.255    515.164    515.993    515.164
 84.070    595.000    579.473     15.527    515.085    578.600    515.085    515.914    515.085
 84.170    562.000    577.863    -15.863    515.004    576.992    515.004    515.834    515.004
 84.270    541.351    574.460    -33.109    514.922    573.591    514.922    515.752    514.922
 84.370    549.643    569.665    -20.022    514.838    568.800    514.838    515.670    514.838
 84.470    586.992    563.992     23.000    514.753    563.131    514.753    515.586    514.753
 84.570    551.000    557.957     -6.957    514.666    557.099    514.666    515.501    514.666
 84.670    529.058    552.008    -22.950    514.578    551.152    514.578    515.415    514.578
 84.770    523.000    546.491    -23.491    514.488    545.636    514.488    515.328    514.488
 84.870    529.188    541.639    -12.451    514.397    540.785    514.397    515.239    514.397
 84.970    509.000    537.576    -28.576    514.304    536.722    514.304    515.149    514.304
 85.070    544.000    534.331      9.669    514.210    533.476    514.210    515.058    514.210
 85.170    517.954    531.861    -13.906    514.114    531.003    514.114    514.966    514.114
 85.270    513.000    530.080    -17.080    514.017    529.220    514.017    514.872    514.017
 85.370    504.000    528.887    -24.887    513.918    528.023    513.918    514.778    513.918
 85.470    559.173    528.185     30.988    513.818    527.317    513.818    514.682    513.818
 85.570    532.085    527.899      4.186    513.716    527.026    513.716    514.585    513.716
 85.670    567.795    527.989     39.805    513.613    527.110    513.613    514.486    513.613
 85.770    535.000    528.452      6.548    513.508    527.566    513.508    514.387    513.508
 85.870    536.192    529.325      6.867    513.401    528.432    513.401    514.286    513.401
 85.970    498.390    530.691    -32.301    513.294    529.790    513.294    514.185    513.294
 86.070    547.668    532.671     14.997    513.184    531.760    513.184    514.082    513.184
 86.170    514.000    535.418    -21.418    513.073    534.497    513.073    513.978    513.073
 86.270    524.000    539.107    -15.107    512.961    538.174    512.961    513.872    512.961
 86.370    507.000    543.910    -36.910    512.847    542.964    512.847    513.766    512.847
 86.470    550.000    549.976      0.024    512.732    549.014    512.732    513.659    512.732
 86.570    486.000    557.390    -71.390    512.615    556.412    512.615    513.550    512.615
 86.670    558.000    566.144     -8.144    512.496    565.147    512.496    513.441    512.496
 86.770    589.000    576.096     12.904    512.376    575.078    512.376    513.330    512.376
 86.870    610.000    586.944     23.056    512.255    585.904    512.255    513.219    512.255
 86.970    573.837    598.212    -24.376    512.132    597.151    512.132    513.106    512.132
 87.070    577.751    609.253    -31.503    512.008    608.171    512.008    512.993    512.008
 87.170    619.327    619.271      0.056    511.882    618.168    511.882    512.878    511.882
 87.270    625.625    627.387     -1.762    511.755    626.267    511.755    512.763    511.755
 87.370    630.000    632.773     -2.773    511.626    631.639    511.626    512.646    511.626
 87.470    691.000    634.834     56.166    511.496    633.688    511.496    512.529    511.496
 87.570    676.083    633.381     42.702    511.364    632.228    511.364    512.411    511.364
 87.670    629.000    628.698      0.302    511.231    627.540    511.231    512.292    511.231
 87.770    595.000    621.445    -26.445    511.096    620.284    511.096    512.173    511.096
 87.870    636.000    612.495     23.505    510.960    611.331    510.960    512.052    510.960
 87.970    649.000    602.780     46.220    510.822    601.613    510.822    511.932    510.822
 88.070    645.000    593.186     51.814    510.683    592.014    510.683    511.810    510.683
 88.170    630.000    584.486     45.514    510.543    583.307    510.543    511.688    510.543
 88.270    532.270    577.299    -45.029    510.401    576.112    510.401    511.565    510.401
 88.370    558.000    572.063    -14.063    510.257    570.866    510.257    511.442    510.257
 88.470    587.000    569.027     17.973    510.112    567.817    510.112    511.319    510.112
 88.570    602.000    568.243     33.757    509.966    567.019    509.966    511.195    509.966
 88.670    599.000    569.578     29.422    509.818    568.338    509.818    511.071    509.818
 88.770    581.000    572.755      8.245    509.669    571.498    509.669    510.947    509.669
 88.870    539.724    577.354    -37.630    509.519    576.078    509.519    510.823    509.519
 88.970    577.844    582.815     -4.971    509.367    581.519    509.367    510.700    509.367
 89.070    578.000    588.497    -10.497    509.213    587.178    509.213    510.576    509.213
 89.170    630.000    593.706     36.294    509.058    592.363    509.058    510.453    509.058
 89.270    592.000    597.753     -5.753    508.902    596.382    508.902    510.330    508.902
 89.370    595.000    600.036     -5.036    508.745    598.633    508.745    510.208    508.745
 89.470    601.000    600.152      0.848    508.586    598.714    508.586    510.087    508.586
 89.570    557.189    597.988    -40.799    508.425    596.510    508.425    509.967    508.425
 89.670    610.000    593.735     16.265    508.263    592.212    508.263    509.848    508.263
 89.770    573.837    587.816    -13.979    508.100    586.244    508.100    509.731    508.100
 89.870    549.000    580.776    -31.776    507.936    579.149    507.936    509.616    507.936
 89.970    598.000    573.170     24.830    507.770    571.484    507.770    509.503    507.770
 90.070    599.932    565.502     34.430    507.603    563.752    507.603    509.393    507.603
 90.170    548.000    558.185    -10.185    507.434    556.366    507.434    509.286    507.434
 90.270    534.000    551.524    -17.524    507.264    549.632    507.264    509.184    507.264
 90.370    566.000    545.718     20.282    507.093    543.746    507.093    509.086    507.093
 90.470    548.092    540.863      7.229    506.920    538.805    506.920    508.995    506.920
 90.570    517.000    536.970    -19.970    506.746    534.817    506.746    508.911    506.746
 90.670    509.000    533.987    -24.987    506.571    531.729    506.571    508.837    506.571
 90.770    545.000    531.824     13.176    506.394    529.449    506.394    508.775    506.394
 90.870    561.000    530.376     30.624    506.216    527.868    506.216    508.728    506.216
 90.970    531.000    529.540      1.460    506.037    526.881    506.037    508.699    506.037
 91.070    504.324    529.236    -24.912    505.857    526.401    505.857    508.693    505.857
 91.170    530.000    529.413      0.587    505.675    526.372    505.675    508.715    505.675
 91.270    511.000    530.057    -19.057    505.492    526.775    505.492    508.773    505.492
 91.370    538.000    531.197      6.803    505.308    527.630    505.308    508.872    505.308
 91.470    520.000    532.907    -12.907    505.122    529.002    505.122    509.023    505.122
 91.570    551.173    535.300     15.872    504.935    530.997    504.935    509.233    504.935
 91.670    488.000    538.534    -50.534    504.747    533.760    504.747    509.514    504.747
 91.770    579.000    542.798     36.202    504.558    537.472    504.558    509.874    504.558
 91.870    522.000    548.305    -26.305    504.367    542.335    504.367    510.325    504.367
 91.970    568.079    555.274     12.806    504.176    548.557    504.176    510.875    504.176
 92.070    549.000    563.876    -14.876    503.983    556.305    503.983    511.533    503.983
 92.170    578.000    574.350      3.650    503.789    565.808    503.789    512.305    503.789
 92.270    572.000    586.810    -14.810    503.593    577.179    503.593    513.192    503.593
 92.370    554.806    601.261    -46.455    503.397    590.425    503.397    514.195    503.397
 92.470    631.000    617.615     13.385    503.199    605.464    503.199    515.306    503.199
 92.570    675.000    635.657     39.343    503.000    622.093    503.000    516.513    503.000
 92.670    644.000    655.029    -11.029    502.800    639.975    502.800    517.796    502.800
 92.770    695.478    675.228     20.250    502.599    658.636    502.599    519.127    502.599
 92.870    653.000    695.620    -42.620    502.397    677.481    502.397    520.466    502.397
 92.970    732.000    715.491     16.509    502.193    695.851    502.193    521.761    502.193
 93.070    752.000    734.140     17.860    501.989    713.106    501.989    522.947    501.989
 93.170    792.603    750.998     41.605    501.783    728.754    501.783    523.952    501.783
 93.270    769.000    765.739      3.261    501.576    742.544    501.576    524.696    501.576
 93.370    767.525    778.310    -10.785    501.369    754.495    501.369    525.109    501.369
 93.470    785.000    788.879     -3.879    501.160    764.826    501.160    525.140    501.160
 93.570    833.000    797.738     35.262    500.950    773.847    500.950    524.771    500.950
 93.670    758.927    805.226    -46.300    500.739    781.880    500.739    524.018    500.739
 93.770    832.885    811.727     21.158    500.527    789.260    500.527    522.929    500.527
 93.870    782.306    817.694    -35.387    500.314    796.372    500.314    521.573    500.314
 93.970    823.431    823.647     -0.216    500.099    803.657    500.099    520.029    500.099
 94.070    828.907    830.127     -1.220    499.884    811.581    499.884    518.372    499.884
 94.170    848.718    837.552     11.166    499.668    820.499    499.668    516.666    499.668
 94.270    826.000    846.054    -20.054    499.451    830.488    499.451    514.964    499.451
 94.370    814.530    855.368    -40.838    499.233    841.242    499.233    513.308    499.233
 94.470    873.000    864.795      8.205    499.014    852.035    499.014    511.727    499.014
 94.570    948.000    873.252     74.748    498.794    861.761    498.794    510.242    498.794
 94.670    912.000    879.391     32.609    498.573    869.062    498.573    508.866    498.573
 94.770    900.000    881.797     18.203    498.352    872.513    498.352    507.606    498.352
 94.870    952.000    879.247     72.753    498.129    870.890    498.129    506.463    498.129
 94.970    870.000    871.000     -1.000    497.905    863.456    497.905    505.436    497.905
 95.070    843.282    857.006    -13.724    497.681    850.162    497.681    504.519    497.681
 95.170    835.000    837.934     -2.934    497.456    831.686    497.456    503.704    497.456
 95.270    834.000    815.043     18.957    497.229    809.296    497.229    502.982    497.229
 95.370    794.000    789.958      4.042    497.002    784.626    497.002    502.344    497.002
 95.470    738.818    764.465    -25.647    496.775    759.471    496.775    501.779    496.775
 95.570    805.000    740.357     64.643    496.546    735.636    496.546    501.277    496.546
 95.670    776.000    719.346     56.654    496.317    714.841    496.317    500.830    496.317
 95.770    754.000    703.001     50.999    496.086    698.663    496.086    500.429    496.086
 95.870    730.380    692.720     37.660    495.855    688.509    495.855    500.067    495.855
 95.970    701.416    689.717     11.700    495.624    685.596    495.624    499.737    495.624
 96.070    708.000    695.005     12.995    495.391    690.947    495.391    499.435    495.391
 96.170    706.000    709.395     -3.395    495.158    705.375    495.158    499.155    495.158
 96.270    772.232    733.455     38.776    494.924    729.451    494.924    498.895    494.924
 96.370    781.000    767.524     13.476    494.689    763.518    494.689    498.652    494.689
 96.470    817.000    811.576      5.424    494.454    807.552    494.454    498.425    494.454
 96.570    931.000    865.163     65.837    494.218    861.108    494.218    498.210    494.218
 96.670    934.000    927.342      6.658    493.981    923.242    493.981    498.008    493.981
 96.770    980.000    996.588    -16.588    493.744    992.434    493.744    497.818    493.744
 96.870   1063.000   1070.748     -7.748    493.506   1066.529    493.506    497.639    493.506
 96.970   1144.000   1147.025     -3.025    493.268   1142.733    493.268    497.472    493.268
 97.070   1172.891   1222.013    -49.122    493.029   1217.639    493.029    497.316    493.029
 97.170   1305.000   1291.799     13.201    492.789   1287.335    492.789    497.172    492.789
 97.270   1374.000   1352.183     21.817    492.549   1347.620    492.549    497.041    492.549
 97.370   1420.000   1399.052     20.948    492.308   1394.380    492.308    496.923    492.308
 97.470   1446.000   1428.933     17.067    492.067   1424.140    492.067    496.820    492.067
 97.570   1401.889   1439.601    -37.712    491.826   1434.674    491.826    496.733    491.826
 97.670   1402.000   1430.529    -28.529    491.583   1425.449    491.583    496.664    491.583
 97.770   1471.712   1402.953     68.759    491.341   1397.698    491.341    496.616    491.341
 97.870   1372.000   1359.545     12.455    491.098   1354.088    491.098    496.592    491.098
 97.970   1370.099   1303.882     66.217    490.854   1298.190    490.854    496.596    490.854
 98.070   1205.659   1239.927    -34.267    490.610   1233.962    490.610    496.634    490.610
 98.170   1217.313   1171.654     45.659    490.366   1165.372    490.366    496.712    490.366
 98.270   1086.000   1102.809    -16.809    490.121   1096.156    490.121    496.839    490.121
 98.370    991.000   1036.760    -45.760    489.876   1029.673    489.876    497.025    489.876
 98.470    945.000    976.421    -31.421    489.631    968.826    489.631    497.283    489.631
 98.570    871.000    924.224    -53.224    489.385    916.031    489.385    497.629    489.385
 98.670    855.000    882.131    -27.131    489.139    873.233    489.139    498.079    489.139
 98.770    877.856    851.655     26.202    488.893    841.923    488.893    498.657    488.893
 98.870    845.461    833.919     11.541    488.646    823.203    488.646    499.385    488.646
 98.970    878.000    829.721     48.279    488.400    817.843    488.400    500.291    488.400
 99.070    883.083    839.580     43.503    488.153    826.333    488.153    501.405    488.153
 99.170    916.224    863.770     52.454    487.905    848.914    487.905    502.758    487.905
 99.270    929.879    902.320     27.560    487.658    885.585    487.658    504.383    487.658
 99.370    969.000    954.988     14.012    487.410    936.072    487.410    506.313    487.410
 99.470    989.000   1021.204    -32.204    487.163    999.774    487.163    508.578    487.163
 99.570   1133.000   1099.996     33.004    486.915   1075.694    486.915    511.206    486.915
 99.670   1198.000   1189.915      8.085    486.667   1162.359    486.667    514.216    486.667
 99.770   1293.000   1288.954      4.046    486.419   1257.753    486.419    517.624    486.419
 99.870   1420.005   1394.507     25.498    486.171   1359.264    486.171    521.430    486.171
 99.970   1525.667   1503.354     22.313    485.923   1463.683    485.923    525.627    485.923
100.070   1587.000   1611.721    -24.721    485.675   1567.263    485.675    530.188    485.675
100.170   1753.000   1715.498     37.502    485.427   1665.936    485.427    535.069    485.427
100.270   1896.000   1810.492     85.508    485.179   1755.572    485.179    540.206    485.179
100.370   1952.691   1892.794     59.897    484.931   1832.351    484.931    545.509    484.931
100.470   1967.000   1959.120      7.880    484.683   1893.105    484.683    550.860    484.683
100.570   2120.000   2006.966    113.034    484.435   1935.477    484.435    556.112    484.435
100.670   2044.000   2034.600      9.400    484.188   1957.915    484.188    561.082    484.188
100.770   1984.000   2041.012    -57.012    483.940   1959.619    483.940    565.562    483.940
100.870   1987.525   2025.993    -38.468    483.693   1940.605    483.693    569.324    483.693
100.970   1995.000   1990.347      4.653    483.445   1901.902    483.445    572.141    483.445
101.070   1947.000   1936.126     10.874    483.199   1845.759    483.199    573.819    483.199
101.170   1908.877   1866.653     42.224    482.952   1775.632    482.952    574.223    482.952
101.270   1796.617   1786.232     10.385    482.705   1695.873    482.705    573.307    482.705
101.370   1653.000   1699.628    -46.628    482.459   1611.198    482.459    571.119    482.459
101.470   1665.000   1611.514     53.486    482.213   1526.145    482.213    567.797    482.213
101.570   1461.218   1526.023    -64.805    481.968   1444.650    481.968    563.537    481.968
101.670   1494.000   1446.468     47.532    481.722   1369.804    481.722    558.566    481.722
101.770   1434.079   1375.212     58.867    481.478   1303.740    481.478    553.111    481.478
101.870   1290.000   1313.625    -23.625    481.233   1247.623    481.233    547.381    481.233
101.970   1224.000   1262.121    -38.121    480.989   1201.687    480.989    541.555    480.989
102.070   1181.000   1220.234    -39.234    480.746   1165.317    480.746    535.782    480.746
102.170   1130.590   1186.735    -56.145    480.503   1137.169    480.503    530.179    480.503
102.270   1111.000   1159.785    -48.785    480.260   1115.316    480.260    524.834    480.260
102.370   1080.000   1137.134    -57.134    480.018   1097.441    480.018    519.812    480.018
102.470   1057.856   1116.362    -58.505    479.777   1081.082    479.777    515.155    479.777
102.570   1072.000   1095.172    -23.172    479.536   1063.917    479.536    510.890    479.536
102.670   1032.935   1071.690    -38.755    479.296   1044.060    479.296    507.024    479.296
102.770   1025.154   1044.690    -19.536    479.056   1020.290    479.056    503.556    479.056
102.870   1051.000   1013.698     37.302    478.817    992.142    478.817    500.471    478.817
102.970   1008.496    978.920     29.576    478.579    959.847    478.579    497.748    478.579
103.070    990.120    941.072     49.048    478.341    924.145    478.341    495.361    478.341
103.170    855.000    901.166    -46.166    478.104    886.080    478.104    493.278    478.104
103.270    808.000    860.331    -52.331    477.868    846.815    477.868    491.466    477.868
103.370    786.866    819.686    -32.820    477.633    807.500    477.633    489.895    477.633
103.470    729.457    780.251    -50.794    477.399    769.186    477.399    488.531    477.399
103.570    786.016    742.895     43.121    477.165    732.775    477.165    487.345    477.165
103.670    687.887    708.303    -20.416    476.933    698.978    476.933    486.311    476.933
103.770    702.000    676.961     25.039    476.701    668.304    476.701    485.403    476.701
103.870    656.000    649.152      6.848    476.470    641.059    476.470    484.601    476.470
103.970    643.000    624.971     18.029    476.240    617.357    476.240    483.886    476.240
104.070    641.000    604.354     36.646    476.011    597.147    476.011    483.244    476.011
104.170    601.000    587.105     13.895    475.784    580.248    475.784    482.662    475.784
104.270    540.000    572.939    -32.939    475.557    566.383    475.557    482.130    475.557
104.370    542.000    561.516    -19.516    475.331    555.221    475.331    481.638    475.331
104.470    535.287    552.474    -17.187    475.107    546.409    475.107    481.181    475.107
104.570    503.569    545.460    -41.892    474.883    539.598    474.883    480.753    474.883
104.670    558.000    540.148     17.852    474.661    534.464    474.661    480.350    474.661
104.770    535.000    536.251     -1.251    474.440    530.727    474.440    479.968    474.440
104.870    553.000    533.533     19.467    474.220    528.150    474.220    479.604    474.220
104.970    531.242    531.813     -0.571    474.002    526.556    474.002    479.258    474.002
105.070    594.000    530.962     63.038    473.785    525.818    473.785    478.926    473.785
105.170    564.000    530.898     33.102    473.569    525.856    473.569    478.608    473.569
105.270    533.000    531.585      1.415    473.354    526.632    473.354    478.303    473.354
105.370    509.572    533.021    -23.449    473.141    528.147    473.141    478.009    473.141
105.470    559.059    535.255     23.804    472.929    530.450    472.929    477.726    472.929
105.570    550.000    538.348     11.652    472.719    533.604    472.719    477.453    472.719
105.670    546.692    542.378      4.314    472.510    537.686    472.510    477.190    472.510
105.770    530.000    547.430    -17.430    472.303    542.783    472.303    476.936    472.303
105.870    569.000    553.581     15.419    472.098    548.970    472.098    476.692    472.098
105.970    556.114    560.883     -4.769    471.894    556.301    471.894    476.455    471.894
106.070    560.922    569.356     -8.434    471.691    564.797    471.691    476.227    471.691
106.170    584.000    578.972      5.028    471.490    574.429    471.490    476.007    471.490
106.270    599.000    589.647      9.353    471.291    585.115    471.291    475.795    471.291
106.370    626.000    601.239     24.761    471.094    596.710    471.094    475.590    471.094
106.470    621.000    613.540      7.460    470.898    609.009    470.898    475.393    470.898
106.570    635.000    626.283      8.717    470.705    621.746    470.705    475.203    470.705
106.670    624.602    639.146    -14.544    470.513    634.597    470.513    475.021    470.513
106.770    596.000    651.761    -55.761    470.323    647.195    470.323    474.845    470.323
106.870    655.000    663.728     -8.728    470.134    659.140    470.134    474.678    470.134
106.970    621.000    674.641    -53.641    469.948    670.028    469.948    474.517    469.948
107.070    680.000    684.121     -4.121    469.764    679.478    469.764    474.364    469.764
107.170    644.883    691.861    -46.978    469.581    687.183    469.581    474.217    469.581
107.270    742.813    697.672     45.141    469.401    692.956    469.401    474.079    469.401
107.370    669.000    701.527    -32.527    469.223    696.767    469.223    473.947    469.223
107.470    651.000    703.566    -52.566    469.047    698.757    469.047    473.823    469.047
107.570    752.199    704.077     48.122    468.873    699.216    468.873    473.707    468.873
107.670    706.733    703.450      3.283    468.701    698.530    468.701    473.599    468.701
107.770    663.291    702.113    -38.821    468.532    697.128    468.532    473.499    468.532
107.870    701.316    700.475      0.841    468.364    695.420    468.364    473.406    468.364
107.970    650.708    698.887    -48.179    468.199    693.756    468.199    473.322    468.199
108.070    678.000    697.610    -19.610    468.037    692.396    468.037    473.247    468.037
108.170    702.000    696.795      5.205    467.876    691.492    467.876    473.181    467.876
108.270    699.000    696.480      2.520    467.718    691.080    467.718    473.123    467.718
108.370    735.000    696.581     38.419    467.563    691.078    467.563    473.075    467.563
108.470    734.000    696.906     37.094    467.410    691.291    467.410    473.037    467.410
108.570    625.000    697.164    -72.164    467.259    691.430    467.259    473.009    467.259
108.670    667.000    696.996    -29.996    467.112    691.135    467.112    472.992    467.112
108.770    740.245    696.011     44.234    466.966    690.013    466.966    472.985    466.966
108.870    666.000    693.844    -27.844    466.824    687.701    466.824    472.990    466.824
108.970    693.000    690.204      2.796    466.684    683.906    466.684    473.008    466.684
109.070    697.886    684.924     12.962    466.546    678.460    466.546    473.038    466.546
109.170    657.000    677.984    -20.984    466.412    671.343    466.412    473.081    466.412
109.270    628.000    669.507    -41.507    466.280    662.678    466.280    473.137    466.280
109.370    687.343    659.726     27.616    466.151    652.697    466.151    473.209    466.151
109.470    647.237    648.951     -1.714    466.025    641.706    466.025    473.297    466.025
109.570    630.000    637.518     -7.518    465.902    630.044    465.902    473.403    465.902
109.670    635.000    625.771      9.229    465.782    618.051    465.782    473.527    465.782
109.770    632.000    614.032     17.968    465.665    606.049    465.665    473.671    465.665
109.870    615.101    602.594     12.507    465.551    594.328    465.551    473.837    465.551
109.970    607.831    591.708     16.123    465.440    583.139    465.440    474.027    465.440
110.070    580.000    581.580     -1.580    465.332    572.684    465.332    474.243    465.332
110.170    572.548    572.368      0.180    465.227    563.120    465.227    474.489    465.227
110.270    608.195    564.182     44.012    465.126    554.552    465.126    474.767    465.126
110.370    577.038    557.088     19.950    465.028    547.041    465.028    475.083    465.028
110.470    576.000    551.106     24.894    464.933    540.604    464.933    475.442    464.933
110.570    506.000    546.223    -40.223    464.841    535.221    464.841    475.848    464.841
110.670    562.055    542.399     19.656    464.753    530.844    464.753    476.311    464.753
110.770    547.000    539.567      7.433    464.668    527.398    464.668    476.839    464.668
110.870    497.005    537.631    -40.625    464.587    524.777    464.587    477.441    464.587
110.970    552.000    536.529     15.471    464.509    522.906    464.509    478.131    464.509
111.070    593.000    536.206     56.794    464.435    521.716    464.435    478.922    464.435
111.170    562.000    536.560     25.440    464.364    521.089    464.364    479.831    464.364
111.270    518.000    537.517    -19.517    464.297    520.933    464.297    480.877    464.297
111.370    554.637    539.018     15.619    464.234    521.166    464.234    482.081    464.234
111.470    577.361    541.015     36.346    464.174    521.716    464.174    483.467    464.174
111.570    557.953    543.472     14.481    464.118    522.520    464.118    485.064    464.118
111.670    509.000    546.368    -37.368    464.066    523.528    464.066    486.899    464.066
111.770    531.000    549.695    -18.695    464.018    524.700    464.018    489.005    464.018
111.870    523.000    553.457    -30.457    463.974    526.006    463.974    491.417    463.974
111.970    559.325    557.673      1.652    463.934    527.428    463.934    494.170    463.934
112.070    594.000    562.373     31.627    463.897    528.961    463.897    497.301    463.897
112.170    532.000    567.598    -35.598    463.865    530.608    463.865    500.847    463.865
112.270    578.000    573.399      4.601    463.837    532.383    463.837    504.844    463.837
112.370    564.000    579.833    -15.833    463.813    534.311    463.813    509.326    463.813
112.470    657.000    586.966     70.034    463.794    536.426    463.794    514.325    463.794
112.570    579.639    594.865    -15.226    463.778    538.769    463.778    519.865    463.778
112.670    622.000    603.607     18.393    463.767    541.398    463.767    525.967    463.767
112.770    591.000    613.275    -22.275    463.760    544.382    463.760    532.643    463.760
112.870    582.000    623.960    -41.960    463.758    547.814    463.758    539.894    463.758
112.970    681.772    635.773     45.999    463.760    551.812    463.760    547.711    463.760
113.070    638.000    648.844    -10.844    463.766    556.529    463.766    556.071    463.766
113.170    656.293    663.337     -7.044    463.777    562.166    463.777    564.936    463.777
113.270    709.234    679.457     29.776    463.793    568.984    463.793    574.252    463.793
113.370    672.928    697.470    -24.542    463.813    577.321    463.813    583.946    463.813
113.470    696.000    717.714    -21.714    463.838    587.610    463.838    593.923    463.838
113.570    758.132    740.622     17.511    463.868    600.402    463.868    604.065    463.868
113.670    802.000    766.743     35.257    463.902    616.389    463.902    614.230    463.902
113.770    764.496    796.765    -32.269    463.941    636.426    463.941    624.248    463.941
113.870    777.000    831.534    -54.534    463.986    661.558    463.986    633.921    463.986
113.970    883.906    872.081     11.825    464.035    693.037    464.035    643.030    464.035
114.070    966.295    919.642     46.653    464.089    732.340    464.089    651.330    464.089
114.170    952.000    975.670    -23.670    464.148    781.174    464.148    658.570    464.148
114.270    980.000   1041.850    -61.850    464.212    841.468    464.212    664.502    464.212
114.370   1119.000   1120.092     -1.092    464.282    915.359    464.282    668.901    464.282
114.470   1245.518   1212.516     33.002    464.356   1005.145    464.356    671.590    464.356
114.570   1336.747   1321.407     15.340    464.436   1113.224    464.436    672.453    464.436
114.670   1428.000   1449.145    -21.145    464.521   1242.013    464.521    671.456    464.521
114.770   1678.000   1598.098     79.902    464.612   1393.829    464.612    668.647    464.612
114.870   1860.000   1770.482     89.518    464.708   1570.765    464.708    664.151    464.708
114.970   2137.000   1968.193    168.807    464.809   1774.530    464.809    658.156    464.809
115.070   2379.000   2192.625    186.375    464.916   2006.289    464.916    650.890    464.916
115.170   2372.647   2444.477    -71.830    465.029   2266.492    465.029    642.605    465.029
115.270   2751.098   2723.569     27.529    465.147   2554.709    465.147    633.552    465.147
115.370   3114.000   3028.685     85.315    465.271   2869.486    465.271    623.970    465.271
115.470   3447.238   3357.441     89.797    465.400   3208.223    465.400    614.078    465.400
115.570   3776.000   3706.206     69.794    465.536   3567.097    465.536    604.068    465.536
115.670   4045.641   4070.059    -24.419    465.677   3941.025    465.677    594.106    465.677
115.770   4432.000   4442.816    -10.816    465.824   4323.684    465.824    584.332    465.824
115.870   4781.000   4817.095    -36.095    465.977   4707.583    465.977    574.858    465.977
115.970   5172.000   5184.459    -12.459    466.136   5084.192    466.136    565.775    466.136
116.070   5570.000   5535.604     34.396    466.301   5444.142    466.301    557.155    466.301
116.170   5948.024   5860.641     87.383    466.472   5777.490    466.472    549.049    466.472
116.270   6157.000   6149.456      7.544    466.650   6074.090    466.650    541.493    466.650
116.370   6473.000   6392.197     80.803    466.833   6324.066    466.833    534.507    466.833
116.470   6480.000   6579.870    -99.870    467.023   6518.416    467.023    528.098    467.023
116.570   6860.920   6705.030    155.890    467.220   6649.698    467.220    522.263    467.220
116.670   6836.000   6762.467     73.533    467.422   6712.710    467.422    516.990    467.422
116.770   6871.000   6749.749    121.251    467.632   6705.036    467.632    512.258    467.632
116.870   6631.000   6667.496    -36.496    467.847   6627.319    467.847    508.039    467.847
116.970   6553.000   6519.292     33.708    468.070   6483.170    468.070    504.302    468.070
117.070   6169.369   6311.275   -141.906    468.299   6278.757    468.299    501.014    468.299
117.170   5949.000   6051.507   -102.507    468.535   6022.176    468.535    498.138    468.535
117.270   5638.923   5749.280   -110.357    468.777   5722.754    468.777    495.636    468.777
117.370   5264.000   5414.459   -150.459    469.026   5390.392    469.026    493.473    469.026
117.470   5167.233   5056.946    110.287    469.283   5035.028    469.283    491.612    469.283
117.570   4603.000   4686.252    -83.252    469.546   4666.206    469.546    490.021    469.546
117.670   4213.786   4311.182    -97.396    469.816   4292.765    469.816    488.667    469.816
117.770   3932.000   3939.608     -7.608    470.093   3922.608    470.093    487.521    470.093
117.870   3567.000   3578.307    -11.307    470.377   3562.539    470.377    486.557    470.377
117.970   3225.000   3232.868     -7.868    470.669   3218.172    470.669    485.752    470.669
118.070   2894.760   2907.658    -12.898    470.968   2893.900    470.968    485.084    470.968
118.170   2684.486   2605.905     78.581    471.274   2592.968    471.274    484.535    471.274
118.270   2411.951   2329.640     82.311    471.587   2317.427    471.587    484.089    471.587
118.370   1968.000   2079.895   -111.895    471.908   2068.323    471.908    483.732    471.908
118.470   1715.000   1856.807   -141.807    472.237   1845.807    472.237    483.453    472.237
118.570   1701.473   1659.766     41.707    472.573   1649.280    472.573    483.242    472.573
118.670   1545.840   1487.563     58.278    472.916   1477.541    472.916    483.089    472.916
118.770   1364.221   1338.540     25.681    473.268   1328.941    473.268    482.990    473.268
118.870   1154.000   1210.741    -56.741    473.627   1201.529    473.627    482.936    473.627
118.970   1158.057   1102.037     56.020    473.994   1093.182    473.994    482.925    473.994
119.070    944.000   1010.242    -66.242    474.369   1001.718    474.369    482.951    474.369
119.170    924.000    933.211     -9.211    474.751    924.994    474.751    483.012    474.751
119.270    904.000    868.906     35.094    475.142    860.974    475.142    483.106    475.142
119.370    861.000    815.447     45.553    475.541    807.782    475.541    483.229    475.541
119.470    805.936    771.144     34.792    475.948    763.728    475.948    483.380    475.948
119.570    707.000    734.509    -27.509    476.363    727.324    476.363    483.558    476.363
119.670    718.000    704.255     13.745    476.787    697.287    476.787    483.762    476.787
119.770    692.000    679.292     12.708    477.219    672.525    477.219    483.991    477.219
119.870    693.000    658.704     34.296    477.659    652.123    477.659    484.244    477.659
119.970    654.000    641.737     12.263    478.107    635.327    478.107    484.520    478.107
120.070    584.000    627.774    -43.774    478.565    621.521    478.565    484.820    478.565
120.170    619.928    616.316      3.612    479.031    610.206    479.031    485.143    479.031
120.270    575.000    606.963    -31.963    479.505    600.982    479.505    485.489    479.505
120.370    607.352    599.394      7.958    479.988    593.529    479.988    485.857    479.988
120.470    595.000    593.358      1.642    480.481    587.594    480.481    486.248    480.481
120.570    560.000    588.651    -28.651    480.982    582.978    480.982    486.659    480.982
120.670    579.000    585.121     -6.121    481.492    579.522    481.492    487.095    481.492
120.770    571.000    582.639    -11.639    482.011    577.100    482.011    487.555    482.011
120.870    568.000    581.104    -13.104    482.539    575.613    482.539    488.037    482.539
120.970    581.000    580.436      0.564    483.076    574.977    483.076    488.542    483.076
121.070    568.000    580.564    -12.564    483.622    575.126    483.622    489.069    483.622
121.170    567.000    581.429    -14.429    484.178    575.998    484.178    489.619    484.178
121.270    566.000    582.975    -16.975    484.743    577.539    484.743    490.191    484.743
121.370    583.000    585.148     -2.148    485.318    579.695    485.318    490.784    485.318
121.470    591.551    587.892      3.659    485.902    582.410    485.902    491.400    485.902
121.570    555.070    591.149    -36.079    486.496    585.626    486.496    492.036    486.496
121.670    583.000    594.853    -11.853    487.099    589.279    487.099    492.692    487.099
121.770    584.408    598.934    -14.527    487.712    593.300    487.712    493.368    487.712
121.870    594.000    603.314     -9.314    488.335    597.611    488.335    494.062    488.335
121.970    578.482    607.908    -29.426    488.967    602.129    488.967    494.773    488.967
122.070    645.104    612.621     32.482    489.610    606.761    489.610    495.500    489.610
122.170    580.668    617.356    -36.688    490.263    611.411    490.263    496.240    490.263
122.270    662.000    622.002     39.998    490.926    615.975    490.926    496.987    490.926
122.370    616.594    626.461     -9.867    491.599    620.348    491.599    497.749    491.599
122.470    649.812    630.622     19.190    492.282    624.425    492.282    498.519    492.282
122.570    634.048    634.378     -0.331    492.975    628.101    492.975    499.294    492.975
122.670    674.000    637.633     36.367    493.679    631.285    493.679    500.072    493.679
122.770    604.918    640.304    -35.386    494.394    633.895    494.394    500.848    494.394
122.870    644.000    642.325      1.675    495.118    635.870    495.118    501.621    495.118
122.970    666.000    643.656     22.344    495.854    637.170    495.854    502.388    495.854
123.070    686.000    644.278     41.722    496.600    637.782    496.600    503.145    496.600
123.170    626.000    644.201    -18.201    497.357    637.715    497.357    503.891    497.357
123.270    644.131    643.455      0.676    498.125    637.002    498.125    504.625    498.125
123.370    673.000    642.090     30.910    498.904    635.694    498.904    505.346    498.904
123.470    623.000    640.170    -17.170    499.693    633.854    499.693    506.054    499.693
123.570    624.000    637.769    -13.769    500.494    631.555    500.494    506.751    500.494
123.670    607.148    634.965    -27.817    501.306    628.875    501.306    507.437    501.306
123.770    651.078    631.838     19.240    502.129    625.890    502.129    508.115    502.129
123.870    626.000    628.467     -2.467    502.964    622.678    502.964    508.788    502.964
123.970    624.000    624.925     -0.925    503.809    619.308    503.809    509.459    503.809
124.070    598.000    621.281    -23.281    504.667    615.847    504.667    510.130    504.667
124.170    625.578    617.594      7.983    505.536    612.352    505.536    510.804    505.536
124.270    601.232    613.917    -12.685    506.416    608.872    506.416    511.485    506.416
124.370    646.000    610.291     35.709    507.308    605.446    507.308    512.174    507.308
124.470    586.087    606.746    -20.658    508.212    602.102    508.212    512.874    508.212
124.570    604.000    603.304      0.696    509.128    598.861    509.128    513.587    509.128
124.670    642.372    599.981     42.391    510.056    595.735    510.056    514.315    510.056
124.770    602.369    596.783      5.586    510.995    592.731    510.995    515.058    510.995
124.870    581.000    593.711    -12.711    511.947    589.848    511.947    515.820    511.947
124.970    595.464    590.763      4.701    512.911    587.083    512.911    516.599    512.911
