neutron_powder_diffraction_0002
R_wp: 3.700
Temperature (K): 435.105
Counts: 83607.00
Wavelength (Ã…): 2.52098
COMMENTS
Test file for demonstrating the .xyy file format in Reel1.0
END OF HEADER
   tth       Y_obs     Y_calc      Y_res    Background    Phase_1_Nuc    Phase_1_Mag    Phase_2_Nuc    Phase_2_Mag
  9.970    718.000    765.576    -47.576    763.761    764.852    764.484    763.761    763.761
 10.070    758.744    764.459     -5.715    762.549    763.728    763.280    762.549    762.549
 10.170    748.699    763.362    -14.663    761.345    762.623    762.083    761.345    761.345
 10.270    794.000    762.287     31.713    760.148    761.540    760.894    760.148    760.148
 10.370    756.617    761.235     -4.618    758.958    760.480    759.712    758.958    758.958
 10.470    758.733    760.212     -1.480    757.775    759.449    758.537    757.775    757.775
 10.570    716.558    759.222    -42.664    756.599    758.450    757.370    756.599    756.599
 10.670    811.027    758.270     52.757    755.430    757.490    756.209    755.430    755.430
 10.770    758.000    757.364      0.636    754.269    756.576    755.056    754.269    754.269
 10.870    749.888    756.516     -6.627    753.114    755.718    753.910    753.114    753.114
 10.970    769.000    755.738     13.262    751.967    754.931    752.772    751.967    751.967
 11.070    753.000    755.050     -2.050    750.826    754.234    751.640    750.826    750.826
 11.170    802.307    754.483     47.824    749.692    753.657    750.516    749.692    749.692
 11.270    784.519    754.070     30.449    748.566    753.234    749.399    748.566    748.566
 11.370    698.007    753.879    -55.872    747.446    753.033    748.289    747.446    747.446
 11.470    747.000    754.028     -7.028    746.333    753.172    747.185    746.333    746.333
 11.570    729.553    754.776    -25.223    745.227    753.909    746.089    745.227    745.227
 11.670    798.980    756.738     42.241    744.128    755.860    745.001    744.128    744.128
 11.770    780.602    760.854     19.747    743.036    759.963    743.919    743.036    743.036
 11.870    819.018    768.855     50.164    741.951    767.948    742.844    741.951    741.951
 11.970    749.988    782.853    -32.865    740.872    781.927    741.776    740.872    740.872
 12.070    857.000    803.976     53.024    739.801    803.027    740.714    739.801    739.801
 12.170    910.000    830.035     79.965    738.736    829.060    739.660    738.736    738.736
 12.270    912.232    852.653     59.579    737.677    851.654    738.613    737.677    737.677
 12.370    840.000    858.701    -18.701    736.626    857.686    737.573    736.626    736.626
 12.470    794.957    842.700    -47.743    735.581    841.683    736.539    735.581    735.581
 12.570    787.000    814.899    -27.899    734.543    813.885    735.513    734.543    734.543
 12.670    761.889    787.948    -26.059    733.511    786.936    734.493    733.511    733.511
 12.770    729.000    767.543    -38.543    732.486    766.530    733.481    732.486    732.486
 12.870    739.000    754.126    -15.126    731.468    753.108    732.475    731.468    731.468
 12.970    714.000    745.925    -31.925    730.456    744.898    731.475    730.456    730.456
 13.070    795.592    740.882     54.710    729.451    739.844    730.483    729.451    729.451
 13.170    695.967    737.513    -41.545    728.452    736.463    729.498    728.452    728.452
 13.270    723.000    734.995    -11.995    727.460    733.933    728.519    727.460    727.460
 13.370    705.000    732.935    -27.935    726.475    731.860    727.547    726.475    726.475
 13.470    695.340    731.154    -35.814    725.496    730.066    726.581    725.496    725.496
 13.570    712.000    729.569    -17.569    724.523    728.467    725.623    724.523    724.523
 13.670    718.750    728.140     -9.390    723.557    727.023    724.672    723.557    723.557
 13.770    783.000    726.794     56.206    722.597    725.663    723.726    722.597    722.597
 13.870    740.000    725.527     14.473    721.643    724.381    722.788    721.643    721.643
 13.970    778.000    724.323     53.677    720.696    723.162    721.856    720.696    720.696
 14.070    748.000    723.171     24.829    719.756    721.995    720.931    719.756    719.756
 14.170    762.000    722.062     39.938    718.821    720.870    720.012    718.821    718.821
 14.270    755.989    720.991     34.998    717.893    719.783    719.101    717.893    717.893
 14.370    713.229    719.950     -6.721    716.971    718.725    718.195    716.971    716.971
 14.470    722.227    718.931      3.296    716.056    717.690    717.297    716.056    716.056
 14.570    680.000    717.936    -37.936    715.146    716.677    716.405    715.146    715.146
 14.670    690.000    716.960    -26.960    714.243    715.683    715.519    714.243    714.243
 14.770    721.000    716.001      4.999    713.346    714.707    714.640    713.346    713.346
 14.870    743.000    715.059     27.941    712.455    713.746    713.768    712.455    712.455
 14.970    746.718    714.132     32.587    711.571    712.800    712.902    711.571    711.571
 15.070    660.000    713.218    -53.218    710.692    711.867    712.043    710.692    710.692
 15.170    679.000    712.316    -33.316    709.820    710.946    711.190    709.820    709.820
 15.270    693.298    711.427    -18.128    708.954    710.036    710.344    708.954    708.954
 15.370    683.000    710.548    -27.548    708.093    709.137    709.504    708.093    708.093
 15.470    687.000    709.680    -22.680    707.239    708.248    708.671    707.239    707.239
 15.570    683.000    708.822    -25.822    706.391    707.369    707.844    706.391    706.391
 15.670    671.000    707.973    -36.973    705.549    706.498    707.024    705.549    705.549
 15.770    741.929    707.134     34.794    704.713    705.637    706.210    704.713    704.713
 15.870    735.000    706.304     28.696    703.882    704.784    705.402    703.882    703.882
 15.970    686.000    705.484    -19.484    703.058    703.940    704.602    703.058    703.058
 16.070    675.000    704.678    -29.678    702.240    703.110    703.807    702.240    702.240
 16.170    701.000    703.874     -2.874    701.427    702.281    703.020    701.427    701.427
 16.270    671.000    703.082    -32.082    700.620    701.464    702.238    700.620    700.620
 16.370    687.000    702.304    -15.304    699.820    700.660    701.463    699.820    699.820
 16.470    713.000    701.524     11.476    699.025    699.854    700.695    699.025    699.025
 16.570    685.000    700.751    -15.751    698.235    699.054    699.933    698.235    698.235
 16.670    673.000    699.986    -26.986    697.452    698.261    699.177    697.452    697.452
 16.770    708.620    699.229      9.390    696.674    697.476    698.428    696.674    696.674
 16.870    731.823    698.500     33.324    695.903    696.717    697.685    695.903    695.903
 16.970    728.422    697.827     30.595    695.136    696.012    696.951    695.136    695.136
 17.070    739.943    697.118     42.825    694.376    695.271    696.222    694.376    694.376
 17.170    648.000    696.393    -48.393    693.621    694.514    695.500    693.621    693.621
 17.270    719.853    695.672     24.181    692.872    693.761    694.783    692.872    692.872
 17.370    744.341    694.958     49.383    692.129    693.014    694.073    692.129    692.129
 17.470    727.000    694.252     32.748    691.391    692.273    693.369    691.391    691.391
 17.570    706.375    693.552     12.822    690.658    691.539    692.672    690.658    690.658
 17.670    705.000    692.860     12.140    689.932    690.811    691.981    689.932    689.932
 17.770    653.000    692.175    -39.175    689.210    690.089    691.296    689.210    689.210
 17.870    729.278    691.497     37.782    688.495    689.373    690.619    688.495    688.495
 17.970    652.000    690.825    -38.825    687.785    688.663    689.947    687.785    687.785
 18.070    713.000    690.161     22.839    687.080    687.959    689.283    687.080    687.080
 18.170    729.557    689.504     40.053    686.381    687.261    688.624    686.381    686.381
 18.270    677.000    688.855    -11.855    685.687    686.570    687.973    685.687    685.687
 18.370    663.000    688.221    -25.221    684.999    685.892    687.328    684.999    684.999
 18.470    714.000    687.591     26.409    684.316    685.216    686.690    684.316    684.316
 18.570    702.000    686.963     15.037    683.638    684.542    686.059    683.638    683.638
 18.670    658.000    686.341    -28.341    682.966    683.874    685.434    682.966    682.966
 18.770    674.387    685.727    -11.341    682.299    683.211    684.816    682.299    682.299
 18.870    737.000    685.124     51.876    681.638    682.557    684.205    681.638    681.638
 18.970    680.690    684.544     -3.854    680.981    681.925    683.601    680.981    680.981
 19.070    734.000    683.961     50.039    680.330    681.288    683.003    680.330    680.330
 19.170    607.000    683.377    -76.377    679.685    680.649    682.413    679.685    679.685
 19.270    691.000    682.800      8.200    679.044    680.016    681.829    679.044    679.044
 19.370    694.085    682.232     11.853    678.409    679.389    681.252    678.409    678.409
 19.470    691.000    681.676      9.324    677.779    678.771    680.684    677.779    677.779
 19.570    666.000    681.153    -15.153    677.154    678.175    680.131    677.154    677.154
 19.670    692.000    680.666     11.334    676.534    677.608    679.593    676.534    676.534
 19.770    670.000    680.142    -10.142    675.920    677.014    679.048    675.920    675.920
 19.870    688.000    679.630      8.370    675.310    676.421    678.519    675.310    675.310
 19.970    674.000    679.147     -5.147    674.706    675.855    677.999    674.706    674.706
 20.070    661.000    678.716    -17.716    674.106    675.337    677.486    674.106    674.106
 20.170    704.000    678.220     25.780    673.512    674.763    676.969    673.512    673.512
 20.270    711.710    677.725     33.985    672.923    674.188    676.459    672.923    672.923
 20.370    709.483    677.256     32.227    672.339    673.636    675.958    672.339    672.339
 20.470    671.389    676.828     -5.440    671.759    673.122    675.465    671.759    671.759
 20.570    659.894    676.374    -16.480    671.185    672.579    674.980    671.185    671.185
 20.670    635.000    675.922    -40.922    670.615    672.033    674.504    670.615    670.615
 20.770    718.000    675.484     42.516    670.051    671.493    674.042    670.051    670.051
 20.870    664.000    675.046    -11.046    669.491    670.956    673.581    669.491    669.491
 20.970    665.000    674.614     -9.614    668.937    670.422    673.129    668.937    668.937
 21.070    677.000    674.192      2.808    668.387    669.893    672.686    668.387    668.387
 21.170    640.000    673.780    -33.780    667.842    669.371    672.251    667.842    667.842
 21.270    668.000    673.379     -5.379    667.302    668.855    671.826    667.302    667.302
 21.370    636.000    672.995    -36.995    666.766    668.351    671.411    666.766    666.766
 21.470    718.925    672.623     46.302    666.236    667.853    671.006    666.236    666.236
 21.570    650.000    672.258    -22.258    665.710    667.358    670.609    665.710    665.710
 21.670    691.000    671.902     19.098    665.189    666.868    670.224    665.189    665.189
 21.770    720.856    671.560     49.296    664.672    666.384    669.848    664.672    664.672
 21.870    660.000    671.231    -11.231    664.161    665.908    669.484    664.161    664.161
 21.970    721.098    670.917     50.181    663.654    665.441    669.130    663.654    663.654
 22.070    674.505    670.616      3.889    663.151    664.979    668.788    663.151    663.151
 22.170    621.497    670.331    -48.834    662.653    664.526    668.459    662.653    662.653
 22.270    698.000    670.061     27.939    662.160    664.081    668.141    662.160    662.160
 22.370    660.000    669.809     -9.809    661.672    663.644    667.836    661.672    661.672
 22.470    709.336    669.575     39.761    661.188    663.218    667.545    661.188    661.188
 22.570    702.000    669.360     32.640    660.708    662.801    667.268    660.708    660.708
 22.670    660.081    669.167     -9.086    660.233    662.396    667.005    660.233    660.233
 22.770    641.000    669.000    -28.000    659.763    662.005    666.758    659.763    659.763
 22.870    640.000    668.859    -28.859    659.297    661.628    666.528    659.297    659.297
 22.970    691.679    668.742     22.937    658.836    661.264    666.314    658.836    658.836
 23.070    686.000    668.653     17.347    658.379    660.916    666.117    658.379    658.379
 23.170    667.670    668.598     -0.928    657.926    660.587    665.938    657.926    657.926
 23.270    618.900    668.581    -49.680    657.478    660.281    665.778    657.478    657.478
 23.370    689.510    668.606     20.904    657.034    660.002    665.639    657.034    657.034
 23.470    643.000    668.680    -25.680    656.595    659.755    665.521    656.595    656.595
 23.570    709.168    668.813     40.355    656.160    659.547    665.427    656.160    656.160
 23.670    666.000    669.014     -3.014    655.729    659.387    665.357    655.729    655.729
 23.770    692.000    669.299     22.701    655.303    659.289    665.314    655.303    655.303
 23.870    685.000    669.688     15.312    654.881    659.271    665.300    654.881    654.881
 23.970    651.682    670.207    -18.526    654.463    659.358    665.315    654.463    654.463
 24.070    675.000    670.903      4.097    654.049    659.593    665.362    654.049    654.049
 24.170    709.000    671.854     37.146    653.640    660.053    665.443    653.640    653.640
 24.270    673.000    673.224     -0.224    653.235    660.900    665.563    653.235    653.235
 24.370    689.000    675.362     13.638    652.834    662.478    665.723    652.834    652.834
 24.470    671.000    678.953     -7.953    652.437    665.472    665.926    652.437    652.437
 24.570    736.561    685.122     51.439    652.044    671.000    666.178    652.044    652.044
 24.670    703.000    695.234      7.766    651.656    680.426    666.482    651.656    651.656
 24.770    749.000    710.139     38.861    651.272    694.596    666.844    651.272    651.272
 24.870    721.000    728.757     -7.757    650.891    712.422    667.268    650.891    650.891
 24.970    776.000    746.150     29.850    650.515    728.958    667.762    650.515    650.515
 25.070    720.961    753.478    -32.516    650.143    735.348    668.332    650.143    650.143
 25.170    781.467    745.735     35.731    649.775    726.577    668.987    649.775    649.775
 25.270    708.000    728.981    -20.981    649.410    708.695    669.736    649.410    649.410
 25.370    747.250    711.992     35.258    649.050    690.479    670.591    649.050    649.050
 25.470    733.000    699.154     33.846    648.694    676.301    671.564    648.694    648.694
 25.570    732.022    691.178     40.844    648.342    666.860    672.671    648.342    648.342
 25.670    715.000    687.084     27.916    647.994    661.156    673.928    647.994    647.994
 25.770    696.000    685.523     10.477    647.649    657.820    675.357    647.649    647.649
 25.870    684.552    685.455     -0.903    647.309    655.785    676.981    647.309    647.309
 25.970    718.258    686.287     31.971    646.972    654.425    678.836    646.972    646.972
 26.070    694.000    687.739      6.261    646.639    653.433    680.947    646.639    646.639
 26.170    646.000    689.703    -43.703    646.310    652.657    683.357    646.310    646.310
 26.270    685.980    692.169     -6.189    645.985    652.035    686.119    645.985    645.985
 26.370    655.000    695.166    -40.166    645.664    651.533    689.297    645.664    645.664
 26.470    711.000    698.749     12.251    645.346    651.129    692.966    645.346    645.346
 26.570    702.000    703.002     -1.002    645.032    650.810    697.224    645.032    645.032
 26.670    706.230    708.040     -1.810    644.722    650.569    702.192    644.722    644.722
 26.770    735.625    714.018     21.607    644.416    650.405    708.027    644.416    644.416
 26.870    709.000    721.138    -12.138    644.113    650.319    714.929    644.113    644.113
 26.970    705.000    729.673    -24.673    643.814    650.320    723.165    643.814    643.814
 27.070    719.000    739.989    -20.989    643.519    650.418    733.085    643.519    643.519
 27.170    790.315    752.582     37.733    643.227    650.633    745.172    643.227    643.227
 27.270    775.000    768.150      6.850    642.939    650.991    760.092    642.939    642.939
 27.370    732.000    787.678    -55.678    642.655    651.533    778.791    642.655    642.655
 27.470    815.000    812.603      2.397    642.374    652.317    802.649    642.374    642.374
 27.570    822.000    845.257    -23.257    642.096    653.441    833.898    642.096    642.096
 27.670    838.000    890.261    -52.261    641.823    655.096    876.968    641.823    641.823
 27.770    974.860    960.236     14.625    641.552    657.802    943.957    641.552    641.552
 27.870   1151.023   1094.802     56.220    641.286    663.186   1072.848    641.286    641.286
 27.970   1391.000   1403.948    -12.948    641.022    675.758   1369.094    641.022    641.022
 28.070   2067.000   2115.379    -48.379    640.763    704.852   2051.020    640.763    640.763
 28.170   3278.000   3522.759   -244.759    640.506    762.508   3400.218    640.506    640.506
 28.270   5363.000   5709.383   -346.383    640.253    852.169   5496.599    640.253    640.253
 28.370   7750.000   8138.702   -388.702    640.004    951.937   7825.710    640.004    640.004
 28.470   9449.000   9565.203   -116.203    639.758   1010.989   9193.113    639.758    639.758
 28.570   9123.000   9015.197    107.803    639.515    989.888   8664.510    639.515    639.515
 28.670   7418.000   7072.758    345.242    639.275    913.498   6798.662    639.275    639.275
 28.770   5272.000   5134.299    137.701    639.039    840.593   4933.003    639.039    639.039
 28.870   4114.000   4135.169    -21.169    638.806    811.114   3963.054    638.806    638.806
 28.970   4248.000   4198.114     49.886    638.577    830.087   4006.717    638.577    638.577
 29.070   4916.000   4843.109     72.891    638.351    874.015   4607.585    638.351    638.351
 29.170   5335.000   5298.488     36.512    638.128    902.979   5033.934    638.128    638.128
 29.270   4918.643   4988.242    -69.599    637.908    886.448   4740.182    637.908    637.908
 29.370   3904.701   4022.702   -118.001    637.692    831.763   3829.158    637.692    637.692
 29.470   2899.000   2905.195     -6.195    637.478    768.120   2774.986    637.478    637.478
 29.570   1997.000   2008.012    -11.012    637.268    716.984   1928.583    637.268    637.268
 29.670   1416.000   1435.521    -19.521    637.061    684.395   1388.352    637.061    637.061
 29.770   1216.000   1124.338     91.662    636.857    666.749   1094.533    636.857    636.857
 29.870   1017.000    968.221     48.779    636.657    657.979    946.944    636.657    636.657
 29.970    934.000    887.297     46.703    636.459    653.526    870.256    636.459    636.459
 30.070    809.471    839.498    -30.026    636.265    650.998    824.782    636.265    636.265
 30.170    840.471    807.083     33.388    636.073    649.400    793.769    636.073    636.073
 30.270    791.724    783.248      8.476    635.885    648.378    770.762    635.885    635.885
 30.370    806.000    765.227     40.773    635.700    647.846    753.086    635.700    635.700
 30.470    763.000    751.860     11.140    635.517    647.897    739.484    635.517    635.517
 30.570    748.000    743.047      4.953    635.338    648.883    729.501    635.338    635.338
 30.670    714.143    739.814    -25.671    635.161    651.557    723.413    635.161    635.161
 30.770    716.892    744.230    -27.339    634.988    657.070    722.134    634.988    634.988
 30.870    787.000    758.435     28.565    634.818    666.558    726.668    634.818    634.818
 30.970    810.000    782.378     27.622    634.650    680.107    736.879    634.650    634.650
 31.070    852.000    810.690     41.310    634.485    695.321    749.796    634.485    634.485
 31.170    835.000    830.824      4.176    634.324    706.474    758.608    634.324    634.324
 31.270    841.000    828.892     12.108    634.165    707.203    755.793    634.165    634.165
 31.370    839.000    803.330     35.670    634.009    696.824    740.468    634.009    634.009
 31.470    790.000    766.900     23.100    633.856    681.262    719.462    633.856    633.856
 31.570    767.000    732.974     34.026    633.705    666.718    699.942    633.705    633.705
 31.670    717.806    707.728     10.078    633.558    656.065    685.210    633.558    633.558
 31.770    711.511    691.486     20.025    633.413    649.472    675.420    633.413    633.413
 31.870    745.000    681.869     63.131    633.271    645.857    669.279    633.271    633.271
 31.970    655.115    676.203    -21.088    633.131    643.998    665.335    633.131    633.131
 32.070    677.000    672.623      4.377    632.995    643.045    662.571    632.995    632.995
 32.170    651.161    670.133    -18.972    632.861    642.549    660.443    632.861    632.861
 32.270    616.229    668.288    -52.060    632.730    642.316    658.701    632.730    632.730
 32.370    664.000    666.903     -2.903    632.601    642.268    657.236    632.601    632.601
 32.470    712.000    665.898     46.102    632.475    642.378    655.995    632.475    632.475
 32.570    639.821    665.239    -25.419    632.352    642.640    654.951    632.352    632.352
 32.670    656.000    664.917     -8.917    632.231    643.061    654.087    632.231    632.231
 32.770    671.937    664.942      6.995    632.113    643.657    653.398    632.113    632.113
 32.870    667.989    665.346      2.643    631.998    644.458    652.885    631.998    631.998
 32.970    711.000    666.181     44.819    631.885    645.505    652.560    631.885    631.885
 33.070    698.030    667.530     30.500    631.774    646.861    652.443    631.774    631.774
 33.170    719.000    669.519     49.481    631.667    648.615    652.570    631.667    631.667
 33.270    629.228    672.348    -43.120    631.561    650.907    653.002    631.561    631.561
 33.370    734.000    676.369     57.631    631.458    653.978    653.849    631.458    631.458
 33.470    700.000    682.303     17.697    631.358    658.321    655.339    631.358    631.358
 33.570    707.000    691.755     15.245    631.260    665.027    657.987    631.260    631.260
 33.670    700.000    708.178     -8.178    631.165    676.441    662.899    631.165    631.165
 33.770    711.000    738.085    -27.085    631.071    696.983    672.169    631.071    631.071
 33.870    793.000    791.363      1.637    630.981    733.363    688.972    630.981    630.981
 33.970    915.000    878.708     36.292    630.892    792.839    716.747    630.892    630.892
 34.070   1008.000   1004.785      3.215    630.807    878.579    756.991    630.807    630.807
 34.170   1100.258   1157.830    -57.573    630.723    982.605    805.924    630.723    630.723
 34.270   1326.156   1298.203     27.953    630.642   1078.024    850.800    630.642    630.642
 34.370   1362.000   1360.362      1.638    630.563   1120.372    870.550    630.563    630.563
 34.470   1272.340   1304.309    -31.969    630.486   1082.505    852.309    630.486    630.486
 34.570   1198.000   1166.436     31.564    630.412    989.107    807.775    630.412    630.412
 34.670    994.000   1012.226    -18.226    630.340    884.605    757.996    630.340    630.340
 34.770    930.344    883.168     47.176    630.270    797.153    716.314    630.270    630.270
 34.870    796.000    792.560      3.440    630.202    735.778    687.004    630.202    630.202
 34.970    767.000    736.524     30.476    630.137    697.852    668.821    630.137    630.137
 35.070    668.385    704.549    -36.165    630.073    676.243    658.387    630.073    630.073
 35.170    738.000    686.605     51.395    630.012    664.147    652.474    630.012    630.012
 35.270    713.735    675.953     37.782    629.953    656.990    648.918    629.953    629.953
 35.370    666.000    668.964     -2.964    629.897    652.311    646.552    629.897    629.897
 35.470    691.000    663.935     27.065    629.842    648.952    644.826    629.842    629.842
 35.570    640.202    660.094    -19.892    629.789    646.390    643.494    629.789    629.789
 35.670    665.000    657.064      7.936    629.739    644.369    642.435    629.739    629.739
 35.770    643.000    654.630    -11.630    629.691    642.741    641.580    629.691    629.691
 35.870    661.931    652.652      9.280    629.644    641.412    640.885    629.644    629.644
 35.970    646.000    651.032     -5.032    629.600    640.314    640.319    629.600    629.600
 36.070    680.000    649.702     30.298    629.558    639.399    639.862    629.558    629.558
 36.170    636.013    648.610    -12.597    629.518    638.630    639.498    629.518    629.518
 36.270    637.000    647.719    -10.719    629.479    637.981    639.218    629.479    629.479
 36.370    611.297    647.003    -35.706    629.443    637.431    639.016    629.443    629.443
 36.470    689.537    646.444     43.092    629.409    636.964    638.889    629.409    629.409
 36.570    670.000    646.031     23.969    629.376    636.569    638.839    629.376    629.376
 36.670    657.136    645.759     11.376    629.346    636.238    638.868    629.346    629.346
 36.770    632.000    645.631    -13.631    629.317    635.965    638.984    629.317    629.317
 36.870    645.000    645.654     -0.654    629.290    635.746    639.200    629.290    629.290
 36.970    593.886    645.847    -51.961    629.266    635.581    639.533    629.266    629.266
 37.070    608.000    646.241    -38.241    629.243    635.477    640.008    629.243    629.243
 37.170    648.000    646.890      1.110    629.222    635.448    640.665    629.222    629.222
 37.270    644.000    647.894     -3.894    629.202    635.530    641.568    629.202    629.202
 37.370    636.000    649.441    -13.441    629.185    635.795    642.832    629.185    629.185
 37.470    603.012    651.895    -48.882    629.169    636.368    644.698    629.169    629.169
 37.570    656.000    655.924      0.076    629.155    637.420    647.661    629.155    629.155
 37.670    678.000    662.672     15.328    629.143    639.129    652.687    629.143    629.143
 37.770    680.000    673.841      6.159    629.132    641.581    661.396    629.132    629.132
 37.870    686.399    691.479     -5.080    629.124    644.614    675.992    629.124    629.124
 37.970    708.594    717.136     -8.542    629.117    647.633    698.627    629.117    629.117
 38.070    746.375    750.485     -4.110    629.111    649.580    730.026    629.111    629.111
 38.170    765.000    787.985    -22.985    629.108    649.575    767.532    629.108    629.108
 38.270    833.033    821.571     11.463    629.106    647.755    802.941    629.106    629.106
 38.370    843.970    838.590      5.380    629.105    644.991    822.731    629.105    629.105
 38.470    722.000    829.584   -107.584    629.107    642.079    816.642    629.107    629.107
 38.570    804.000    798.600      5.400    629.109    639.511    788.228    629.109    629.109
 38.670    731.000    758.924    -27.924    629.114    637.519    750.544    629.114    629.114
 38.770    659.000    721.984    -62.984    629.120    636.122    715.002    629.120    629.120
 38.870    712.000    693.249     18.751    629.128    635.209    687.180    629.128    629.128
 38.970    660.000    673.534    -13.534    629.137    634.639    668.041    629.137    629.137
 39.070    658.000    661.194     -3.194    629.147    634.288    656.059    629.147    629.147
 39.170    623.000    653.865    -30.865    629.160    634.071    648.958    629.160    629.160
 39.270    633.000    649.517    -16.517    629.173    633.933    644.759    629.173    629.173
 39.370    631.996    646.797    -14.801    629.189    633.846    642.142    629.189    629.189
 39.470    645.000    644.951      0.049    629.205    633.791    640.367    629.205    629.205
 39.570    658.000    643.600     14.400    629.223    633.761    639.065    629.223    629.223
 39.670    639.000    642.562     -3.562    629.243    633.750    638.057    629.243    629.243
 39.770    645.000    641.742      3.258    629.264    633.755    637.252    629.264    629.264
 39.870    666.000    641.085     24.915    629.286    633.775    636.597    629.286    629.286
 39.970    595.000    640.554    -45.554    629.310    633.808    636.057    629.310    629.310
 40.070    662.340    640.124     22.216    629.335    633.854    635.607    629.335    629.335
 40.170    656.382    639.778     16.604    629.361    633.911    635.229    629.361    629.361
 40.270    682.000    639.500     42.500    629.389    633.980    634.910    629.389    629.389
 40.370    686.141    639.281     46.860    629.418    634.061    634.639    629.418    629.418
 40.470    601.914    639.112    -37.198    629.449    634.154    634.408    629.449    629.449
 40.570    608.530    638.989    -30.459    629.481    634.261    634.210    629.481    629.481
 40.670    647.000    638.905      8.095    629.514    634.380    634.040    629.514    629.514
 40.770    675.065    638.857     36.208    629.548    634.511    633.895    629.548    629.548
 40.870    633.000    638.850     -5.850    629.583    634.664    633.771    629.583    629.583
 40.970    642.000    638.880      3.120    629.620    634.836    633.665    629.620    629.620
 41.070    604.385    638.947    -34.562    629.658    635.031    633.575    629.658    629.658
 41.170    599.113    639.054    -39.940    629.697    635.252    633.501    629.697    629.697
 41.270    639.120    639.203     -0.082    629.738    635.503    633.439    629.738    629.738
 41.370    656.000    639.399     16.601    629.779    635.790    633.389    629.779    629.779
 41.470    624.545    639.649    -15.104    629.822    636.122    633.351    629.822    629.822
 41.570    645.000    639.964      5.036    629.866    636.508    633.324    629.866    629.866
 41.670    645.000    640.356      4.644    629.911    636.962    633.307    629.911    629.911
 41.770    675.000    640.844     34.156    629.957    637.503    633.300    629.957    629.957
 41.870    674.245    641.460     32.784    630.004    638.162    633.305    630.004    630.004
 41.970    659.000    642.257     16.743    630.052    638.989    633.323    630.052    630.052
 42.070    625.000    643.337    -18.337    630.102    640.085    633.357    630.102    630.102
 42.170    650.000    644.902      5.098    630.152    641.645    633.414    630.152    630.152
 42.270    629.000    647.343    -18.343    630.204    644.042    633.509    630.204    630.204
 42.370    698.000    651.327     46.673    630.256    647.922    633.667    630.256    630.256
 42.470    623.000    657.843    -34.843    630.310    654.237    633.926    630.310    630.310
 42.570    654.000    668.063    -14.063    630.364    664.113    634.329    630.364    630.364
 42.670    664.000    682.924    -18.924    630.419    678.454    634.911    630.419    630.419
 42.770    685.000    702.435    -17.435    630.476    697.267    635.674    630.476    630.476
 42.870    681.049    724.772    -43.723    630.533    718.799    636.547    630.533    630.533
 42.970    713.727    745.375    -31.648    630.592    738.661    637.358    630.592    630.592
 43.070    737.000    757.287    -20.287    630.651    750.157    637.842    630.651    630.651
 43.170    713.000    755.153    -42.153    630.711    748.130    637.797    630.711    630.711
 43.270    703.000    740.141    -37.141    630.772    733.705    637.265    630.772    630.772
 43.370    715.000    718.644     -3.644    630.834    713.034    636.490    630.834    630.834
 43.470    678.000    697.036    -19.036    630.897    692.253    635.714    630.897    630.897
 43.570    715.291    678.999     36.292    630.960    674.908    635.076    630.960    630.960
 43.670    700.746    665.734     35.012    631.025    662.153    634.621    631.025    631.025
 43.770    723.000    656.883     66.117    631.090    653.647    634.337    631.090    631.090
 43.870    695.000    651.388     43.612    631.156    648.369    634.183    631.156    631.156
 43.970    692.000    648.109     43.891    631.223    645.222    634.115    631.223    631.223
 44.070    612.949    646.149    -33.200    631.290    643.343    634.100    631.290    631.290
 44.170    689.000    644.928     44.072    631.359    642.175    634.116    631.359    631.359
 44.270    643.000    644.122     -1.122    631.428    641.403    634.149    631.428    631.428
 44.370    672.605    643.563     29.043    631.498    640.868    634.195    631.498    631.498
 44.470    685.634    643.164     42.469    631.568    640.485    634.249    631.568    631.568
 44.570    630.000    642.882    -12.882    631.640    640.213    634.311    631.640    631.640
 44.670    690.336    642.689     47.647    631.712    640.025    634.378    631.712    631.712
 44.770    666.098    642.568     23.530    631.785    639.903    634.451    631.785    631.785
 44.870    681.851    642.505     39.346    631.858    639.836    634.528    631.858    631.858
 44.970    637.144    642.491     -5.347    631.932    639.813    634.610    631.932    631.932
 45.070    616.051    642.519    -26.468    632.007    639.830    634.697    632.007    632.007
 45.170    625.000    642.585    -17.585    632.082    639.880    634.788    632.082    632.082
 45.270    679.104    642.684     36.420    632.158    639.959    634.883    632.158    632.158
 45.370    637.000    642.813     -5.813    632.234    640.065    634.983    632.234    632.234
 45.470    625.489    642.971    -17.483    632.311    640.196    635.087    632.311    632.311
 45.570    639.104    643.157     -4.053    632.389    640.350    635.196    632.389    632.389
 45.670    679.000    643.369     35.631    632.467    640.527    635.309    632.467    632.467
 45.770    682.934    643.607     39.326    632.546    640.726    635.427    632.546    632.546
 45.870    665.000    643.873     21.127    632.625    640.947    635.551    632.625    632.625
 45.970    673.463    644.166     29.297    632.705    641.191    635.680    632.705    632.705
 46.070    670.569    644.488     26.080    632.785    641.459    635.814    632.785    632.785
 46.170    629.084    644.842    -15.759    632.866    641.752    635.956    632.866    632.866
 46.270    671.726    645.230     26.497    632.947    642.073    636.104    632.947    632.947
 46.370    670.000    645.655     24.345    633.029    642.424    636.260    633.029    633.029
 46.470    655.677    646.121      9.556    633.111    642.808    636.424    633.111    633.111
 46.570    605.000    646.635    -41.635    633.194    643.231    636.597    633.194    633.194
 46.670    638.000    647.202     -9.202    633.277    643.697    636.781    633.277    633.277
 46.770    623.566    647.833    -24.266    633.360    644.215    636.977    633.360    633.360
 46.870    681.000    648.538     32.462    633.444    644.793    637.187    633.444    633.444
 46.970    611.364    649.334    -37.970    633.528    645.448    637.414    633.528    633.528
 47.070    633.000    650.248    -17.248    633.613    646.200    637.660    633.613    633.613
 47.170    654.108    651.323      2.785    633.698    647.088    637.931    633.698    633.698
 47.270    675.000    652.640     22.360    633.783    648.182    638.239    633.783    633.783
 47.370    616.000    654.349    -38.349    633.869    649.614    638.601    633.869    633.869
 47.470    669.000    656.714     12.286    633.955    651.616    639.049    633.955    633.955
 47.570    691.336    660.161     31.175    634.041    654.562    639.633    634.041    634.041
 47.670    618.449    665.283    -46.833    634.128    658.975    640.426    634.128    634.128
 47.770    696.167    672.760     23.406    634.215    665.455    641.506    634.215    634.215
 47.870    675.488    683.148     -7.660    634.302    674.487    642.942    634.302    634.302
 47.970    680.839    696.532    -15.693    634.389    686.148    644.745    634.389    634.389
 48.070    708.000    712.113     -4.113    634.477    699.728    646.825    634.477    634.477
 48.170    791.000    727.769     63.231    634.565    713.351    648.937    634.565    634.565
 48.270    761.358    739.907     21.452    634.653    723.840    650.668    634.653    634.653
 48.370    757.780    744.599     13.181    634.741    727.725    651.564    634.741    634.741
 48.470    730.000    740.411    -10.411    634.830    723.730    651.463    634.830    634.830
 48.570    748.000    729.859     18.141    634.918    714.072    650.666    634.918    634.918
 48.670    669.000    717.148    -48.148    635.007    702.452    649.673    635.007    635.007
 48.770    664.000    705.560    -41.560    635.096    691.756    648.878    635.096    635.096
 48.870    698.000    696.842      1.158    635.185    683.514    648.498    635.185    635.185
 48.970    659.687    691.562    -31.875    635.275    678.206    648.620    635.275    635.275
 49.070    676.000    689.562    -13.562    635.364    675.668    649.250    635.364    635.364
 49.170    716.429    690.376     26.053    635.454    675.456    650.367    635.454    635.454
 49.270    706.419    693.570     12.849    635.543    677.135    651.973    635.543    635.543
 49.370    706.000    699.002      6.998    635.633    680.491    654.139    635.633    635.633
 49.470    730.000    707.121     22.879    635.723    685.740    657.099    635.723    635.723
 49.570    724.908    719.548      5.359    635.813    693.903    661.450    635.813    635.813
 49.670    755.000    740.279     14.721    635.903    707.607    668.562    635.903    635.903
 49.770    750.000    777.692    -27.692    635.993    732.476    681.186    635.993    635.993
 49.870    829.000    847.857    -18.857    636.082    778.913    704.985    636.082    636.082
 49.970    970.000    975.079     -5.079    636.172    863.011    748.168    636.172    636.172
 50.070   1151.114   1189.192    -38.078    636.262   1004.515    820.822    636.262    636.262
 50.170   1524.000   1514.720      9.280    636.352   1219.634    931.270    636.352    636.352
 50.270   1873.000   1952.526    -79.526    636.442   1508.951   1079.810    636.442    636.442
 50.370   2408.123   2460.434    -52.311    636.532   1844.623   1252.129    636.532    636.532
 50.470   2889.000   2943.371    -54.371    636.622   2163.871   1415.957    636.622    636.622
 50.570   3381.689   3267.351    114.338    636.712   2378.206   1525.802    636.712    636.712
 50.670   3221.000   3315.528    -94.528    636.802   2410.452   1541.961    636.802    636.802
 50.770   3182.000   3068.016    113.984    636.891   2247.488   1457.611    636.891    636.891
 50.870   2630.000   2619.902     10.098    636.981   1952.190   1304.931    636.981    636.981
 50.970   2084.000   2109.887    -25.887    637.071   1616.302   1130.883    637.071    637.071
 51.070   1694.935   1648.812     46.123    637.160   1313.192    972.966    637.160    637.160
 51.170   1250.000   1294.873    -44.873    637.249   1081.424    850.834    637.249    637.249
 51.270   1030.000   1058.321    -28.321    637.338    927.788    767.964    637.338    637.338
 51.370    975.000    919.026     55.974    637.427    838.818    717.698    637.427    637.427
 51.470    817.902    845.915    -28.013    637.516    793.542    689.937    637.516    637.516
 51.570    869.000    810.367     58.633    637.605    772.260    675.752    637.605    637.605
 51.670    780.000    791.852    -11.852    637.693    760.424    669.156    637.693    637.693
 51.770    765.489    778.863    -13.374    637.782    749.785    666.891    637.782    637.782
 51.870    828.000    767.396     60.604    637.870    737.847    667.442    637.870    637.870
 51.970    730.650    757.505    -26.854    637.958    725.412    670.066    637.958    637.958
 52.070    790.000    750.035     39.965    638.045    713.985    674.104    638.045    638.045
 52.170    761.000    745.078     15.922    638.133    704.612    678.600    638.133    638.133
 52.270    779.003    741.683     37.320    638.220    697.723    682.177    638.220    638.220
 52.370    743.499    738.296      5.203    638.307    693.278    683.319    638.307    638.307
 52.470    784.731    733.793     50.938    638.394    690.979    681.202    638.394    638.394
 52.570    767.000    728.325     38.675    638.480    690.467    676.334    638.480    638.480
 52.670    708.117    723.001    -14.885    638.566    691.485    670.080    638.566    638.566
 52.770    752.000    719.128     32.872    638.652    693.993    663.787    638.652    638.652
 52.870    735.286    717.894     17.392    638.737    698.277    658.356    638.737    638.737
 52.970    766.000    720.493     45.507    638.823    705.109    654.209    638.823    638.823
 53.070    707.044    728.444    -21.400    638.907    715.960    651.393    638.907    638.907
 53.170    764.254    743.983     20.270    638.992    733.230    649.747    638.992    638.992
 53.270    745.000    770.304    -25.304    639.076    760.329    649.052    639.076    639.076
 53.370    811.000    811.341     -0.341    639.160    801.381    649.121    639.160    639.160
 53.470    863.535    870.819     -7.283    639.244    860.310    649.753    639.244    639.244
 53.570    947.000    951.022     -4.022    639.327    939.307    651.044    639.327    639.327
 53.670    991.280   1050.242    -58.961    639.409   1036.783    652.874    639.409    639.409
 53.770   1097.000   1160.676    -63.676    639.492   1145.176    655.004    639.492    639.492
 53.870   1230.000   1266.414    -36.414    639.573   1248.934    657.077    639.573    639.573
 53.970   1290.551   1343.485    -52.934    639.655   1324.595    658.581    639.655    639.655
 54.070   1369.000   1367.388      1.612    639.736   1348.176    658.995    639.736    639.736
 54.170   1301.000   1328.987    -27.987    639.817   1310.732    658.125    639.817    639.817
 54.270   1251.821   1242.579      9.242    639.897   1226.262    656.267    639.897    639.897
 54.370   1171.034   1134.144     36.890    639.976   1120.204    653.963    639.976    639.976
 54.470   1059.000   1026.103     32.897    640.056   1014.513    651.683    640.056    640.056
 54.570    976.000    932.097     43.903    640.134    922.549    649.712    640.134    640.134
 54.670    846.000    858.014    -12.014    640.213    850.077    648.171    640.213    640.213
 54.770    799.000    804.244     -5.244    640.291    797.480    647.069    640.291    640.291
 54.870    757.042    767.894    -10.852    640.368    761.929    646.344    640.368    640.368
 54.970    690.519    744.760    -54.242    640.445    739.306    645.907    640.445    640.445
 55.070    747.000    730.753     16.247    640.521    725.607    645.672    640.521    640.521
 55.170    705.353    722.645    -17.291    640.597    717.673    645.573    640.597    640.597
 55.270    741.000    718.244     22.756    640.672    713.358    645.562    640.672    640.672
 55.370    709.000    716.231     -7.231    640.746    711.368    645.614    640.746    640.746
 55.470    728.282    715.893     12.389    640.820    711.004    645.713    640.820    640.820
 55.570    730.000    716.892     13.108    640.894    711.934    645.855    640.894    640.894
 55.670    713.000    719.110     -6.110    640.967    714.042    646.038    640.967    640.967
 55.770    770.184    722.579     47.605    641.039    717.355    646.266    641.039    641.039
 55.870    714.000    727.470    -13.470    641.111    722.036    646.548    641.111    641.111
 55.970    742.000    734.156      7.844    641.182    728.444    646.897    641.182    641.182
 56.070    752.000    743.386      8.614    641.252    737.297    647.344    641.252    641.252
 56.170    707.000    756.594    -49.594    641.322    749.975    647.944    641.322    641.322
 56.270    747.000    776.424    -29.424    641.391    769.020    648.798    641.391    641.391
 56.370    813.000    807.409      5.591    641.460    798.790    650.079    641.460    641.460
 56.470    787.000    856.645    -69.645    641.528    846.113    652.057    641.528    641.528
 56.570    878.943    934.013    -55.070    641.595    920.490    655.110    641.595    641.595
 56.670   1005.000   1051.322    -46.322    641.662   1033.283    659.687    641.662    641.662
 56.770   1189.915   1219.820    -29.905    641.728   1195.311    666.217    641.728    641.728
 56.870   1452.223   1445.970      6.253    641.793   1412.794    674.947    641.793    641.793
 56.970   1734.342   1726.173      8.170    641.858   1682.274    685.741    641.858    641.858
 57.070   2014.000   2041.550    -27.550    641.921   1985.592    697.883    641.921    641.921
 57.170   2344.000   2353.892     -9.892    641.985   2285.999    709.918    641.985    641.985
 57.270   2646.000   2605.620     40.380    642.047   2528.105    719.658    642.047    642.047
 57.370   2795.000   2732.574     62.426    642.109   2650.185    724.663    642.109    642.109
 57.470   2768.000   2695.651     72.349    642.170   2614.605    723.447    642.170    642.170
 57.570   2592.724   2507.764     84.960    642.230   2433.761    716.504    642.230    642.230
 57.670   2298.000   2223.708     74.292    642.289   2160.349    705.923    642.289    642.289
 57.770   1889.771   1906.929    -17.158    642.348   1855.398    694.129    642.348    642.348
 57.870   1645.000   1606.731     38.269    642.406   1566.330    683.015    642.406    642.406
 57.970   1426.088   1352.524     73.564    642.463   1321.414    673.735    642.463    642.463
 58.070   1168.000   1156.157     11.843    642.519   1131.988    666.806    642.519    642.519
 58.170   1009.000   1016.733     -7.733    642.575    997.067    662.321    642.575    642.575
 58.270    888.000    926.189    -38.189    642.630    908.675    660.195    642.630    642.630
 58.370    917.000    874.390     42.610    642.684    856.716    660.387    642.684    642.684
 58.470    828.000    852.674    -24.674    642.737    832.393    663.030    642.737    642.737
 58.570    818.847    855.411    -36.564    642.789    829.766    668.432    642.789    642.789
 58.670    890.000    879.796     10.204    642.841    845.702    676.919    642.841    642.841
 58.770    909.000    924.503    -15.503    642.891    878.798    688.570    642.891    642.891
 58.870    974.177    987.896    -13.719    642.941    927.883    702.917    642.941    642.941
 58.970   1009.000   1066.331    -57.331    642.990    990.556    718.722    642.990    642.990
 59.070   1112.162   1153.035    -40.873    643.038   1062.106    733.924    643.038    643.038
 59.170   1234.000   1238.369     -4.369    643.085   1135.443    745.976    643.085    643.085
 59.270   1305.000   1312.329     -7.329    643.132   1202.705    752.734    643.132    643.132
 59.370   1323.000   1367.706    -44.706    643.177   1257.449    753.430    643.177    643.177
 59.470   1338.000   1400.405    -62.405    643.222   1294.918    748.723    643.222    643.222
 59.570   1367.000   1407.880    -40.880    643.265   1311.290    739.885    643.265    643.265
 59.670   1390.000   1390.586     -0.586    643.308   1305.657    728.277    643.308    643.308
 59.770   1356.000   1355.610      0.390    643.350   1283.623    715.375    643.350    643.350
 59.870   1277.000   1316.169    -39.169    643.391   1256.894    702.687    643.391    643.391
 59.970   1296.893   1286.265     10.628    643.431   1238.317    691.371    643.431    643.431
 60.070   1264.000   1275.900    -11.900    643.470   1237.331    681.993    643.470    643.470
 60.170   1329.000   1289.992     39.008    643.508   1258.800    674.610    643.508    643.508
 60.270   1267.320   1329.960    -62.640    643.545   1304.357    669.009    643.545    643.545
 60.370   1458.000   1394.419     63.581    643.582   1372.902    664.912    643.582    643.582
 60.470   1556.000   1476.844     79.156    643.617   1458.187    662.046    643.617    643.617
 60.570   1528.122   1562.842    -34.720    643.651   1546.080    660.157    643.651    643.651
 60.670   1616.000   1630.475    -14.475    643.685   1614.877    659.019    643.685    643.685
 60.770   1647.530   1655.746     -8.215    643.717   1640.758    658.457    643.717    643.717
 60.870   1567.000   1623.537    -56.537    643.748   1608.727    658.350    643.748    643.748
 60.970   1562.686   1536.619     26.067    643.779   1521.617    658.621    643.779    643.779
 61.070   1450.085   1413.156     36.929    643.808   1397.615    659.237    643.808    643.808
 61.170   1211.227   1276.222    -64.996    643.836   1259.778    660.206    643.836    643.836
 61.270   1124.830   1145.504    -20.674    643.864   1127.720    661.600    643.864    643.864
 61.370    999.000   1034.281    -35.281    643.890   1014.553    663.588    643.890    643.890
 61.470    913.000    949.539    -36.539    643.915    926.932    666.501    643.915    643.915
 61.570    843.833    893.494    -49.661    643.940    866.491    670.921    643.940    643.940
 61.670    909.202    865.794     43.408    643.963    831.946    677.783    643.963    643.963
 61.770    834.615    865.721    -31.107    643.985    821.218    688.449    643.985    643.985
 61.870    894.000    893.705      0.295    644.006    832.968    704.687    644.006    644.006
 61.970    950.000    951.634     -1.634    644.026    867.106    728.475    644.026    644.026
 62.070   1042.515   1041.863      0.652    644.045    924.231    761.570    644.045    644.045
 62.170   1158.000   1165.167     -7.167    644.063   1004.236    804.854    644.063    644.063
 62.270   1236.000   1318.204    -82.204    644.080   1104.533    857.580    644.080    644.080
 62.370   1463.000   1491.175    -28.175    644.096   1218.402    916.672    644.096    644.096
 62.470   1592.000   1666.247    -74.247    644.111   1333.874    976.270    644.111    644.111
 62.570   1847.000   1817.549     29.451    644.124   1433.688   1027.775    644.124    644.124
 62.670   1946.000   1914.908     31.092    644.137   1497.741   1061.119    644.137    644.137
 62.770   1864.000   1933.959    -69.959    644.148   1509.800   1068.165    644.148    644.148
 62.870   1823.211   1869.072    -45.861    644.158   1466.095   1047.040    644.158    644.158
 62.970   1691.282   1737.114    -45.832    644.168   1377.826   1003.401    644.168    644.168
 63.070   1549.000   1567.370    -18.370    644.176   1264.456    947.065    644.176    644.176
 63.170   1416.000   1388.566     27.434    644.183   1145.084    887.661    644.183    644.183
 63.270   1199.909   1222.188    -22.278    644.189   1033.991    832.391    644.189    644.189
 63.370   1124.000   1081.143     42.857    644.193    939.758    785.586    644.193    644.193
 63.470    990.872    970.664     20.208    644.197    865.863    749.005    644.197    644.197
 63.570    951.181    890.133     61.048    644.199    811.891    722.446    644.199    644.199
 63.670    800.000    835.351    -35.351    644.201    775.050    704.503    644.201    644.201
 63.770    795.000    800.739     -5.739    644.201    751.633    693.304    644.201    644.201
 63.870    739.000    781.032    -42.032    644.200    738.145    687.081    644.200    644.200
 63.970    824.000    772.272     51.728    644.197    731.954    684.508    644.197    644.197
 64.070    828.676    772.326     56.350    644.194    731.616    684.893    644.194    644.194
 64.170    766.183    780.763    -14.580    644.189    736.756    688.180    644.189    644.189
 64.270    781.454    798.766    -17.311    644.184    747.952    694.976    644.184    644.184
 64.370    821.000    828.798     -7.798    644.177    766.430    706.514    644.177    644.177
 64.470    881.000    874.104      6.896    644.169    793.676    724.553    644.169    644.169
 64.570    917.000    937.963    -20.963    644.159    830.921    751.144    644.159    644.159
 64.670   1021.000   1022.667     -1.667    644.149    878.541    788.200    644.149    644.149
 64.770   1112.000   1128.262    -16.262    644.137    935.424    836.881    644.137    644.137
 64.870   1229.264   1251.222    -21.958    644.124    998.373    896.863    644.124    644.124
 64.970   1413.308   1383.297     30.010    644.110   1061.665    965.621    644.110    644.110
 65.070   1564.000   1511.052     52.948    644.095   1117.139   1037.885    644.095    644.095
 65.170   1693.000   1617.088     75.912    644.078   1155.635   1105.420    644.078    644.078
 65.270   1680.000   1683.743     -3.743    644.061   1170.108   1157.608    644.061    644.061
 65.370   1730.253   1698.502     31.752    644.042   1158.682   1183.809    644.042    644.042
 65.470   1729.225   1658.866     70.359    644.022   1125.195   1177.679    644.022    644.022
 65.570   1569.674   1573.841     -4.166    644.000   1077.201   1140.661    644.000    644.000
 65.670   1497.000   1460.250     36.750    643.977   1023.145   1081.129    643.977    643.977
 65.770   1278.814   1336.202    -57.389    643.953    970.078   1010.142    643.953    643.953
 65.870   1174.945   1216.134    -41.190    643.928    922.489    937.645    643.928    643.928
 65.970   1112.716   1109.031      3.686    643.902    882.171    870.834    643.902    643.902
 66.070   1001.000   1018.850    -17.850    643.874    848.851    813.941    643.874    643.874
 66.170    951.739    946.018      5.721    643.845    821.302    768.621    643.845    643.845
 66.270    878.361    889.087    -10.726    643.815    798.391    734.561    643.815    643.815
 66.370    895.705    845.854     49.851    643.784    779.460    710.218    643.784    643.784
 66.470    760.000    813.883    -53.883    643.751    764.156    693.509    643.751    643.751
 66.570    769.000    790.811    -21.811    643.717    752.202    682.348    643.717    643.717
 66.670    816.533    774.601     41.932    643.682    743.330    674.969    643.682    643.682
 66.770    702.000    763.677    -61.677    643.645    737.294    670.040    643.645    643.645
 66.870    749.000    756.932     -7.932    643.607    733.899    666.649    643.607    643.607
 66.970    737.000    753.665    -16.665    643.568    733.022    664.218    643.568    643.568
 67.070    791.070    753.536     37.533    643.528    734.663    662.408    643.528    643.528
 67.170    672.000    756.597    -84.597    643.486    739.056    661.033    643.486    643.486
 67.270    731.687    763.397    -31.710    643.443    746.840    660.007    643.443    643.443
 67.370    802.164    775.181     26.982    643.399    759.277    659.310    643.399    643.399
 67.470    770.000    794.129    -24.129    643.353    778.512    658.976    643.353    643.353
 67.570    795.000    823.593    -28.593    643.306    807.815    659.090    643.306    643.306
 67.670    811.830    868.226    -56.397    643.258    851.707    659.781    643.258    643.258
 67.770    973.000    933.843     39.157    643.209    915.830    661.225    643.209    643.209
 67.870    932.000   1026.842    -94.842    643.158   1006.392    663.613    643.158    643.158
 67.970   1079.000   1153.093    -74.093    643.106   1129.083    667.126    643.106    643.106
 68.070   1199.000   1316.297   -117.297    643.052   1287.496    671.875    643.052    643.052
 68.170   1433.000   1516.050    -83.050    642.997   1481.250    677.839    642.997    642.997
 68.270   1767.811   1745.933     21.877    642.941   1704.139    684.808    642.941    642.941
 68.370   1905.684   1991.943    -86.259    642.884   1942.615    692.328    642.884    642.884
 68.470   2135.000   2231.549    -96.549    642.825   2174.877    699.672    642.825    642.825
 68.570   2437.000   2434.230      2.770    642.765   2371.380    705.858    642.765    642.765
 68.670   2628.000   2565.785     62.215    642.704   2499.018    709.785    642.704    642.704
 68.770   2523.000   2598.748    -75.748    642.641   2531.193    710.569    642.641    642.641
 68.870   2567.000   2525.303     41.697    642.577   2460.329    707.958    642.577    642.577
 68.970   2439.000   2361.845     77.155    642.512   2302.292    702.474    642.512    642.512
 69.070   2188.000   2140.166     47.834    642.445   2087.859    695.137    642.445    642.445
 69.170   1974.000   1894.153     79.847    642.377   1849.840    687.031    642.377    642.377
 69.270   1736.000   1651.558     84.442    642.307   1615.106    679.047    642.307    642.307
 69.370   1488.000   1431.556     56.444    642.237   1402.226    671.799    642.237    642.237
 69.470   1288.000   1245.038     42.962    642.164   1221.748    665.635    642.164    642.164
 69.570   1222.000   1095.858    126.142    642.091   1077.407    660.677    642.091    642.091
 69.670    999.859    982.564     17.296    642.016    967.798    656.880    642.016    642.016
 69.770    978.000    900.354     77.646    641.940    888.276    654.088    641.940    641.940
 69.870    892.000    842.935     49.065    641.863    832.748    652.100    641.863    641.863
 69.970    900.000    803.970     96.030    641.784    795.080    650.710    641.784    641.784
 70.070    866.000    777.977     88.023    641.703    769.963    649.744    641.703    641.703
 70.170    859.000    760.703     98.297    641.622    753.281    649.064    641.622    641.622
 70.270    795.000    749.127     45.873    641.539    742.108    648.572    641.539    641.539
 70.370    762.000    741.250     20.750    641.455    734.516    648.201    641.455    641.455
 70.470    754.922    735.850     19.071    641.369    729.310    647.919    641.369    641.369
 70.570    725.155    732.208     -7.053    641.282    725.795    647.702    641.282    641.282
 70.670    763.550    729.934     33.616    641.194    723.596    647.537    641.194    641.194
 70.770    775.000    728.854     46.146    641.104    722.543    647.418    641.104    641.104
 70.870    733.914    728.948      4.965    641.013    722.617    647.346    641.013    641.013
 70.970    659.000    730.347    -71.347    640.920    723.940    647.328    640.920    640.920
 71.070    737.000    733.364      3.636    640.827    726.812    647.376    640.827    640.827
 71.170    685.317    738.571    -53.254    640.731    731.781    647.517    640.731    640.731
 71.270    732.000    746.915    -14.915    640.635    739.754    647.789    640.635    640.635
 71.370    781.000    759.850     21.150    640.537    752.120    648.254    640.537    640.537
 71.470    784.171    779.464      4.707    640.438    770.883    649.000    640.438    640.438
 71.570    778.000    808.550    -30.550    640.337    798.715    650.144    640.337    640.337
 71.670    811.000    850.543    -39.543    640.235    838.908    651.830    640.235    640.235
 71.770    968.098    909.247     58.852    640.131    895.105    654.217    640.131    640.131
 71.870    986.344    988.305     -1.961    640.027    970.797    657.460    640.027    640.027
 71.970   1080.000   1090.406    -10.406    639.921   1068.558    661.671    639.921    639.921
 72.070   1159.026   1216.307    -57.281    639.813   1189.115    666.883    639.813    639.813
 72.170   1302.000   1363.821    -61.821    639.704   1330.371    673.007    639.704    639.704
 72.270   1476.000   1526.912    -50.912    639.594   1486.543    679.794    639.594    639.594
 72.370   1620.000   1695.016    -75.016    639.482   1647.510    686.804    639.482    639.482
 72.470   1855.301   1852.777      2.524    639.369   1798.555    693.401    639.369    639.369
 72.570   2004.000   1980.838     23.162    639.255   1921.131    698.780    639.255    639.255
 72.670   2120.000   2059.030     60.970    639.139   1995.907    702.102    639.139    639.139
 72.770   2120.498   2072.576     47.922    639.022   2008.716    702.754    639.022    639.022
 72.870   1968.354   2018.585    -50.230    638.904   1956.777    700.619    638.904    638.904
 72.970   1823.000   1907.577    -84.577    638.784   1850.166    696.135    638.784    638.784
 73.070   1711.146   1758.491    -47.345    638.663   1707.029    690.092    638.663    638.663
 73.170   1604.000   1591.660     12.340    638.540   1546.857    683.329    638.540    638.540
 73.270   1398.610   1424.255    -25.645    638.416   1386.121    676.550    638.416    638.416
 73.370   1233.000   1268.726    -35.726    638.291   1236.773    670.251    638.291    638.291
 73.470   1142.000   1132.797      9.203    638.164   1106.242    664.729    638.164    638.164
 73.570    981.390   1020.044    -38.654    638.036    997.982    660.108    638.036    638.036
 73.670    943.000    930.741     12.259    637.907    912.264    656.391    637.907    637.907
 73.770    859.000    862.859     -3.859    637.776    847.137    653.505    637.776    637.776
 73.870    828.000    813.080     14.920    637.644    799.387    651.341    637.644    637.644
 73.970    770.000    777.655     -7.655    637.510    765.382    649.787    637.510    637.510
 74.070    747.000    753.042     -6.042    637.375    741.681    648.739    637.375    637.375
 74.170    697.000    736.264    -39.264    637.239    725.389    648.117    637.239    637.239
 74.270    754.000    725.050     28.950    637.102    714.285    647.870    637.102    637.102
 74.370    687.000    717.795    -30.795    636.963    706.793    647.971    636.963    636.963
 74.470    712.000    713.443     -1.443    636.822    701.863    648.410    636.822    636.822
 74.570    763.862    711.319     52.543    636.681    698.827    649.184    636.681    636.681
 74.670    719.019    710.986      8.033    636.538    697.255    650.285    636.538    636.538
 74.770    715.000    712.115      2.885    636.394    696.842    651.687    636.394    636.394
 74.870    700.000    714.393    -14.393    636.248    697.327    653.341    636.248    636.248
 74.970    735.000    717.456     17.544    636.101    698.428    655.162    636.101    636.101
 75.070    677.000    720.849    -43.849    635.952    699.815    657.026    635.952    635.952
 75.170    740.000    724.017     15.983    635.803    701.090    658.774    635.803    635.803
 75.270    761.000    726.347     34.653    635.652    701.820    660.228    635.652    635.652
 75.370    760.000    727.308     32.692    635.499    701.621    661.238    635.499    635.499
 75.470    791.000    726.655     64.345    635.345    700.303    661.749    635.345    635.345
 75.570    681.134    724.575    -43.442    635.190    697.957    661.858    635.190    635.190
 75.670    773.000    721.664     51.336    635.034    694.935    661.807    635.034    635.034
 75.770    775.000    718.767     56.233    634.876    691.740    661.940    634.876    634.876
 75.870    716.000    716.837     -0.837    634.717    688.916    662.669    634.717    634.717
 75.970    722.705    716.870      5.835    634.557    686.995    664.455    634.557    634.557
 76.070    667.685    719.897    -52.212    634.395    686.494    667.813    634.395    634.395
 76.170    748.709    726.974     21.734    634.232    687.908    673.305    634.232    634.232
 76.270    754.000    739.154     14.846    634.068    691.701    681.519    634.068    634.068
 76.370    760.000    757.398      2.602    633.902    698.279    693.010    633.902    633.902
 76.470    796.000    782.442     13.558    633.735    707.937    708.222    633.735    633.735
 76.570    763.597    814.620    -51.023    633.567    720.787    727.372    633.567    633.567
 76.670    890.000    853.659     36.341    633.397    736.685    750.336    633.397    633.397
 76.770    909.000    898.483     10.517    633.226    755.145    776.522    633.226    633.226
 76.870    930.000    947.049    -17.049    633.054    775.273    804.782    633.054    633.054
 76.970    947.000    996.223    -49.223    632.880    795.717    833.334    632.880    632.880
 77.070   1028.000   1041.762    -13.762    632.705    814.659    859.755    632.705    632.705
 77.170   1142.321   1078.551     63.770    632.529    829.915    881.115    632.529    632.529
 77.270   1162.000   1101.385     60.615    632.352    839.262    894.431    632.352    632.352
 77.370   1118.000   1106.406     11.594    632.173    841.056    897.488    632.173    632.173
 77.470   1077.000   1092.603    -15.603    631.993    834.862    889.708    631.993    631.993
 77.570   1049.000   1062.282    -13.282    631.812    821.656    872.421    631.812    631.812
 77.670   1032.000   1020.063     11.937    631.629    803.402    848.280    631.629    631.629
 77.770    974.662    971.247      3.415    631.446    782.353    820.336    631.446    631.446
 77.870    927.000    920.604      6.396    631.260    760.534    791.331    631.260    631.260
 77.970    886.000    871.856     14.144    631.074    739.527    763.406    631.074    631.074
 78.070    836.343    827.581      8.761    630.887    720.426    738.046    630.887    630.887
 78.170    772.000    789.294    -17.294    630.698    703.876    716.121    630.698    630.698
 78.270    777.000    757.595     19.405    630.507    690.129    697.977    630.507    630.507
 78.370    764.030    732.363     31.667    630.316    679.135    683.548    630.316    630.316
 78.470    663.499    712.981    -49.482    630.123    670.629    672.479    630.123    630.123
 78.570    695.000    698.553     -3.553    629.930    664.230    664.254    629.930    629.930
 78.670    707.000    688.092     18.908    629.734    659.518    658.311    629.734    629.734
 78.770    675.000    680.665     -5.665    629.538    656.094    654.110    629.538    629.538
 78.870    633.666    675.467    -41.800    629.340    653.615    651.192    629.340    629.340
 78.970    679.000    671.862      7.138    629.142    651.811    649.193    629.142    629.142
 79.070    627.000    669.381    -42.381    628.942    650.480    647.843    628.942    628.942
 79.170    706.000    667.697     38.303    628.740    649.482    646.955    628.740    628.740
 79.270    683.000    666.597     16.403    628.538    648.726    646.409    628.538    628.538
 79.370    701.000    665.958     35.042    628.334    648.157    646.135    628.334    628.334
 79.470    666.114    665.720      0.394    628.129    647.747    646.102    628.129    628.129
 79.570    682.000    665.872     16.128    627.923    647.488    646.307    627.923    627.923
 79.670    648.000    666.449    -18.449    627.716    647.386    646.778    627.716    627.716
 79.770    661.000    667.534     -6.534    627.507    647.461    647.580    627.507    627.507
 79.870    678.947    669.265      9.683    627.298    647.743    648.818    627.298    627.298
 79.970    718.210    671.858     46.352    627.087    648.277    650.667    627.087    627.087
 80.070    670.000    675.637     -5.637    626.875    649.120    653.390    626.875    626.875
 80.170    729.012    681.069     47.943    626.662    650.347    657.380    626.662    626.662
 80.270    695.285    688.807      6.478    626.447    652.057    663.192    626.447    626.447
 80.370    659.000    699.727    -40.727    626.232    654.375    671.576    626.232    626.232
 80.470    719.000    714.950      4.050    626.015    657.457    683.498    626.015    626.015
 80.570    805.000    735.824     69.176    625.797    661.493    700.115    625.797    625.797
 80.670    755.000    763.847     -8.847    625.578    666.701    722.708    625.578    625.578
 80.770    803.116    800.524      2.592    625.358    673.312    752.550    625.358    625.358
 80.870    821.000    847.160    -26.160    625.137    681.561    790.713    625.137    625.137
 80.970    901.660    904.607     -2.947    624.914    691.668    837.828    624.914    624.914
 81.070   1045.000    972.985     72.015    624.691    703.822    893.830    624.691    624.691
 81.170   1042.000   1051.390     -9.390    624.466    718.135    957.700    624.466    624.466
 81.270   1154.000   1137.621     16.379    624.241    734.581   1027.265    624.241    624.241
 81.370   1170.034   1227.993    -57.958    624.014    752.913   1099.088    624.014    624.014
 81.470   1419.000   1317.339    101.661    623.786    772.616   1168.518    623.786    623.786
 81.570   1459.000   1399.331     59.669    623.557    792.900   1230.016    623.557    623.557
 81.670   1534.000   1467.224     66.776    623.327    812.753   1277.849    623.327    623.327
 81.770   1651.000   1515.109    135.891    623.095    831.111   1307.168    623.095    623.095
 81.870   1643.000   1539.138    103.862    622.863    847.027   1315.072    622.863    622.863
 81.970   1513.309   1537.998    -24.689    622.630    859.676   1301.069    622.630    622.630
 82.070   1585.000   1512.947     72.053    622.395    868.516   1266.960    622.395    622.395
 82.170   1547.000   1467.333     79.667    622.160    873.294   1216.343    622.160    622.160
 82.270   1507.000   1405.985    101.015    621.924    874.023   1154.037    621.924    621.924
 82.370   1332.104   1334.411     -2.307    621.686    870.866   1085.385    621.686    621.686
 82.470   1280.025   1257.903     22.122    621.447    864.024   1015.478    621.447    621.447
 82.570   1237.000   1180.937     56.063    621.208    853.752    948.539    621.208    621.208
 82.670   1148.000   1106.988     41.012    620.967    840.486    887.607    620.967    620.967
 82.770   1052.000   1038.562     13.438    620.726    824.921    834.492    620.726    620.726
 82.870    990.676    977.219     13.457    620.483    807.904    789.912    620.483    620.483
 82.970    890.000    923.609    -33.609    620.239    790.235    753.715    620.239    620.239
 83.070    819.621    877.613    -57.992    619.995    772.544    725.153    619.995    619.995
 83.170    816.000    838.632    -22.632    619.749    755.309    703.149    619.749    619.749
 83.270    764.874    805.901    -41.028    619.502    738.938    686.532    619.502    619.502
 83.370    761.169    778.711    -17.542    619.255    723.819    674.202    619.255    619.255
 83.470    740.000    756.488    -16.488    619.006    710.318    665.220    619.006    619.006
 83.570    702.000    738.793    -36.793    618.757    698.740    658.844    618.757    618.757
 83.670    648.000    725.281    -77.281    618.506    689.297    654.515    618.506    618.506
 83.770    686.170    715.665    -29.495    618.255    682.100    651.835    618.255    618.255
 83.870    719.000    709.674      9.326    618.003    677.159    650.523    618.003    618.003
 83.970    690.472    707.014    -16.542    617.750    674.387    650.372    617.750    617.750
 84.070    688.000    707.326    -19.326    617.495    673.602    651.205    617.495    617.495
 84.170    685.000    710.157    -25.157    617.240    674.529    652.845    617.240    617.240
 84.270    759.012    714.935     44.076    616.984    676.804    655.085    616.984    616.984
 84.370    692.835    720.969    -28.134    616.728    679.981    657.677    616.728    616.728
 84.470    750.105    727.449     22.656    616.470    683.545    660.329    616.470    616.470
 84.570    750.000    733.475     16.525    616.211    686.930    662.708    616.211    616.211
 84.670    786.779    738.123     48.656    615.952    689.559    664.465    615.952    615.952
 84.770    710.000    740.556    -30.556    615.691    690.914    665.282    615.691    615.691
 84.870    651.000    740.190    -89.190    615.430    690.631    664.939    615.430    615.430
 84.970    701.913    736.841    -34.928    615.168    688.588    663.374    615.168    615.168
 85.070    687.953    730.765    -42.812    614.905    684.926    660.702    614.905    614.905
 85.170    773.316    722.556     50.760    614.641    679.986    657.173    614.641    614.641
 85.270    697.000    712.968    -15.968    614.377    674.204    653.108    614.377    614.377
 85.370    702.000    702.770     -0.770    614.112    668.025    648.829    614.112    614.112
 85.470    668.000    692.648    -24.648    613.846    661.836    644.634    613.846    613.846
 85.570    655.000    683.168    -28.168    613.579    655.953    640.775    613.579    613.579
 85.670    638.000    674.759    -36.759    613.311    650.600    637.453    613.311    613.311
 85.770    638.142    667.724    -29.582    613.042    645.927    634.825    613.042    613.042
 85.870    652.000    662.240    -10.240    612.773    641.999    633.002    612.773    612.773
 85.970    654.000    658.385     -4.385    612.503    638.821    632.056    612.503    612.503
 86.070    622.581    656.160    -33.579    612.232    636.353    632.027    612.232    612.232
 86.170    632.827    655.506    -22.679    611.961    634.529    632.926    611.961    611.961
 86.270    654.579    656.329     -1.750    611.689    633.273    634.731    611.689    611.689
 86.370    742.000    658.504     83.496    611.416    632.516    637.388    611.416    611.416
 86.470    659.000    661.885     -2.885    611.142    632.206    640.804    611.142    611.142
 86.570    695.000    666.306     28.694    610.868    632.316    644.837    610.868    610.868
 86.670    674.098    671.578      2.520    610.593    632.850    649.297    610.593    610.593
 86.770    660.000    677.489    -17.489    610.317    633.845    653.934    610.317    610.317
 86.870    662.878    683.802    -20.924    610.041    635.369    658.443    610.041    610.041
 86.970    699.267    690.260      9.007    609.764    637.518    662.471    609.764    609.764
 87.070    694.000    696.608     -2.608    609.486    640.410    665.644    609.486    609.486
 87.170    677.738    702.627    -24.889    609.208    644.176    667.615    609.208    609.208
 87.270    735.000    708.198     26.802    608.929    648.943    668.135    608.929    608.929
 87.370    719.038    713.348      5.690    608.649    654.818    667.124    608.649    608.649
 87.470    719.000    718.244      0.756    608.369    661.867    664.684    608.369    608.369
 87.570    709.000    723.134    -14.134    608.088    670.090    661.062    608.088    608.088
 87.670    746.000    728.242     17.758    607.807    679.393    656.576    607.807    607.807
 87.770    726.000    733.692     -7.692    607.525    689.571    651.556    607.525    607.525
 87.870    691.000    739.443    -48.443    607.243    700.291    646.294    607.243    607.243
 87.970    766.000    745.272     20.728    606.959    711.081    641.042    606.959    606.959
 88.070    796.000    750.773     45.227    606.676    721.331    636.001    606.676    606.676
 88.170    774.000    755.382     18.618    606.392    730.325    631.326    606.392    606.392
 88.270    810.000    758.450     51.550    606.107    737.313    627.117    606.107    606.107
 88.370    804.445    759.381     45.064    605.822    741.651    623.426    605.822    605.822
 88.470    758.000    757.805      0.195    605.536    742.957    620.263    605.536    605.536
 88.570    705.182    753.700    -48.517    605.250    741.235    617.601    605.250    605.250
 88.670    760.000    747.403     12.597    604.964    736.868    615.397    604.964    604.964
 88.770    719.000    739.510    -20.510    604.676    730.503    613.594    604.676    604.676
 88.870    714.000    730.731    -16.731    604.389    722.912    612.133    604.389    604.389
 88.970    748.811    721.789     27.022    604.101    714.872    610.958    604.101    604.101
 89.070    670.949    713.353    -42.404    603.812    707.102    610.018    603.812    603.812
 89.170    711.000    706.001      4.999    603.524    700.220    609.272    603.524    603.524
 89.270    678.000    700.183    -22.183    603.234    694.716    608.682    603.234    603.234
 89.370    728.773    696.199     32.573    602.945    690.915    608.221    602.945    602.945
 89.470    675.000    694.180    -19.180    602.655    688.974    607.863    602.655    602.655
 89.570    676.673    694.083    -17.410    602.364    688.874    607.586    602.364    602.364
 89.670    707.000    695.705     11.295    602.074    690.429    607.372    602.074    602.074
 89.770    657.000    698.692    -41.692    601.782    693.307    607.199    601.782    601.782
 89.870    708.267    702.564      5.703    601.491    697.047    607.048    601.491    601.491
 89.970    672.000    706.740    -34.740    601.199    701.089    606.897    601.199    601.199
 90.070    683.086    710.571    -27.485    600.907    704.809    606.725    600.907    600.907
 90.170    764.649    713.406     51.243    600.615    707.572    606.509    600.615    600.615
 90.270    730.000    714.674     15.326    600.322    708.829    606.232    600.322    600.322
 90.370    705.000    713.984     -8.984    600.029    708.199    605.882    600.029    600.029
 90.470    693.759    711.205    -17.446    599.736    705.554    605.455    599.736    599.736
 90.570    674.000    706.484    -32.484    599.442    701.035    604.958    599.442    599.442
 90.670    754.000    700.180     53.820    599.149    694.986    604.405    599.149    599.149
 90.770    694.000    692.763      1.237    598.855    687.862    603.814    598.855    598.855
 90.870    656.918    684.728    -27.811    598.561    680.139    603.202    598.561    598.561
 90.970    633.000    676.527    -43.527    598.266    672.253    602.586    598.266    598.266
 91.070    710.329    668.543     41.786    597.972    664.574    601.980    597.972    597.972
 91.170    665.000    661.074      3.926    597.677    657.390    601.395    597.677    597.677
 91.270    628.000    654.335    -26.335    597.382    650.908    600.837    597.382    597.382
 91.370    616.000    648.460    -32.460    597.087    645.256    600.312    597.087    597.087
 91.470    589.000    643.509    -54.509    596.792    640.495    599.823    596.792    596.792
 91.570    642.000    639.487      2.513    596.497    636.628    599.368    596.497    596.497
 91.670    591.708    636.355    -44.647    596.201    633.618    598.948    596.201    596.201
 91.770    622.927    634.051    -11.123    595.906    631.404    598.559    595.906    595.906
 91.870    663.201    632.501     30.699    595.610    629.916    598.200    595.610    595.610
 91.970    613.000    631.642    -18.642    595.315    629.091    597.867    595.315    595.315
 92.070    617.000    631.425    -14.425    595.019    628.884    597.560    595.019    595.019
 92.170    652.000    631.832     20.168    594.723    629.276    597.278    594.723    594.723
 92.270    658.000    632.876     25.124    594.428    630.279    597.021    594.428    594.428
 92.370    612.000    634.604    -22.604    594.132    631.938    596.793    594.132    594.132
 92.470    624.622    637.100    -12.478    593.836    634.335    596.595    593.836    593.836
 92.570    644.000    640.479      3.521    593.541    637.578    596.432    593.541    593.541
 92.670    654.241    644.878      9.363    593.245    641.802    596.309    593.245    593.245
 92.770    601.794    650.453    -48.660    592.949    647.156    596.232    592.949    592.949
 92.870    658.000    657.362      0.638    592.654    653.791    596.205    592.654    592.654
 92.970    622.000    665.750    -43.750    592.358    661.852    596.232    592.358    592.358
 93.070    684.000    675.740      8.260    592.063    671.456    596.318    592.063    592.063
 93.170    727.000    687.411     39.589    591.768    682.681    596.464    591.768    591.768
 93.270    686.000    700.788    -14.788    591.473    695.552    596.668    591.473    591.473
 93.370    720.000    715.824      4.176    591.178    710.026    596.928    591.178    591.178
 93.470    752.000    732.397     19.603    590.883    725.984    597.242    590.883    590.883
 93.570    737.000    750.293    -13.293    590.588    743.218    597.603    590.588    590.588
 93.670    781.335    769.210     12.125    590.294    761.429    598.007    590.294    590.294
 93.770    827.556    788.758     38.798    589.999    780.231    598.454    589.999    589.999
 93.870    862.608    808.490     54.118    589.705    799.173    598.944    589.705    589.705
 93.970    792.000    827.956    -35.956    589.411    817.794    599.491    589.411    589.411
 94.070    891.029    846.796     44.233    589.118    835.709    600.119    589.118    589.118
 94.170    807.376    864.831    -57.455    588.824    852.697    600.872    588.824    588.824
 94.270    852.000    882.121    -30.121    588.531    868.753    601.812    588.531    588.531
 94.370    908.764    898.930      9.834    588.239    884.062    603.019    588.239    588.239
 94.470    868.757    915.617    -46.860    587.946    898.896    604.580    587.946    587.946
 94.570    931.000    932.498     -1.498    587.654    913.484    606.582    587.654    587.654
 94.670    888.212    949.794    -61.582    587.362    927.974    609.097    587.362    587.362
 94.770    974.188    967.479      6.710    587.071    942.293    612.174    587.071    587.071
 94.870    977.000    985.383     -8.383    586.779    956.258    615.824    586.779    586.779
 94.970    967.000   1003.257    -36.257    586.489    969.651    620.016    586.489    586.489
 95.070   1035.000   1020.833     14.167    586.198    982.285    624.671    586.198    586.198
 95.170   1007.000   1037.820    -30.820    585.909    994.003    629.655    585.909    585.909
 95.270   1053.000   1053.831     -0.831    585.619   1004.602    634.782    585.619    585.619
 95.370   1078.000   1068.282      9.718    585.330   1013.737    639.814    585.330    585.330
 95.470   1104.297   1080.331     23.966    585.041   1020.844    644.474    585.041    585.041
 95.570   1073.000   1088.902    -15.902    584.753   1025.150    648.459    584.753    584.753
 95.670   1137.000   1092.800     44.200    584.466   1025.763    651.466    584.466    584.466
 95.770   1101.955   1090.941     11.014    584.179   1021.861    653.232    584.179    584.179
 95.870   1115.000   1082.616     32.384    583.892   1012.911    653.580    583.892    583.892
 95.970   1131.000   1067.720     63.280    583.606    998.864    652.455    583.606    583.606
 96.070   1118.000   1046.856     71.144    583.321    980.239    649.938    583.321    583.321
 96.170   1003.000   1021.254    -18.254    583.036    958.068    646.229    583.036    583.036
 96.270    985.167    992.565     -7.398    582.752    933.724    641.604    582.752    582.752
 96.370    988.000    962.634     25.366    582.468    908.747    636.369    582.468    582.468
 96.470    936.000    933.334      2.666    582.186    884.706    630.827    582.186    582.186
 96.570    930.000    906.452     23.548    581.903    863.113    625.254    581.903    581.903
 96.670    906.184    883.629     22.555    581.622    845.376    619.884    581.622    581.622
 96.770    925.000    866.324     58.676    581.341    832.770    614.900    581.341    581.341
 96.870    870.000    855.793     14.207    581.061    826.419    610.434    581.061    581.061
 96.970    866.000    853.077     12.923    580.781    827.283    606.568    580.781    580.781
 97.070    866.000    858.991      7.009    580.502    836.143    603.336    580.502    580.502
 97.170    965.000    874.119     90.881    580.224    853.585    600.736    580.224    580.224
 97.270    941.692    898.800     42.893    579.947    879.979    598.736    579.947    579.947
 97.370    873.000    933.106    -60.106    579.671    915.451    597.287    579.671    579.671
 97.470    920.998    976.824    -55.826    579.395    959.844    596.328    579.395    579.395
 97.570   1034.001   1029.411      4.591    579.120   1012.681    595.794    579.120    579.120
 97.670   1044.312   1089.955    -45.642    578.847   1073.118    595.620    578.847    578.847
 97.770   1145.000   1157.126    -12.126    578.574   1139.893    595.738    578.574    578.574
 97.870   1207.000   1229.098    -22.098    578.301   1211.250    596.076    578.301    578.301
 97.970   1328.000   1303.695     24.305    578.030   1285.082    596.568    578.030    578.030
 98.070   1366.000   1378.165    -12.165    577.760   1358.711    597.140    577.760    577.760
 98.170   1507.561   1449.271     58.290    577.491   1428.981    597.711    577.491    577.491
 98.270   1515.000   1513.439      1.561    577.222   1492.400    598.200    577.222    577.222
 98.370   1565.000   1566.967     -1.967    576.955   1545.345    598.527    576.955    576.955
 98.470   1544.000   1606.396    -62.396    576.688   1584.433    598.616    576.688    576.688
 98.570   1689.013   1629.028     59.986    576.423   1607.021    598.412    576.423    576.423
 98.670   1654.000   1633.414     20.586    576.159   1611.692    597.883    576.159    576.159
 98.770   1563.579   1619.655    -56.076    575.895   1598.541    597.030    575.895    575.895
 98.870   1577.000   1589.349    -12.349    575.633   1569.136    595.885    575.633    575.633
 98.970   1541.000   1545.252     -4.252    575.372   1526.176    594.500    575.372    575.372
 99.070   1519.525   1490.803     28.722    575.112   1473.033    592.945    575.112    575.112
 99.170   1457.000   1429.682     27.318    574.853   1413.317    591.288    574.853    574.853
 99.270   1368.207   1365.496      2.711    574.596   1350.564    589.600    574.596    574.596
 99.370   1263.513   1301.570    -38.058    574.339   1288.039    587.942    574.339    574.339
 99.470   1311.471   1240.851     70.620    574.084   1228.635    586.368    574.084    574.084
 99.570   1253.741   1185.856     67.885    573.830   1174.824    584.924    573.830    573.830
 99.670   1069.000   1138.680    -69.680    573.577   1128.666    583.646    573.577    573.577
 99.770   1087.000   1101.021    -14.021    573.326   1091.832    582.561    573.326    573.326
 99.870   1074.000   1074.213     -0.213    573.075   1065.638    581.687    573.075    573.075
 99.970   1030.000   1059.258    -29.258    572.826   1051.079    581.033    572.826    572.826
100.070   1070.000   1056.843     13.157    572.579   1048.840    580.601    572.579    572.579
100.170   1054.000   1067.355    -13.355    572.332   1059.314    580.386    572.332    572.332
100.270   1120.000   1090.881     29.119    572.087   1082.600    580.376    572.087    572.087
100.370   1146.000   1127.217     18.783    571.844   1118.511    580.553    571.844    571.844
100.470   1109.000   1175.865    -66.865    571.601   1166.574    580.894    571.601    571.601
100.570   1284.000   1236.026     47.974    571.361   1226.018    581.371    571.361    571.361
100.670   1303.000   1306.584     -3.584    571.121   1295.760    581.952    571.121    571.121
100.770   1397.000   1386.081     10.919    570.884   1374.379    582.600    570.884    570.884
100.870   1519.000   1472.691     46.309    570.647   1460.088    583.274    570.647    570.647
100.970   1517.380   1564.205    -46.825    570.412   1550.722    583.933    570.412    570.412
101.070   1630.000   1658.050    -28.050    570.179   1643.753    584.530    570.179    570.179
101.170   1687.634   1751.366    -63.732    569.947   1736.364    585.024    569.947    569.947
101.270   1860.000   1841.229     18.771    569.717   1825.669    585.375    569.717    569.717
101.370   1945.000   1924.823     20.177    569.488   1908.881    585.554    569.488    569.488
101.470   1947.000   1999.704    -52.704    569.261   1983.566    585.549    569.261    569.261
101.570   1980.343   2063.951    -83.608    569.036   2047.800    585.361    569.036    569.036
101.670   2156.000   2116.141     39.859    568.812   2100.140    585.012    568.812    568.812
101.770   2125.000   2155.183    -30.183    568.590   2139.462    584.534    568.590    568.590
101.870   2245.943   2180.124     65.818    568.370   2164.771    583.965    568.370    568.370
101.970   2166.510   2190.062    -23.552    568.151   2175.123    583.348    568.151    568.151
102.070   2189.000   2184.261      4.739    567.935   2169.745    582.722    567.935    567.935
102.170   2116.193   2162.460    -46.267    567.719   2148.339    582.122    567.719    567.719
102.270   2080.529   2125.240    -44.710    567.506   2111.457    581.575    567.506    567.506
102.370   2110.000   2074.262     35.738    567.295   2060.738    581.105    567.295    567.295
102.470   2049.382   2012.235     37.148    567.085   1998.877    580.726    567.085    567.085
102.570   1941.000   1942.592     -1.592    566.877   1929.302    580.443    566.877    566.877
102.670   1851.000   1869.020    -18.020    566.671   1855.701    580.254    566.671    566.671
102.770   1822.000   1794.994     27.006    566.467   1781.564    580.147    566.467    566.467
102.870   1695.238   1723.456    -28.218    566.265   1709.852    580.104    566.265    566.265
102.970   1571.000   1656.630    -85.630    566.065   1642.815    580.099    566.065    566.065
103.070   1532.821   1595.969    -63.149    565.867   1581.933    580.107    565.867    565.867
103.170   1545.243   1542.164      3.079    565.671   1527.924    580.100    565.671    565.671
103.270   1469.015   1495.191    -26.176    565.477   1480.790    580.055    565.477    565.477
103.370   1484.695   1454.388     30.307    565.285   1439.889    579.950    565.285    565.285
103.470   1354.000   1418.555    -64.555    565.095   1404.040    579.767    565.095    565.095
103.570   1395.000   1386.092      8.908    564.907   1371.662    579.488    564.907    564.907
103.670   1283.294   1355.205    -71.911    564.721   1340.973    579.099    564.721    564.721
103.770   1300.244   1324.143    -23.899    564.537   1310.234    578.588    564.537    564.537
103.870   1257.000   1291.454    -34.454    564.356   1277.997    577.953    564.356    564.356
103.970   1222.000   1256.188    -34.188    564.176   1243.304    577.196    564.176    564.176
104.070   1206.000   1217.974    -11.974    563.999   1205.774    576.331    563.999    563.999
104.170   1198.000   1176.989     21.011    563.824   1165.560    575.380    563.824    563.824
104.270   1141.000   1133.807      7.193    563.652   1123.212    574.368    563.652    563.652
104.370   1144.327   1089.238     55.089    563.481   1079.514    573.320    563.481    563.481
104.470    987.342   1044.201    -56.859    563.313   1035.357    572.264    563.313    563.313
104.570   1039.000    999.583     39.417    563.147    991.607    571.222    563.147    563.147
104.670    973.245    956.206     17.038    562.984    949.069    570.212    562.984    562.984
104.770    909.000    914.785     -5.785    562.823    908.439    569.250    562.823    562.823
104.870    870.976    875.907     -4.930    562.664    870.296    568.348    562.664    562.664
104.970    930.000    840.021     89.979    562.508    835.081    567.512    562.508    562.508
105.070    899.000    807.435     91.565    562.354    803.098    566.748    562.354    562.354
105.170    784.742    778.321      6.421    562.203    774.517    566.056    562.203    562.203
105.270    775.000    752.720     22.280    562.054    749.379    565.437    562.054    562.054
105.370    699.444    730.564    -31.119    561.908    727.621    564.886    561.908    561.908
105.470    771.000    711.682     59.318    561.764    709.080    564.396    561.764    561.764
105.570    702.447    695.850      6.597    561.623    693.537    563.960    561.623    561.623
105.670    722.000    682.843     39.157    561.485    680.760    563.587    561.485    561.485
105.770    718.055    672.356     45.699    561.349    670.457    563.263    561.349    561.349
105.870    654.173    664.103     -9.930    561.216    662.350    562.981    561.216    561.216
105.970    661.078    657.821      3.257    561.085    656.180    562.736    561.085    561.085
106.070    690.000    653.274     36.726    560.957    651.715    562.523    560.957    560.957
106.170    682.939    650.262     32.677    560.832    648.760    562.337    560.832    560.832
106.270    602.602    648.626    -46.025    560.710    647.160    562.177    560.710    560.710
106.370    702.000    648.247     53.753    560.590    646.797    562.039    560.590    560.590
106.470    712.000    649.041     62.959    560.474    647.590    561.921    560.474    560.474
106.570    679.000    650.957     28.043    560.360    649.488    561.823    560.360    560.360
106.670    623.742    653.969    -30.227    560.248    652.466    561.742    560.248    560.248
106.770    655.000    658.069     -3.069    560.140    656.518    561.679    560.140    560.140
106.870    639.003    663.261    -24.258    560.035    661.647    561.633    560.035    560.035
106.970    769.000    669.551     99.449    559.933    667.860    561.605    559.933    559.933
107.070    681.000    676.942      4.058    559.833    675.160    561.593    559.833    559.833
107.170    686.000    685.423      0.577    559.737    683.537    561.599    559.737    559.737
107.270    717.267    694.964     22.303    559.644    692.960    561.620    559.644    559.644
107.370    693.864    705.501    -11.637    559.553    703.366    561.657    559.553    559.553
107.470    701.000    716.931    -15.931    559.466    714.655    561.708    559.466    559.466
107.570    752.000    729.111     22.889    559.382    726.685    561.770    559.382    559.382
107.670    746.000    741.846      4.154    559.301    739.265    561.842    559.301    559.301
107.770    748.000    754.897     -6.897    559.223    752.157    561.920    559.223    559.223
107.870    767.000    767.976     -0.976    559.148    765.080    561.999    559.148    559.148
107.970    785.000    780.758      4.242    559.077    777.711    562.076    559.077    559.077
108.070    758.497    792.885    -34.388    559.009    789.701    562.145    559.009    559.009
108.170    803.000    803.989     -0.989    558.944    800.684    562.201    558.944    558.944
108.270    840.906    813.718     27.188    558.882    810.314    562.238    558.882    558.882
108.370    773.000    821.769    -48.769    558.824    818.294    562.252    558.824    558.824
108.470    773.000    827.937    -54.937    558.769    824.422    562.240    558.769    558.769
108.570    824.087    832.150     -8.063    558.717    828.627    562.200    558.717    558.717
108.670    862.561    834.488     28.073    558.669    830.988    562.133    558.669    558.669
108.770    820.000    835.179    -15.179    558.624    831.730    562.041    558.624    558.624
108.870    840.000    834.568      5.432    558.583    831.196    561.927    558.583    558.583
108.970    812.000    833.070    -21.070    558.545    829.794    561.798    558.545    558.545
109.070    847.981    831.119     16.862    558.510    827.952    561.659    558.510    558.510
109.170    823.758    829.123     -5.365    558.480    826.073    561.515    558.480    558.480
109.270    865.040    827.431     37.609    558.452    824.502    561.371    558.452    558.452
109.370    788.000    826.312    -38.312    558.429    823.502    561.233    558.429    558.429
109.470    785.000    825.940    -40.940    558.409    823.243    561.104    558.409    558.409
109.570    768.000    826.385    -58.385    558.392    823.795    560.985    558.392    558.392
109.670    799.469    827.615    -28.146    558.380    825.121    560.880    558.380    558.380
109.770    768.000    829.489    -61.489    558.371    827.083    560.788    558.371    558.371
109.870    854.883    831.772     23.111    558.366    829.442    560.709    558.366    558.366
109.970    796.000    834.136    -38.136    558.364    831.875    560.643    558.364    558.364
110.070    883.056    836.186     46.869    558.367    833.987    560.587    558.367    558.367
110.170    784.000    837.487    -53.487    558.373    835.345    560.540    558.373    558.373
110.270    795.000    837.605    -42.605    558.383    835.518    560.498    558.383    558.383
110.370    818.000    836.162    -18.162    558.397    834.131    560.459    558.397    558.397
110.470    865.000    832.884     32.116    558.415    830.910    560.422    558.415    558.415
110.570    860.000    827.637     32.363    558.437    825.724    560.384    558.437    558.437
110.670    867.872    820.447     47.425    558.463    818.599    560.346    558.463    558.463
110.770    825.000    811.483     13.517    558.493    809.703    560.308    558.493    558.493
110.870    809.000    801.021      7.979    558.527    799.313    560.268    558.527    558.527
110.970    803.081    789.394     13.687    558.565    787.771    560.221    558.565    558.565
111.070    725.531    776.991    -51.460    558.607    775.450    560.180    558.607    558.607
111.170    746.393    764.181    -17.788    558.653    762.713    560.151    558.653    558.653
111.270    754.000    751.295      2.705    558.703    749.898    560.128    558.703    558.703
111.370    705.882    738.637    -32.754    558.758    737.307    560.113    558.758    558.758
111.470    709.000    726.466    -17.466    558.817    725.199    560.107    558.817    558.817
111.570    659.000    714.999    -55.999    558.880    713.789    560.110    558.880    558.880
111.670    728.000    704.405     23.595    558.947    703.247    560.123    558.947    558.947
111.770    717.000    694.808     22.192    559.019    693.695    560.147    559.019    559.019
111.870    715.301    686.289     29.012    559.095    685.214    560.182    559.095    559.095
111.970    643.156    678.889    -35.733    559.176    677.845    560.228    559.176    559.176
112.070    667.000    672.605     -5.605    559.260    671.586    560.286    559.260    559.260
112.170    641.887    667.423    -25.537    559.350    666.423    560.354    559.350    559.350
112.270    680.000    663.296     16.704    559.443    662.308    560.434    559.443    559.443
112.370    721.000    660.149     60.851    559.542    659.168    560.523    559.542    559.542
112.470    699.000    657.901     41.099    559.645    656.923    560.622    559.645    559.645
112.570    632.000    656.465    -24.465    559.752    655.484    560.730    559.752    559.752
112.670    678.000    655.748     22.252    559.864    654.762    560.846    559.864    559.864
112.770    693.000    655.663     37.337    559.981    654.669    560.969    559.981    559.981
112.870    643.000    656.125    -13.125    560.102    655.122    561.099    560.102    560.102
112.970    694.000    657.060     36.940    560.228    656.045    561.236    560.228    560.228
113.070    640.000    658.401    -18.401    560.359    657.374    561.378    560.359    560.359
113.170    656.000    660.096     -4.096    560.494    659.056    561.525    560.494    560.494
113.270    626.000    662.105    -36.105    560.634    661.053    561.678    560.634    560.634
113.370    675.000    664.404     10.596    560.779    663.339    561.835    560.779    560.779
113.470    647.330    666.985    -19.655    560.929    665.907    561.998    560.929    560.929
113.570    706.522    669.858     36.664    561.084    668.766    562.166    561.084    561.084
113.670    683.454    673.047     10.407    561.244    671.941    562.340    561.244    561.244
113.770    666.000    676.596    -10.596    561.409    675.473    562.521    561.409    561.409
113.870    652.000    680.568    -28.568    561.578    679.425    562.710    561.578    561.578
113.970    729.594    685.049     44.545    561.753    683.881    562.909    561.753    561.753
114.070    682.000    690.151     -8.151    561.933    688.955    563.117    561.933    561.933
114.170    694.000    696.022     -2.022    562.118    694.788    563.338    562.118    562.118
114.270    688.000    702.848    -14.848    562.308    701.569    563.572    562.308    562.308
114.370    722.000    710.866     11.134    562.503    709.531    563.822    562.503    562.503
114.470    690.000    720.378    -30.378    562.704    718.973    564.089    562.704    562.704
114.570    777.763    731.759     46.005    562.909    730.269    564.377    562.909    562.909
114.670    802.112    745.476     56.636    563.120    743.883    564.687    563.120    563.120
114.770    713.000    762.104    -49.104    563.336    760.387    565.023    563.336    563.336
114.870    745.334    782.341    -37.007    563.558    780.475    565.388    563.558    563.558
114.970    811.000    807.027      3.973    563.785    804.984    565.785    563.785    563.785
115.070    794.000    837.160    -43.160    564.017    834.908    566.218    564.017    564.017
115.170    924.453    873.904     50.549    564.255    871.406    566.690    564.255    564.255
115.270    862.000    918.603    -56.603    564.498    915.819    567.206    564.498    564.498
115.370    970.000    972.778     -2.778    564.746    969.665    567.769    564.746    564.746
115.470   1101.212   1038.125     63.087    565.001   1034.633    568.384    565.001    565.001
115.570   1171.396   1116.491     54.906    565.260   1112.567    569.054    565.260    565.260
115.670   1150.000   1209.847    -59.847    565.526   1205.435    569.782    565.526    565.526
115.770   1326.000   1320.243      5.757    565.797   1315.282    570.573    565.797    565.797
115.870   1449.000   1449.745     -0.745    566.073   1444.174    571.428    566.073    566.073
115.970   1537.914   1600.361    -62.447    566.356   1594.115    572.350    566.356    566.356
116.070   1759.000   1773.947    -14.947    566.644   1766.962    573.339    566.644    566.644
116.170   1940.000   1972.104    -32.104    566.938   1964.316    574.394    566.938    566.938
116.270   2198.044   2196.064      1.980    567.237   2187.409    575.516    567.237    567.237
116.370   2421.000   2446.564    -25.564    567.543   2436.986    576.699    567.543    567.543
116.470   2628.000   2723.734    -95.734    567.854   2713.181    577.938    567.854    567.854
116.570   3073.000   3026.978     46.022    568.172   3015.407    579.227    568.172    568.172
116.670   3339.000   3354.874    -15.874    568.495   3342.253    580.557    568.495    568.495
116.770   3806.657   3705.093    101.564    568.824   3691.400    581.917    568.824    568.824
116.870   3978.938   4074.342    -95.404    569.160   4059.571    583.294    569.160    569.160
116.970   4302.000   4458.337   -156.337    569.501   4442.495    584.677    569.501    569.501
117.070   4634.000   4851.804   -217.804    569.848   4834.914    586.051    569.848    569.848
117.170   5234.622   5248.516    -13.894    570.202   5230.615    587.403    570.202    570.202
117.270   5500.220   5641.364   -141.143    570.562   5622.505    588.721    570.562    570.562
117.370   6126.397   6022.463    103.934    570.928   6002.713    589.990    570.928    570.928
117.470   6179.000   6383.298   -204.298    571.300   6362.738    591.197    571.300    571.300
117.570   6623.000   6714.953    -91.953    571.679   6693.679    592.329    571.679    571.679
117.670   7051.000   7008.515     42.485    572.064   6986.633    593.376    572.064    572.064
117.770   7330.000   7255.257     74.743    572.455   7232.889    594.322    572.455    572.455
117.870   7498.000   7447.300     50.700    572.852   7424.577    595.156    572.852    572.852
117.970   7481.000   7578.147    -97.147    573.256   7555.208    595.866    573.256    573.256
118.070   7570.000   7643.238    -73.238    573.667   7620.228    596.447    573.667    573.667
118.170   7763.726   7640.394    123.332    574.084   7617.458    596.893    574.084    574.084
118.270   7636.000   7570.044     65.956    574.507   7547.321    597.205    574.507    574.507
118.370   7427.006   7435.171     -8.166    574.937   7412.794    597.388    574.937    574.937
118.470   7276.000   7241.001     34.999    575.374   7219.088    597.448    575.374    575.374
118.570   7010.000   6994.499     15.501    575.818   6973.159    597.398    575.818    575.818
118.670   6668.000   6703.800    -35.800    576.268   6683.127    597.248    576.268    576.268
118.770   6486.304   6377.653    108.651    576.724   6357.725    597.012    576.724    576.724
118.870   5930.000   6024.947    -94.947    577.188   6005.830    596.704    577.188    577.188
118.970   5723.000   5654.348     68.652    577.658   5636.094    596.337    577.658    577.658
119.070   5253.000   5274.022    -21.022    578.136   5256.670    595.926    578.136    578.136
119.170   4947.000   4891.441     55.559    578.620   4875.016    595.485    578.620    578.620
119.270   4599.000   4513.246     85.754    579.111   4497.761    595.028    579.111    579.111
119.370   4308.000   4145.153    162.847    579.609   4130.608    594.570    579.609    579.609
119.470   3936.000   3791.907    144.093    580.114   3778.290    594.123    580.114    580.114
119.570   3628.000   3457.262    170.738    580.626   3444.550    593.700    580.626    580.626
119.670   3284.000   3144.007    139.993    581.145   3132.168    593.314    581.145    581.145
119.770   2943.728   2854.019     89.709    581.671   2843.012    592.973    581.671    581.671
119.870   2651.000   2588.345     62.655    582.204   2578.121    592.687    582.204    582.204
119.970   2356.000   2347.301      8.699    582.745   2337.805    592.463    582.745    582.745
120.070   2154.000   2130.588     23.412    583.293   2121.761    592.307    583.293    583.293
120.170   1866.278   1937.405    -71.128    583.848   1929.184    592.224    583.848    583.848
120.270   1896.000   1766.563    129.437    584.410   1758.881    592.218    584.410    584.410
120.370   1635.509   1616.588     18.921    584.980   1609.377    592.290    584.980    584.980
120.470   1420.937   1485.819    -64.881    585.557   1479.008    592.444    585.557    585.557
120.570   1422.000   1372.488     49.512    586.141   1366.007    592.679    586.141    586.141
120.670   1308.000   1274.800     33.200    586.733   1268.575    592.998    586.733    586.733
120.770   1268.000   1190.984     77.016    587.333   1184.943    593.400    587.333    587.333
120.870   1175.000   1119.350     55.650    587.940   1113.419    593.886    587.940    587.940
120.970   1062.529   1058.319      4.209    588.554   1052.425    594.456    588.554    588.554
121.070   1074.000   1006.453     67.547    589.177   1000.520    595.111    589.177    589.177
121.170    994.415    962.460     31.955    589.807    956.413    595.851    589.807    589.807
121.270    959.087    925.205     33.882    590.444    918.967    596.677    590.444    590.444
121.370    946.000    893.702     52.298    591.090    887.194    597.591    591.090    591.090
121.470    916.000    867.108     48.892    591.743    860.251    598.594    591.743    591.743
121.570    908.000    844.709     63.291    592.404    837.421    599.686    592.404    592.404
121.670    811.086    825.907    -14.821    593.073    818.103    600.871    593.073    593.073
121.770    846.994    810.203     36.792    593.749    801.797    602.151    593.749    593.749
121.870    803.322    797.182      6.140    594.434    788.088    603.527    594.434    594.434
121.970    792.000    786.505      5.495    595.127    776.631    605.001    595.127    595.127
122.070    751.000    777.888    -26.888    595.828    767.142    606.575    595.828    595.828
122.170    751.000    771.096    -20.096    596.536    759.385    608.250    596.536    596.536
122.270    766.397    765.934      0.464    597.253    753.163    610.028    597.253    597.253
122.370    717.000    762.234    -45.234    597.979    748.310    611.908    597.979    597.979
122.470    770.607    759.853     10.754    598.712    744.681    613.891    598.712    598.712
122.570    752.000    758.666     -6.666    599.453    742.154    615.975    599.453    599.453
122.670    719.000    758.561    -39.561    600.203    740.616    618.159    600.203    600.203
122.770    724.751    759.432    -34.681    600.961    739.968    620.439    600.961    600.961
122.870    751.000    761.180    -10.180    601.728    740.114    622.810    601.728    601.728
122.970    732.678    763.710    -31.032    602.503    740.964    625.266    602.503    602.503
123.070    801.474    766.923     34.551    603.286    742.431    627.798    603.286    603.286
123.170    747.000    770.720    -23.720    604.078    744.427    630.394    604.078    604.078
123.270    826.112    774.997     51.115    604.879    746.863    633.038    604.879    604.879
123.370    756.904    779.646    -22.742    605.688    749.649    635.713    605.688    605.688
123.470    792.000    784.552      7.448    606.505    752.691    638.398    606.505    606.505
123.570    801.000    789.593     11.407    607.332    755.893    641.067    607.332    607.332
123.670    782.781    794.644    -11.864    608.167    759.155    643.694    608.167    608.167
123.770    784.435    799.572    -15.138    609.010    762.377    646.247    609.010    609.010
123.870    777.000    804.241    -27.241    609.863    765.454    648.696    609.863    609.863
123.970    802.000    808.514     -6.514    610.724    768.282    651.005    610.724    610.724
124.070    847.127    812.254     34.873    611.594    770.759    653.142    611.594    611.594
124.170    803.507    815.332    -11.825    612.474    772.788    655.073    612.474    612.474
124.270    760.532    817.631    -57.099    613.362    774.283    656.769    613.362    613.362
124.370    887.000    819.051     67.949    614.259    775.167    658.204    614.259    614.259
124.470    769.556    819.516    -49.960    615.165    775.386    659.360    615.165    615.165
124.570    840.581    818.982     21.599    616.081    774.905    660.224    616.081    616.081
124.670    867.109    817.436     49.673    617.005    773.713    660.796    617.005    617.005
124.770    853.000    814.898     38.102    617.939    771.824    661.082    617.939    617.939
124.870    839.561    811.420     28.141    618.882    769.274    661.097    618.882    618.882
124.970    849.566    807.079     42.487    619.834    766.116    660.865    619.834    619.834
