neutron_powder_diffraction_0124
R_wp: 3.931
Temperature (K): 1006.425
Counts: 83799.00
Wavelength (Ã…): 2.52098
COMMENTS
Test file for demonstrating the .xyy file format in Reel1.0
END OF HEADER
   tth       Y_obs     Y_calc      Y_res    Background    Phase_1_Nuc    Phase_1_Mag    Phase_2_Nuc    Phase_2_Mag
  9.970    589.000    558.396     30.604    557.366    558.263    557.366    557.499    557.366
 10.070    616.000    558.784     57.216    557.677    558.650    557.677    557.810    557.677
 10.170    599.786    559.175     40.612    557.979    559.040    557.979    558.113    557.979
 10.270    579.083    559.571     19.512    558.273    559.436    558.273    558.407    558.273
 10.370    572.000    559.974     12.026    558.558    559.839    558.558    558.693    558.558
 10.470    592.427    560.390     32.037    558.835    560.253    558.835    558.971    558.835
 10.570    593.000    560.822     32.178    559.104    560.685    559.104    559.241    559.104
 10.670    557.000    561.277     -4.277    559.365    561.139    559.365    559.502    559.365
 10.770    543.000    561.763    -18.763    559.618    561.625    559.618    559.755    559.618
 10.870    606.000    562.293     43.707    559.863    562.154    559.863    560.001    559.863
 10.970    576.524    562.882     13.642    560.099    562.742    560.099    560.238    560.099
 11.070    516.663    563.552    -46.889    560.328    563.411    560.328    560.467    560.328
 11.170    575.627    564.337     11.289    560.549    564.196    560.549    560.689    560.549
 11.270    525.408    565.290    -39.882    560.763    565.147    560.763    560.903    560.763
 11.370    559.559    566.503     -6.943    560.968    566.359    560.968    561.109    560.968
 11.470    560.665    568.182     -7.518    561.166    568.037    561.166    561.308    561.166
 11.570    580.000    570.844      9.156    561.357    570.697    561.357    561.499    561.357
 11.670    607.000    575.710     31.290    561.540    575.560    561.540    561.682    561.540
 11.770    561.463    585.146    -23.683    561.715    584.989    561.715    561.858    561.715
 11.870    640.000    602.393     37.607    561.883    602.226    561.883    562.027    561.883
 11.970    662.000    629.522     32.478    562.044    629.339    562.044    562.189    562.044
 12.070    664.000    663.270      0.730    562.198    663.067    562.198    562.343    562.198
 12.170    673.000    690.924    -17.924    562.345    690.705    562.345    562.490    562.345
 12.270    700.524    695.195      5.328    562.484    694.973    562.484    562.631    562.484
 12.370    595.000    672.596    -77.596    562.617    672.386    562.617    562.764    562.617
 12.470    598.000    638.835    -40.835    562.742    638.644    562.742    562.890    562.742
 12.570    574.043    609.438    -35.395    562.861    609.263    562.861    563.009    562.861
 12.670    597.000    589.903      7.097    562.973    589.739    562.973    563.122    562.973
 12.770    616.000    579.044     36.956    563.078    578.885    563.078    563.228    563.078
 12.870    611.443    573.582     37.860    563.176    573.426    563.176    563.327    563.176
 12.970    609.220    570.813     38.407    563.268    570.658    563.268    563.419    563.268
 13.070    601.000    569.244     31.756    563.353    569.089    563.353    563.505    563.353
 13.170    609.585    568.228     41.357    563.432    568.073    563.432    563.585    563.432
 13.270    571.000    567.508      3.492    563.504    567.353    563.504    563.658    563.504
 13.370    533.000    566.975    -33.975    563.570    566.819    563.570    563.724    563.570
 13.470    543.000    566.569    -23.569    563.629    566.412    563.629    563.784    563.629
 13.570    589.000    566.253     22.747    563.683    566.097    563.683    563.839    563.683
 13.670    546.000    566.004    -20.004    563.730    565.847    563.730    563.886    563.730
 13.770    572.000    565.803      6.197    563.771    565.645    563.771    563.928    563.771
 13.870    553.734    565.639    -11.905    563.806    565.480    563.806    563.964    563.806
 13.970    570.000    565.501      4.499    563.835    565.342    563.835    563.994    563.835
 14.070    510.000    565.384    -55.384    563.858    565.224    563.858    564.017    563.858
 14.170    536.065    565.282    -29.217    563.875    565.121    563.875    564.035    563.875
 14.270    549.000    565.192    -16.192    563.886    565.030    563.886    564.047    563.886
 14.370    612.000    565.110     46.890    563.892    564.947    563.892    564.054    563.892
 14.470    546.593    565.035    -18.441    563.891    564.872    563.891    564.054    563.891
 14.570    599.000    564.965     34.035    563.885    564.800    563.885    564.049    563.885
 14.670    531.000    564.895    -33.895    563.874    564.730    563.874    564.039    563.874
 14.770    507.000    564.828    -57.828    563.857    564.662    563.857    564.022    563.857
 14.870    603.931    564.761     39.170    563.835    564.594    563.835    564.001    563.835
 14.970    510.000    564.694    -54.694    563.807    564.526    563.807    563.974    563.807
 15.070    546.000    564.625    -18.625    563.773    564.457    563.773    563.941    563.773
 15.170    544.000    564.555    -20.555    563.735    564.386    563.735    563.904    563.735
 15.270    557.273    564.483     -7.210    563.691    564.313    563.691    563.861    563.691
 15.370    556.000    564.409     -8.409    563.642    564.238    563.642    563.813    563.642
 15.470    529.000    564.333    -35.333    563.588    564.161    563.588    563.760    563.588
 15.570    511.000    564.254    -53.254    563.529    564.081    563.529    563.701    563.529
 15.670    540.000    564.174    -24.174    563.464    564.000    563.464    563.638    563.464
 15.770    536.000    564.088    -28.088    563.395    563.914    563.395    563.570    563.395
 15.870    588.000    564.000     24.000    563.321    563.824    563.321    563.497    563.321
 15.970    547.298    563.908    -16.610    563.242    563.731    563.242    563.419    563.242
 16.070    540.000    563.813    -23.813    563.158    563.635    563.158    563.336    563.158
 16.170    551.000    563.714    -12.714    563.070    563.535    563.070    563.249    563.070
 16.270    558.000    563.611     -5.611    562.977    563.432    562.977    563.156    562.977
 16.370    574.667    563.505     11.162    562.879    563.325    562.879    563.060    562.879
 16.470    512.000    563.396    -51.396    562.777    563.214    562.777    562.958    562.777
 16.570    517.000    563.282    -46.282    562.670    563.099    562.670    562.852    562.670
 16.670    541.000    563.166    -22.166    562.558    562.982    562.558    562.742    562.558
 16.770    554.000    563.051     -9.051    562.442    562.866    562.442    562.627    562.442
 16.870    517.741    562.947    -45.206    562.322    562.761    562.322    562.508    562.322
 16.970    590.732    562.822     27.911    562.198    562.634    562.198    562.385    562.198
 17.070    567.243    562.690      4.553    562.069    562.501    562.069    562.257    562.069
 17.170    572.000    562.555      9.445    561.936    562.365    561.936    562.125    561.936
 17.270    539.443    562.416    -22.973    561.799    562.225    561.799    561.990    561.799
 17.370    572.000    562.274      9.726    561.657    562.082    561.657    561.849    561.657
 17.470    597.269    562.128     35.142    561.512    561.934    561.512    561.705    561.512
 17.570    594.333    561.978     32.355    561.363    561.784    561.363    561.557    561.363
 17.670    583.413    561.826     21.587    561.209    561.630    561.209    561.405    561.209
 17.770    566.256    561.669      4.587    561.052    561.472    561.052    561.249    561.052
 17.870    553.403    561.509     -8.107    560.891    561.311    560.891    561.090    560.891
 17.970    561.000    561.346     -0.346    560.726    561.146    560.726    560.926    560.726
 18.070    583.000    561.180     21.820    560.557    560.979    560.557    560.759    560.557
 18.170    563.722    561.014      2.707    560.385    560.811    560.385    560.588    560.385
 18.270    585.000    560.841     24.159    560.209    560.637    560.209    560.413    560.209
 18.370    522.932    560.675    -37.743    560.029    560.469    560.029    560.235    560.029
 18.470    572.838    560.593     12.245    559.846    560.386    559.846    560.053    559.846
 18.570    570.000    560.428      9.572    559.659    560.220    559.659    559.868    559.659
 18.670    536.819    560.244    -23.425    559.469    560.033    559.469    559.679    559.469
 18.770    581.000    560.055     20.945    559.275    559.843    559.275    559.487    559.275
 18.870    598.647    559.863     38.783    559.078    559.650    559.078    559.292    559.078
 18.970    523.109    559.669    -36.561    558.878    559.454    558.878    559.093    558.878
 19.070    552.000    559.472     -7.472    558.674    559.256    558.674    558.891    558.674
 19.170    574.000    559.277     14.723    558.468    559.059    558.468    558.686    558.468
 19.270    553.000    559.076     -6.076    558.258    558.856    558.258    558.478    558.258
 19.370    547.668    558.871    -11.202    558.044    558.649    558.044    558.266    558.044
 19.470    538.000    558.663    -20.663    557.828    558.439    557.828    558.052    557.828
 19.570    514.966    558.452    -43.486    557.609    558.226    557.609    557.834    557.609
 19.670    556.000    558.239     -2.239    557.386    558.011    557.386    557.614    557.386
 19.770    544.000    558.023    -14.023    557.161    557.794    557.161    557.390    557.161
 19.870    530.000    557.805    -27.805    556.933    557.574    556.933    557.164    556.933
 19.970    573.690    557.584     16.105    556.702    557.351    556.702    556.935    556.702
 20.070    545.000    557.362    -12.362    556.468    557.127    556.468    556.703    556.468
 20.170    541.000    557.139    -16.139    556.231    556.902    556.231    556.468    556.231
 20.270    532.000    556.942    -24.942    555.992    556.702    555.992    556.231    555.992
 20.370    501.000    556.753    -55.753    555.750    556.512    555.750    555.991    555.750
 20.470    580.000    556.527     23.473    555.505    556.283    555.505    555.749    555.505
 20.570    535.000    556.294    -21.294    555.257    556.048    555.257    555.503    555.257
 20.670    492.000    556.060    -64.060    555.007    555.812    555.007    555.256    555.007
 20.770    544.000    555.825    -11.825    554.755    555.574    554.755    555.006    554.755
 20.870    552.000    555.588     -3.588    554.500    555.335    554.500    554.753    554.500
 20.970    534.000    555.352    -21.352    554.242    555.096    554.242    554.498    554.242
 21.070    521.000    555.123    -34.123    553.983    554.865    553.983    554.241    553.983
 21.170    540.000    554.923    -14.923    553.720    554.662    553.720    553.982    553.720
 21.270    590.836    554.689     36.147    553.456    554.425    553.456    553.720    553.456
 21.370    572.000    554.448     17.552    553.189    554.181    553.189    553.456    553.189
 21.470    560.000    554.205      5.795    552.920    553.935    552.920    553.190    552.920
 21.570    533.000    553.962    -20.962    552.649    553.690    552.649    552.922    552.649
 21.670    585.772    553.719     32.053    552.376    553.444    552.376    552.651    552.376
 21.770    526.667    553.476    -26.810    552.100    553.198    552.100    552.379    552.100
 21.870    584.000    553.234     30.766    551.823    552.952    551.823    552.105    551.823
 21.970    602.000    552.992     49.008    551.543    552.707    551.543    551.829    551.543
 22.070    582.654    552.752     29.901    551.262    552.463    551.262    551.551    551.262
 22.170    551.000    552.518     -1.518    550.978    552.226    550.978    551.271    550.978
 22.270    572.000    552.290     19.710    550.693    551.994    550.693    550.989    550.693
 22.370    541.970    552.065    -10.095    550.405    551.765    550.405    550.705    550.405
 22.470    592.000    551.852     40.148    550.116    551.548    550.116    550.420    550.116
 22.570    540.000    551.629    -11.629    549.825    551.321    549.825    550.133    549.825
 22.670    548.000    551.415     -3.415    549.532    551.103    549.532    549.845    549.532
 22.770    570.000    551.209     18.791    549.238    550.893    549.238    549.555    549.238
 22.870    534.467    551.006    -16.539    548.942    550.685    548.942    549.263    548.942
 22.970    576.000    550.814     25.186    548.644    550.489    548.644    548.970    548.644
 23.070    555.000    550.645      4.355    548.345    550.315    548.345    548.676    548.345
 23.170    561.000    550.502     10.498    548.044    550.166    548.044    548.380    548.044
 23.270    526.000    550.378    -24.378    547.741    550.037    547.741    548.083    547.741
 23.370    569.000    550.285     18.715    547.437    549.939    547.437    547.784    547.437
 23.470    540.621    550.213     -9.592    547.132    549.862    547.132    547.484    547.132
 23.570    538.000    550.188    -12.188    546.825    549.831    546.825    547.183    546.825
 23.670    600.000    550.231     49.769    546.516    549.868    546.516    546.881    546.516
 23.770    580.000    550.380     29.620    546.207    550.010    546.207    546.578    546.207
 23.870    536.789    550.688    -13.899    545.896    550.312    545.896    546.274    545.896
 23.970    559.082    551.156      7.926    545.583    550.773    545.583    545.969    545.583
 24.070    558.000    551.994      6.006    545.270    551.605    545.270    545.662    545.270
 24.170    567.992    553.625     14.366    544.955    553.230    544.955    545.355    544.955
 24.270    566.000    556.961      9.039    544.639    556.560    544.639    545.048    544.639
 24.370    614.000    563.604     50.396    544.322    563.200    544.322    544.739    544.322
 24.470    605.000    575.507     29.493    544.004    575.102    544.004    544.430    544.004
 24.570    628.000    593.446     34.554    543.684    593.045    543.684    544.120    543.684
 24.670    613.000    614.670     -1.670    543.364    614.273    543.364    543.809    543.364
 24.770    588.881    630.772    -41.891    543.043    630.377    543.043    543.499    543.043
 24.870    615.726    631.597    -15.871    542.720    631.191    542.720    543.187    542.720
 24.970    578.798    616.282    -37.484    542.397    615.854    542.397    542.876    542.397
 25.070    566.000    594.526    -28.526    542.073    594.070    542.073    542.564    542.073
 25.170    578.000    575.441      2.559    541.747    574.959    541.747    542.252    541.747
 25.270    547.185    562.370    -15.185    541.421    561.865    541.421    541.939    541.421
 25.370    543.000    554.746    -11.746    541.095    554.221    541.095    541.627    541.095
 25.470    545.000    550.645     -5.645    540.767    550.101    540.767    541.316    540.767
 25.570    611.000    548.390     62.610    540.439    547.828    540.439    541.004    540.439
 25.670    546.415    547.002     -0.587    540.109    546.421    540.109    540.693    540.109
 25.770    555.739    546.026      9.712    539.779    545.426    539.779    540.382    539.779
 25.870    567.000    545.278     21.722    539.449    544.657    539.449    540.072    539.449
 25.970    525.190    544.681    -19.490    539.118    544.037    539.118    539.763    539.118
 26.070    495.000    544.190    -49.190    538.786    543.523    538.786    539.455    538.786
 26.170    579.000    543.786     35.214    538.454    543.093    538.454    539.148    538.454
 26.270    497.275    543.453    -46.178    538.121    542.732    538.121    538.842    538.121
 26.370    546.000    543.186      2.814    537.787    542.435    537.787    538.539    537.787
 26.470    548.000    542.980      5.020    537.453    542.197    537.453    538.237    537.453
 26.570    553.000    542.836     10.164    537.119    542.018    537.119    537.937    537.119
 26.670    563.641    542.759     20.882    536.784    541.903    536.784    537.641    536.784
 26.770    539.000    542.757     -3.757    536.449    541.859    536.449    537.347    536.449
 26.870    557.376    542.840     14.536    536.113    541.896    536.113    537.057    536.113
 26.970    564.000    543.027     20.973    535.777    542.033    535.777    536.771    535.777
 27.070    515.000    543.345    -28.345    535.441    542.295    535.441    536.490    535.441
 27.170    580.000    543.831     36.169    535.104    542.721    535.104    536.215    535.104
 27.270    538.000    544.544     -6.544    534.768    543.365    534.768    535.946    534.768
 27.370    499.837    545.571    -45.735    534.431    544.317    534.431    535.684    534.431
 27.470    551.000    547.077      3.923    534.093    545.738    534.093    535.431    534.093
 27.570    564.877    549.487     15.390    533.756    548.052    533.756    535.189    533.756
 27.670    544.729    554.225     -9.497    533.418    552.682    533.418    534.958    533.418
 27.770    577.890    565.739     12.151    533.080    564.069    533.080    534.743    533.080
 27.870    629.000    594.479     34.521    532.742    592.660    532.742    534.544    532.742
 27.970    673.081    655.823     17.258    532.404    653.826    532.404    534.365    532.404
 28.070    747.000    756.497     -9.497    532.066    754.287    532.066    534.211    532.066
 28.170    839.000    871.392    -32.392    531.728    868.946    531.728    534.084    531.728
 28.270    936.000    937.359     -1.359    531.390    934.670    531.390    533.992    531.390
 28.370    929.099    906.125     22.974    531.052    903.182    531.052    533.938    531.052
 28.470    799.000    812.302    -13.302    530.714    809.061    530.714    533.930    530.714
 28.570    715.782    729.127    -13.345    530.376    725.519    530.376    533.975    530.376
 28.670    728.763    702.642     26.121    530.039    698.591    530.039    534.079    530.039
 28.770    753.000    735.247     17.753    529.701    730.682    529.701    534.249    529.701
 28.870    815.000    794.740     20.260    529.363    789.594    529.363    534.490    529.363
 28.970    802.000    828.851    -26.851    529.026    823.062    529.026    534.803    529.026
 29.070    771.103    801.462    -30.360    528.689    794.972    528.689    535.183    528.689
 29.170    680.000    730.791    -50.791    528.352    723.544    528.352    535.613    528.352
 29.270    687.000    657.198     29.802    528.015    649.166    528.015    536.062    528.015
 29.370    642.000    604.306     37.694    527.679    595.517    527.679    536.478    527.679
 29.470    574.204    574.640     -0.436    527.343    565.196    527.343    536.792    527.343
 29.570    564.242    560.522      3.720    527.007    550.604    527.007    536.928    527.007
 29.670    545.355    554.005     -8.650    526.671    543.861    526.671    536.817    526.671
 29.770    576.000    550.473     25.527    526.336    540.386    526.336    536.425    526.336
 29.870    568.000    548.014     19.986    526.001    538.255    526.001    535.761    526.001
 29.970    539.309    546.003     -6.694    525.667    536.794    525.667    534.876    525.667
 30.070    578.000    544.302     33.698    525.333    535.790    525.333    533.844    525.333
 30.170    573.000    542.943     30.057    524.999    535.200    524.999    532.741    524.999
 30.270    533.000    542.102     -9.102    524.666    535.138    524.666    531.629    524.666
 30.370    555.425    542.253     13.172    524.334    536.033    524.334    530.550    524.334
 30.470    537.000    544.440     -7.440    524.002    538.906    524.002    529.531    524.002
 30.570    607.000    550.389     56.611    523.670    545.467    523.670    528.581    523.670
 30.670    576.238    561.821     14.416    523.339    557.436    523.339    527.704    523.339
 30.770    576.000    578.612     -2.612    523.009    574.692    523.009    526.897    523.009
 30.870    598.000    596.416      1.584    522.679    592.898    522.679    526.154    522.679
 30.970    602.334    606.095     -3.760    522.350    602.929    522.350    525.468    522.350
 31.070    610.000    600.464      9.536    522.021    597.612    522.021    524.832    522.021
 31.170    588.000    583.303      4.697    521.693    580.727    521.693    524.239    521.693
 31.270    507.000    563.955    -56.955    521.366    561.619    521.366    523.684    521.366
 31.370    549.337    548.700      0.637    521.040    546.568    521.040    523.161    521.040
 31.470    533.000    539.077     -6.077    520.714    537.120    520.714    522.666    520.714
 31.570    529.000    533.850     -4.850    520.389    532.042    520.389    522.193    520.389
 31.670    544.091    531.176     12.915    520.064    529.498    520.064    521.740    520.064
 31.770    544.755    529.732     15.023    519.741    528.166    519.741    521.304    519.741
 31.870    569.000    528.844     40.156    519.418    527.378    519.418    520.883    519.418
 31.970    516.165    528.240    -12.075    519.096    526.860    519.096    520.474    519.096
 32.070    504.000    527.819    -23.819    518.774    526.517    518.774    520.075    518.774
 32.170    511.000    527.546    -16.546    518.454    526.313    518.454    519.686    518.454
 32.270    556.000    527.407     28.593    518.135    526.236    518.135    519.305    518.135
 32.370    582.000    527.403     54.597    517.816    526.287    517.816    518.931    517.816
 32.470    497.958    527.543    -29.585    517.498    526.476    517.498    518.564    517.498
 32.570    532.000    527.845      4.155    517.181    526.823    517.181    518.202    517.181
 32.670    545.880    528.340     17.540    516.865    527.358    516.865    517.846    516.865
 32.770    543.000    529.071     13.929    516.550    528.126    516.550    517.494    516.550
 32.870    526.000    530.104     -4.104    516.236    529.192    516.236    517.147    516.236
 32.970    521.000    531.534    -10.534    515.923    530.652    515.923    516.804    515.923
 33.070    494.851    533.515    -38.663    515.611    532.660    515.611    516.464    515.611
 33.170    523.000    536.332    -13.332    515.300    535.503    515.300    516.128    515.300
 33.270    542.000    540.636      1.364    514.990    539.829    514.990    515.795    514.990
 33.370    521.838    548.042    -26.203    514.681    547.254    514.681    515.465    514.681
 33.470    565.000    562.294      2.706    514.373    561.524    514.373    515.138    514.373
 33.570    602.882    590.602     12.280    514.066    589.845    514.066    514.813    514.066
 33.670    599.631    643.304    -43.673    513.761    642.554    513.761    514.491    513.761
 33.770    742.000    729.137     12.863    513.456    728.390    513.456    514.172    513.456
 33.870    850.000    845.257      4.743    513.152    844.511    513.152    513.855    513.152
 33.970    998.000    965.293     32.707    512.850    964.554    512.850    513.540    512.850
 34.070   1039.000   1036.717      2.283    512.549   1035.998    512.549    513.227    512.549
 34.170   1039.000   1015.742     23.258    512.248   1015.054    512.248    512.916    512.248
 34.270    890.000    917.029    -27.029    511.949    916.370    511.949    512.608    511.949
 34.370    789.000    793.764     -4.764    511.652    793.123    511.652    512.301    511.652
 34.470    668.000    688.203    -20.203    511.355    687.571    511.355    511.996    511.355
 34.570    622.000    615.868      6.132    511.060    615.240    511.060    511.693    511.060
 34.670    550.000    573.592    -23.592    510.766    572.968    510.766    511.392    510.766
 34.770    524.378    551.240    -26.861    510.473    550.620    510.473    511.093    510.473
 34.870    544.068    539.598      4.470    510.181    538.983    510.181    510.796    510.181
 34.970    558.000    532.999     25.001    509.891    532.389    509.891    510.501    509.891
 35.070    534.214    528.708      5.506    509.602    528.103    509.602    510.207    509.602
 35.170    551.364    525.583     25.781    509.314    524.982    509.314    509.915    509.314
 35.270    524.000    523.153      0.847    509.027    522.555    509.027    509.625    509.027
 35.370    495.000    521.194    -26.194    508.742    520.600    508.742    509.336    508.742
 35.470    558.000    519.578     38.422    508.458    518.986    508.458    509.050    508.458
 35.570    547.238    518.219     29.019    508.176    517.630    508.176    508.764    508.176
 35.670    513.000    517.059     -4.059    507.894    516.472    507.894    508.481    507.894
 35.770    546.134    516.054     30.080    507.615    515.469    507.615    508.199    507.615
 35.870    515.073    515.173     -0.100    507.336    514.590    507.336    507.919    507.336
 35.970    479.061    514.393    -35.332    507.059    513.811    507.059    507.641    507.059
 36.070    512.000    513.696     -1.696    506.784    513.115    506.784    507.365    506.784
 36.170    496.000    513.069    -17.069    506.509    512.489    506.509    507.090    506.509
 36.270    502.344    512.502    -10.159    506.237    511.923    506.237    506.816    506.237
 36.370    525.000    511.989     13.011    505.965    511.410    505.965    506.545    505.965
 36.470    512.000    511.525      0.475    505.695    510.945    505.695    506.275    505.695
 36.570    457.000    511.108    -54.108    505.427    510.528    505.427    506.007    505.427
 36.670    539.000    510.738     28.262    505.160    510.158    505.160    505.740    505.160
 36.770    513.000    510.422      2.578    504.894    509.841    504.894    505.476    504.894
 36.870    523.176    510.182     12.994    504.630    509.600    504.630    505.212    504.630
 36.970    499.000    510.073    -11.073    504.368    509.490    504.368    504.951    504.368
 37.070    487.600    510.199    -22.598    504.106    509.614    504.106    504.691    504.106
 37.170    501.367    510.739     -9.373    503.847    510.154    503.847    504.433    503.847
 37.270    497.000    511.933    -14.933    503.589    511.346    503.589    504.177    503.589
 37.370    523.000    513.976      9.024    503.332    513.387    503.332    503.923    503.332
 37.470    515.000    516.840     -1.840    503.077    516.250    503.077    503.670    503.077
 37.570    508.000    520.041    -12.041    502.824    519.450    502.824    503.419    502.824
 37.670    476.000    522.510    -46.510    502.572    521.918    502.572    503.169    502.572
 37.770    515.499    523.036     -7.537    502.322    522.443    502.322    502.922    502.322
 37.870    529.238    521.331      7.907    502.073    520.737    502.073    502.676    502.073
 37.970    519.000    518.309      0.691    501.826    517.714    501.826    502.432    501.826
 38.070    508.000    515.006     -7.006    501.580    514.408    501.580    502.189    501.580
 38.170    540.000    511.981     28.019    501.336    511.379    501.336    501.949    501.336
 38.270    502.000    509.508     -7.508    501.094    508.900    501.094    501.710    501.094
 38.370    489.000    507.668    -18.668    500.853    507.054    500.853    501.473    500.853
 38.470    468.000    506.379    -38.379    500.614    505.759    500.614    501.238    500.614
 38.570    468.000    505.493    -37.493    500.377    504.868    500.377    501.005    500.377
 38.670    486.000    504.871    -18.871    500.141    504.240    500.141    500.773    500.141
 38.770    513.000    504.405      8.595    499.906    503.770    499.906    500.543    499.906
 38.870    503.699    504.031     -0.332    499.674    503.390    499.674    500.315    499.674
 38.970    458.000    503.707    -45.707    499.443    503.062    499.443    500.089    499.443
 39.070    506.000    503.416      2.584    499.214    502.765    499.214    499.865    499.214
 39.170    522.099    503.147     18.951    498.986    502.491    498.986    499.643    498.986
 39.270    504.000    502.896      1.104    498.760    502.235    498.760    499.422    498.760
 39.370    512.000    502.659      9.341    498.536    501.992    498.536    499.204    498.536
 39.470    491.506    502.435    -10.929    498.313    501.762    498.313    498.987    498.313
 39.570    516.000    502.223     13.777    498.092    501.543    498.092    498.772    498.092
 39.670    533.225    502.021     31.204    497.873    501.335    497.873    498.559    497.873
 39.770    493.000    501.829     -8.829    497.656    501.137    497.656    498.348    497.656
 39.870    496.000    501.648     -5.648    497.440    500.949    497.440    498.139    497.440
 39.970    470.000    501.476    -31.476    497.226    500.771    497.226    497.932    497.226
 40.070    514.000    501.316     12.684    497.014    500.603    497.014    497.727    497.014
 40.170    441.000    501.166    -60.166    496.803    500.446    496.803    497.523    496.803
 40.270    498.000    501.027     -3.027    496.594    500.300    496.594    497.322    496.594
 40.370    521.631    500.902     20.729    496.387    500.166    496.387    497.123    496.387
 40.470    510.000    500.790      9.210    496.182    500.046    496.182    496.925    496.182
 40.570    526.910    500.693     26.216    495.978    499.942    495.978    496.730    495.978
 40.670    503.000    500.614      2.386    495.776    499.854    495.776    496.537    495.776
 40.770    427.000    500.555    -73.555    495.576    499.787    495.576    496.346    495.576
 40.870    505.000    500.520      4.480    495.377    499.742    495.377    496.156    495.377
 40.970    470.228    500.512    -30.284    495.181    499.725    495.181    495.969    495.181
 41.070    476.000    500.538    -24.538    494.986    499.741    494.986    495.784    494.986
 41.170    504.000    500.605      3.395    494.793    499.798    494.793    495.601    494.793
 41.270    519.287    500.722     18.565    494.601    499.905    494.601    495.420    494.601
 41.370    500.000    500.903     -0.903    494.412    500.075    494.412    495.241    494.412
 41.470    460.936    501.167    -40.231    494.224    500.328    494.224    495.064    494.224
 41.570    478.000    501.545    -23.545    494.038    500.694    494.038    494.890    494.038
 41.670    530.372    502.091     28.282    493.854    501.229    493.854    494.718    493.854
 41.770    474.000    502.922    -28.922    493.671    502.049    493.671    494.547    493.671
 41.870    479.000    504.293    -25.293    493.490    503.407    493.490    494.379    493.490
 41.970    495.000    506.730    -11.730    493.312    505.833    493.312    494.214    493.312
 42.070    462.000    511.192    -49.192    493.134    510.283    493.134    494.050    493.134
 42.170    494.000    519.104    -25.104    492.959    518.185    492.959    493.889    492.959
 42.270    520.000    532.051    -12.051    492.786    531.123    492.786    493.730    492.786
 42.370    562.000    550.935     11.065    492.614    550.001    492.614    493.573    492.614
 42.470    616.083    574.705     41.377    492.444    573.768    492.444    493.419    492.444
 42.570    577.788    599.057    -21.270    492.276    598.118    492.276    493.267    492.276
 42.670    542.000    616.185    -74.185    492.110    615.241    492.110    493.117    492.110
 42.770    626.120    618.227      7.893    491.945    617.270    491.945    492.970    491.945
 42.870    641.355    603.967     37.388    491.782    602.986    491.782    492.826    491.782
 42.970    605.000    580.247     24.753    491.621    579.235    491.621    492.684    491.621
 43.070    573.580    555.527     18.053    491.462    554.481    491.462    492.544    491.462
 43.170    565.965    535.038     30.927    491.305    533.960    491.305    492.407    491.305
 43.270    536.000    520.494     15.506    491.150    519.387    491.150    492.273    491.150
 43.370    509.000    511.325     -2.325    490.996    510.189    490.996    492.141    490.996
 43.470    518.000    506.000     12.000    490.844    504.838    490.844    492.012    490.844
 43.570    476.000    502.999    -26.999    490.694    501.812    490.694    491.886    490.694
 43.670    468.000    501.247    -33.247    490.546    500.033    490.546    491.763    490.546
 43.770    512.000    500.125     11.875    490.400    498.886    490.400    491.642    490.400
 43.870    500.000    499.332      0.668    490.255    498.065    490.255    491.525    490.255
 43.970    504.000    498.730      5.270    490.112    497.433    490.112    491.410    490.112
 44.070    484.000    498.253    -14.253    489.971    496.927    489.971    491.299    489.971
 44.170    492.000    497.868     -5.868    489.832    496.510    489.832    491.191    489.832
 44.270    534.000    497.554     36.446    489.695    496.164    489.695    491.086    489.695
 44.370    459.000    497.298    -38.298    489.559    495.874    489.559    490.985    489.559
 44.470    481.260    497.089    -15.829    489.426    495.629    489.426    490.887    489.426
 44.570    518.000    496.920     21.080    489.294    495.422    489.294    490.793    489.294
 44.670    485.293    496.785    -11.492    489.164    495.247    489.164    490.703    489.164
 44.770    506.854    496.681     10.173    489.036    495.101    489.036    490.616    489.036
 44.870    505.000    496.604      8.396    488.909    494.980    488.909    490.534    488.909
 44.970    486.859    496.552     -9.693    488.785    494.882    488.785    490.455    488.785
 45.070    465.712    496.524    -30.812    488.662    494.805    488.662    490.382    488.662
 45.170    507.000    496.519     10.481    488.541    494.748    488.541    490.313    488.541
 45.270    517.000    496.536     20.464    488.422    494.710    488.422    490.249    488.422
 45.370    560.000    496.576     63.424    488.304    494.691    488.304    490.190    488.304
 45.470    465.000    496.639    -31.639    488.189    494.692    488.189    490.136    488.189
 45.570    495.000    496.726     -1.726    488.075    494.713    488.075    490.089    488.075
 45.670    531.000    496.838     34.162    487.963    494.754    487.963    490.047    487.963
 45.770    463.306    496.976    -33.670    487.853    494.817    487.853    490.012    487.853
 45.870    457.500    497.144    -39.643    487.744    494.904    487.744    489.984    487.744
 45.970    498.000    497.343      0.657    487.638    495.017    487.638    489.964    487.638
 46.070    483.000    497.577    -14.577    487.533    495.158    487.533    489.952    487.533
 46.170    496.000    497.851     -1.851    487.430    495.332    487.430    489.948    487.430
 46.270    494.000    498.170     -4.170    487.329    495.544    487.329    489.954    487.329
 46.370    511.000    498.541     12.459    487.229    495.799    487.229    489.971    487.229
 46.470    510.000    498.974     11.026    487.132    496.107    487.132    489.998    487.132
 46.570    517.334    499.482     17.852    487.036    496.479    487.036    490.039    487.036
 46.670    521.000    500.085     20.915    486.942    496.933    486.942    490.093    486.942
 46.770    520.000    500.815     19.185    486.849    497.501    486.849    490.162    486.849
 46.870    469.345    501.739    -32.394    486.759    498.247    486.759    490.249    486.759
 46.970    471.000    502.989    -31.989    486.670    499.302    486.670    490.355    486.670
 47.070    515.434    504.824     10.610    486.583    500.921    486.583    490.483    486.583
 47.170    518.000    507.696     10.304    486.498    503.553    486.498    490.635    486.498
 47.270    532.000    512.283     19.717    486.414    507.873    486.414    490.817    486.414
 47.370    544.191    519.400     24.791    486.332    514.688    486.332    491.032    486.332
 47.470    554.000    529.705     24.295    486.252    524.652    486.252    491.285    486.252
 47.570    574.000    543.222     30.778    486.174    537.783    486.174    491.584    486.174
 47.670    546.000    558.780    -12.780    486.097    552.902    486.097    491.936    486.097
 47.770    555.913    573.558    -17.645    486.023    567.182    486.023    492.350    486.023
 47.870    579.851    583.346     -3.495    485.950    576.404    485.950    492.839    485.950
 47.970    626.057    584.631     41.426    485.878    577.043    485.878    493.415    485.878
 48.070    564.000    577.487    -13.487    485.809    569.158    485.809    494.094    485.809
 48.170    588.000    565.530     22.470    485.741    556.344    485.741    494.892    485.741
 48.270    552.000    553.014     -1.014    485.675    542.834    485.675    495.831    485.675
 48.370    571.535    542.797     28.739    485.610    531.461    485.610    496.930    485.610
 48.470    538.000    536.088      1.912    485.547    523.414    485.547    498.212    485.547
 48.570    523.338    532.943     -9.605    485.486    518.727    485.486    499.697    485.486
 48.670    496.258    532.783    -36.525    485.427    516.802    485.427    501.405    485.427
 48.770    556.828    534.895     21.934    485.369    516.915    485.369    503.348    485.369
 48.870    560.000    538.725     21.275    485.313    518.511    485.313    505.528    485.313
 48.970    554.486    543.984     10.503    485.259    521.318    485.259    507.925    485.259
 49.070    584.829    550.675     34.153    485.206    525.390    485.206    510.493    485.206
 49.170    561.000    559.242      1.758    485.155    531.261    485.155    513.138    485.155
 49.270    593.000    571.080     21.920    485.106    540.472    485.106    515.714    485.106
 49.370    619.000    589.799     29.201    485.059    556.836    485.059    518.017    485.059
 49.470    648.000    623.481     24.519    485.013    588.674    485.013    519.804    485.013
 49.570    721.226    687.371     33.855    484.968    651.460    484.968    520.845    484.968
 49.670    812.000    804.662      7.338    484.926    768.541    484.926    520.984    484.926
 49.770   1008.000   1001.338      6.662    484.885    965.928    484.885    520.197    484.885
 49.870   1341.014   1292.148     48.866    484.845   1258.270    484.845    518.598    484.845
 49.970   1596.016   1660.701    -64.685    484.807   1628.978    484.807    516.401    484.807
 50.070   2130.000   2043.995     86.005    484.771   2014.827    484.771    513.852    484.771
 50.170   2357.000   2335.423     21.577    484.737   2308.992    484.737    511.172    484.737
 50.270   2378.227   2423.287    -45.060    484.704   2399.577    484.704    508.528    484.704
 50.370   2209.473   2266.524    -57.051    484.672   2245.360    484.672    506.029    484.672
 50.470   1932.000   1933.792     -1.792    484.643   1914.914    484.643    503.737    484.643
 50.570   1495.000   1544.385    -49.385    484.615   1527.514    484.615    501.679    484.615
 50.670   1143.000   1195.973    -52.973    484.588   1180.853    484.588    499.859    484.588
 50.770    902.000    937.905    -35.905    484.563    924.307    484.563    498.267    484.563
 50.870    783.000    775.178      7.822    484.540    762.905    484.540    496.886    484.540
 50.970    680.000    686.306     -6.306    484.518    675.182    484.518    495.695    484.518
 51.070    682.000    642.380     39.620    484.498    632.249    484.498    494.673    484.498
 51.170    628.000    619.278      8.722    484.479    609.998    484.479    493.798    484.479
 51.270    586.000    602.519    -16.519    484.462    593.965    484.462    493.051    484.462
 51.370    616.421    586.760     29.661    484.446    578.823    484.446    492.412    484.446
 51.470    571.210    571.778     -0.567    484.432    564.366    484.432    491.867    484.432
 51.570    546.000    558.661    -12.661    484.419    551.696    484.419    491.402    484.419
 51.670    602.000    548.222     53.778    484.408    541.640    484.408    491.003    484.408
 51.770    549.000    540.681      8.319    484.398    534.427    484.398    490.663    484.398
 51.870    521.000    535.776    -14.776    484.390    529.803    484.390    490.371    484.390
 51.970    520.645    533.010    -12.366    484.384    527.279    484.384    490.121    484.384
 52.070    556.000    531.887     24.113    484.379    526.363    484.379    489.908    484.379
 52.170    543.000    532.062     10.938    484.375    526.714    484.375    489.727    484.375
 52.270    532.000    533.412     -1.412    484.373    528.215    484.373    489.574    484.373
 52.370    581.000    536.106     44.894    484.372    531.036    484.372    489.446    484.372
 52.470    574.000    540.736     33.264    484.373    535.772    484.373    489.340    484.373
 52.570    584.000    548.580     35.420    484.375    543.704    484.375    489.254    484.375
 52.670    522.009    561.977    -39.968    484.379    557.172    484.379    489.187    484.379
 52.770    649.000    584.653     64.347    484.384    579.902    484.384    489.136    484.384
 52.870    612.000    621.654     -9.654    484.390    616.945    484.390    489.101    484.390
 52.970    721.353    678.449     42.904    484.398    673.767    484.398    489.081    484.398
 53.070    764.000    758.909      5.091    484.407    754.243    484.407    489.076    484.407
 53.170    894.236    862.409     31.827    484.418    857.750    484.418    489.083    484.418
 53.270   1016.000    980.723     35.277    484.430    976.064    484.430    489.103    484.430
 53.370   1088.749   1095.624     -6.875    484.443   1090.957    484.443    489.136    484.443
 53.470   1206.000   1179.388     26.612    484.458   1174.705    484.458    489.181    484.458
 53.570   1181.000   1203.849    -22.849    484.474   1199.138    484.474    489.239    484.474
 53.670   1153.386   1159.082     -5.696    484.492   1154.326    484.492    489.308    484.492
 53.770   1018.000   1062.477    -44.477    484.511   1057.657    484.511    489.389    484.511
 53.870    878.000    944.229    -66.229    484.531    939.327    484.531    489.482    484.531
 53.970    848.000    829.722     18.278    484.553    824.727    484.553    489.587    484.553
 54.070    758.000    733.827     24.173    484.575    728.727    484.575    489.704    484.575
 54.170    644.057    661.985    -17.928    484.600    656.770    484.600    489.835    484.600
 54.270    649.171    613.002     36.169    484.625    607.663    484.625    489.978    484.625
 54.370    585.235    582.172      3.063    484.652    576.698    484.652    490.136    484.652
 54.470    616.000    563.966     52.034    484.680    558.346    484.680    490.307    484.680
 54.570    570.235    553.692     16.543    484.709    547.913    484.709    490.494    484.709
 54.670    547.598    548.085     -0.487    484.740    542.134    484.740    490.696    484.740
 54.770    563.943    545.186     18.757    484.771    539.046    484.771    490.916    484.771
 54.870    525.904    543.948    -18.045    484.804    537.604    484.804    491.153    484.804
 54.970    509.497    543.869    -34.372    484.839    537.303    484.839    491.409    484.839
 55.070    589.000    544.732     44.268    484.874    537.924    484.874    491.686    484.874
 55.170    552.000    546.466      5.534    484.911    539.396    484.911    491.985    484.911
 55.270    616.000    549.088     66.912    484.949    541.733    484.949    492.308    484.949
 55.370    573.768    552.685     21.083    484.988    545.021    484.988    492.657    484.988
 55.470    541.815    557.444    -15.629    485.028    549.442    485.028    493.034    485.028
 55.570    587.000    563.723     23.277    485.070    555.354    485.070    493.443    485.070
 55.670    635.000    572.248     62.752    485.112    563.479    485.112    493.886    485.112
 55.770    608.000    584.504     23.496    485.156    575.297    485.156    494.367    485.156
 55.870    571.581    603.431    -31.850    485.201    593.745    485.201    494.890    485.201
 55.970    587.399    634.438    -47.039    485.247    624.225    485.247    495.460    485.247
 56.070    733.000    686.475     46.525    485.294    675.681    485.294    496.083    485.294
 56.170    812.562    772.473     40.089    485.343    761.037    485.343    496.766    485.343
 56.270    896.000    908.021    -12.021    485.392    895.875    485.392    497.516    485.392
 56.370   1152.046   1107.254     44.792    485.443   1094.325    485.443    498.345    485.443
 56.470   1316.000   1375.892    -59.892    485.494   1362.098    485.494    499.265    485.494
 56.570   1673.000   1702.951    -29.951    485.547   1688.205    485.547    500.289    485.547
 56.670   2052.494   2053.722     -1.228    485.601   2037.924    485.601    501.435    485.601
 56.770   2276.312   2367.315    -91.002    485.656   2350.349    485.656    502.725    485.656
 56.870   2560.000   2566.126     -6.126    485.711   2547.843    485.711    504.185    485.711
 56.970   2554.000   2587.509    -33.509    485.768   2567.706    485.768    505.843    485.768
 57.070   2375.000   2424.464    -49.464    485.826   2402.873    485.826    507.736    485.826
 57.170   2190.000   2131.483     58.517    485.885   2107.783    485.885    509.904    485.885
 57.270   1851.000   1787.092     63.908    485.945   1760.926    485.945    512.394    485.945
 57.370   1449.000   1457.106     -8.106    486.006   1428.084    486.006    515.257    486.006
 57.470   1161.000   1181.510    -20.510    486.068   1149.198    486.068    518.550    486.068
 57.570   1021.328    975.615     45.713    486.131    939.530    486.131    522.335    486.131
 57.670    911.000    836.590     74.410    486.195    796.191    486.195    526.673    486.195
 57.770    761.000    751.849      9.151    486.259    706.531    486.259    531.628    486.259
 57.870    739.475    706.634     32.840    486.325    655.734    486.325    537.258    486.325
 57.970    665.000    688.955    -23.955    486.392    631.757    486.392    543.610    486.392
 58.070    704.000    691.512     12.488    486.459    627.268    486.459    550.713    486.459
 58.170    712.505    711.369      1.136    486.528    639.334    486.528    558.564    486.528
 58.270    733.000    748.390    -15.390    486.597    667.875    486.597    567.104    486.597
 58.370    807.000    803.229      3.771    486.667    713.682    486.667    576.199    486.667
 58.470    889.000    875.386     13.614    486.738    776.502    486.738    585.602    486.738
 58.570    937.000    961.611    -24.611    486.810    853.475    486.810    594.927    486.810
 58.670   1045.000   1054.997     -9.997    486.883    938.230    486.883    603.636    486.883
 58.770   1185.148   1145.764     39.384    486.957   1021.651    486.957    611.068    486.957
 58.870   1244.000   1224.398     19.602    487.031   1094.918    487.031    616.524    487.031
 58.970   1309.000   1283.758     25.242    487.107   1151.488    487.107    619.408    487.107
 59.070   1360.000   1317.397     42.603    487.183   1185.250    487.183    619.378    487.183
 59.170   1349.000   1319.714     29.286    487.260   1190.585    487.260    616.449    487.260
 59.270   1312.671   1291.574     21.097    487.337   1167.986    487.337    610.987    487.337
 59.370   1256.254   1243.710     12.544    487.416   1127.569    487.416    603.604    487.416
 59.470   1245.000   1191.724     53.276    487.495   1084.240    487.495    595.000    487.495
 59.570   1202.000   1150.047     51.953    487.575   1051.781    487.575    585.828    487.575
 59.670   1103.000   1130.931    -27.931    487.656   1041.916    487.656    576.614    487.656
 59.770   1179.000   1144.602     34.398    487.737   1064.502    487.737    567.734    487.737
 59.870   1196.000   1196.166     -0.166    487.819   1124.411    487.819    559.424    487.819
 59.970   1322.000   1281.139     40.861    487.902   1217.033    487.902    551.813    487.902
 60.070   1356.487   1383.208    -26.722    487.985   1326.013    487.985    544.955    487.985
 60.170   1528.000   1475.303     52.697    488.070   1424.285    488.070    538.850    488.070
 60.270   1566.000   1525.406     40.594    488.154   1479.871    488.154    533.469    488.154
 60.370   1514.000   1509.246      4.754    488.240   1468.542    488.240    528.764    488.240
 60.470   1387.000   1423.975    -36.975    488.326   1387.494    488.326    524.676    488.326
 60.570   1343.000   1289.166     53.834    488.413   1256.352    488.413    521.143    488.413
 60.670   1136.000   1133.956      2.044    488.500   1104.306    488.500    518.103    488.500
 60.770   1055.000    984.268     70.732    488.588    957.337    488.588    515.496    488.588
 60.870    821.177    857.250    -36.072    488.677    832.651    488.677    513.267    488.677
 60.970    752.213    760.787     -8.574    488.766    738.186    488.766    511.363    488.766
 61.070    677.000    695.554    -18.554    488.856    674.667    488.856    509.738    488.856
 61.170    652.000    658.306     -6.306    488.946    638.892    488.946    508.351    488.946
 61.270    686.478    645.208     41.271    489.037    627.063    489.037    507.165    489.037
 61.370    637.972    654.168    -16.196    489.128    637.122    489.128    506.148    489.128
 61.470    717.000    685.647     31.353    489.220    669.557    489.220    505.269    489.220
 61.570    732.000    741.891     -9.891    489.313    726.641    489.313    504.501    489.313
 61.670    832.000    824.886      7.114    489.406    810.386    489.406    503.821    489.406
 61.770    892.987    933.616    -40.630    489.499    919.801    489.499    503.207    489.499
 61.870   1039.000   1061.407    -22.407    489.593   1048.233    489.593    502.639    489.593
 61.970   1137.000   1194.163    -57.163    489.687   1181.607    489.687    502.105    489.687
 62.070   1350.000   1310.347     39.653    489.782   1298.399    489.782    501.595    489.782
 62.170   1371.000   1384.410    -13.410    489.878   1373.068    489.878    501.105    489.878
 62.270   1392.934   1395.859     -2.925    489.973   1385.115    489.973    500.636    489.973
 62.370   1342.976   1340.686      2.290    490.069   1330.519    490.069    500.191    490.069
 62.470   1223.000   1234.199    -11.199    490.166   1224.579    490.166    499.771    490.166
 62.570   1120.464   1101.553     18.911    490.263   1092.440    490.263    499.379    490.263
 62.670    928.984    966.477    -37.493    490.360    957.832    490.360    499.019    490.360
 62.770    876.367    845.793     30.574    490.458    837.579    490.458    498.689    490.458
 62.870    736.385    748.429    -12.044    490.556    740.609    490.556    498.390    490.556
 62.970    724.789    676.496     48.294    490.654    669.039    490.654    498.122    490.654
 63.070    626.000    627.406     -1.406    490.753    620.283    490.753    497.881    490.753
 63.170    590.000    596.290     -6.290    490.852    589.476    490.852    497.668    490.852
 63.270    593.000    578.019     14.981    490.951    571.490    490.951    497.480    490.951
 63.370    580.300    568.457     11.843    491.051    562.190    491.051    497.315    491.051
 63.470    541.000    564.961    -23.961    491.150    558.935    491.150    497.171    491.150
 63.570    570.543    566.407      4.135    491.251    560.603    491.251    497.047    491.251
 63.670    580.000    572.980      7.020    491.351    567.378    491.351    496.942    491.351
 63.770    621.000    585.891     35.109    491.452    580.473    491.452    496.852    491.452
 63.870    580.492    607.008    -26.516    491.553    601.756    491.553    496.778    491.553
 63.970    645.000    638.342      6.658    491.654    633.241    491.654    496.717    491.654
 64.070    710.582    681.347     29.235    491.755    676.381    491.755    496.669    491.755
 64.170    782.000    736.060     45.940    491.856    731.216    491.856    496.633    491.856
 64.270    802.000    800.241      1.759    491.958    795.509    491.958    496.607    491.958
 64.370    863.000    868.674     -5.674    492.060    864.047    492.060    496.590    492.060
 64.470    970.515    932.978     37.537    492.162    928.454    492.162    496.583    492.162
 64.570    960.000    982.725    -22.725    492.264    978.303    492.264    496.584    492.264
 64.670   1037.000   1008.591     28.409    492.367   1004.275    492.367    496.593    492.367
 64.770   1102.000   1006.246     95.754    492.469   1002.036    492.469    496.608    492.469
 64.870    917.830    977.845    -60.015    492.572    973.739    492.572    496.631    492.572
 64.970    988.688    930.449     58.239    492.674    926.440    492.674    496.660    492.674
 65.070    862.000    873.263    -11.263    492.777    869.342    492.777    496.694    492.777
 65.170    796.183    814.820    -18.636    492.880    810.978    492.880    496.735    492.880
 65.270    735.171    760.986    -25.815    492.983    757.213    492.983    496.780    492.983
 65.370    722.000    714.529      7.471    493.085    710.814    493.085    496.831    493.085
 65.470    692.092    675.954     16.138    493.188    672.288    493.188    496.886    493.188
 65.570    654.724    644.718     10.007    493.291    641.094    493.291    496.946    493.291
 65.670    586.000    619.998    -33.998    493.394    616.408    493.394    497.010    493.394
 65.770    646.257    600.909     45.348    493.497    597.348    493.497    497.079    493.497
 65.870    534.000    586.549    -52.549    493.600    583.013    493.600    497.152    493.600
 65.970    531.095    576.088    -44.992    493.703    572.573    493.703    497.229    493.703
 66.070    609.000    568.829     40.171    493.806    565.333    493.806    497.310    493.806
 66.170    581.000    564.223     16.777    493.909    560.744    493.909    497.394    493.909
 66.270    542.000    561.849    -19.849    494.012    558.383    494.012    497.483    494.012
 66.370    538.000    561.397    -23.397    494.114    557.940    494.114    497.575    494.114
 66.470    570.000    562.686      7.314    494.217    559.237    494.217    497.671    494.217
 66.570    553.000    565.729    -12.729    494.320    562.283    494.320    497.771    494.320
 66.670    545.000    570.841    -25.841    494.422    567.394    494.422    497.874    494.422
 66.770    600.000    578.826     21.174    494.524    575.374    494.524    497.981    494.524
 66.870    588.000    591.254     -3.254    494.627    587.793    494.627    498.092    494.627
 66.970    633.108    610.835     22.273    494.729    607.361    494.729    498.207    494.729
 67.070    657.771    641.801     15.969    494.830    638.308    494.830    498.326    494.830
 67.170    685.000    690.141     -5.141    494.932    686.625    494.932    498.448    494.932
 67.270    711.424    763.402    -51.979    495.034    759.860    495.034    498.575    495.034
 67.370    877.000    869.766      7.234    495.135    866.196    495.135    498.706    495.135
 67.470    969.000   1016.213    -47.213    495.236   1012.616    495.236    498.841    495.236
 67.570   1202.000   1205.889     -3.889    495.337   1202.270    495.337    498.981    495.337
 67.670   1439.000   1435.166      3.834    495.438   1431.534    495.438    499.125    495.438
 67.770   1653.000   1691.105    -38.105    495.538   1687.471    495.538    499.275    495.538
 67.870   1953.000   1949.981      3.019    495.638   1946.355    495.638    499.429    495.638
 67.970   2137.398   2177.610    -40.211    495.738   2174.000    495.738    499.589    495.738
 68.070   2405.000   2333.634     71.366    495.838   2330.040    495.838    499.755    495.838
 68.170   2358.953   2383.180    -24.226    495.937   2379.580    495.937    499.927    495.937
 68.270   2370.000   2313.607     56.393    496.036   2309.965    496.036    500.106    496.036
 68.370   2105.000   2142.307    -37.307    496.135   2138.579    496.135    500.292    496.135
 68.470   1872.000   1906.453    -34.453    496.233   1902.598    496.233    500.485    496.233
 68.570   1722.468   1646.105     76.362    496.331   1642.094    496.331    500.686    496.331
 68.670   1454.000   1393.813     60.187    496.429   1389.626    496.429    500.896    496.429
 68.770   1135.000   1171.344    -36.344    496.526   1166.972    496.526    501.115    496.526
 68.870    938.000    989.822    -51.822    496.623    985.262    496.623    501.345    496.623
 68.970    857.000    851.449      5.551    496.720    846.698    496.720    501.585    496.720
 69.070    735.812    752.158    -16.346    496.816    747.216    496.816    501.838    496.816
 69.170    756.000    684.554     71.446    496.911    679.416    496.911    502.104    496.911
 69.270    625.000    640.432    -15.432    497.007    635.092    497.007    502.384    497.007
 69.370    608.000    612.452     -4.452    497.102    606.900    497.102    502.681    497.102
 69.470    594.000    594.913     -0.913    497.196    589.134    497.196    502.995    497.196
 69.570    619.419    583.842     35.577    497.290    577.818    497.290    503.329    497.290
 69.670    561.000    576.705    -15.705    497.384    570.416    497.384    503.685    497.384
 69.770    580.000    572.005      7.995    497.477    565.426    497.477    504.066    497.477
 69.870    549.000    568.908    -19.908    497.569    562.012    497.569    504.474    497.569
 69.970    629.000    566.975     62.025    497.661    559.729    497.661    504.914    497.661
 70.070    521.000    565.988    -44.988    497.753    558.356    497.753    505.391    497.753
 70.170    583.000    565.862     17.138    497.844    557.802    497.844    505.909    497.844
 70.270    570.167    566.604      3.562    497.934    558.067    497.934    506.476    497.934
 70.370    598.000    568.321     29.679    498.024    559.248    498.024    507.101    498.024
 70.470    609.187    571.262     37.925    498.113    561.584    498.113    507.794    498.113
 70.570    582.790    575.901      6.889    498.202    565.536    498.202    508.568    498.202
 70.670    552.000    583.077    -31.077    498.290    571.926    498.290    509.441    498.290
 70.770    625.212    594.171     31.041    498.378    582.113    498.378    510.431    498.378
 70.870    627.000    611.308     15.692    498.465    598.201    498.465    511.564    498.465
 70.970    582.000    637.525    -55.525    498.551    623.193    498.551    512.870    498.551
 71.070    646.098    676.781    -30.683    498.637    661.014    498.637    514.381    498.637
 71.170    665.000    733.697    -68.697    498.722    716.245    498.722    516.139    498.722
 71.270    797.000    812.906    -15.906    498.806    793.474    498.806    518.188    498.806
 71.370    884.787    917.972    -33.185    498.890    896.215    498.890    520.577    498.890
 71.470   1067.000   1050.002     16.998    498.973   1025.524    498.973    523.361    498.973
 71.570   1174.000   1206.198    -32.198    499.056   1178.552    499.056    526.591    499.056
 71.670   1320.028   1378.663    -58.635    499.137   1347.351    499.137    530.321    499.137
 71.770   1495.000   1553.707    -58.707    499.218   1518.190    499.218    534.598    499.218
 71.870   1740.000   1711.998     28.002    499.298   1671.703    499.298    539.457    499.298
 71.970   1905.000   1830.512     74.488    499.378   1784.851    499.378    544.918    499.378
 72.070   1900.000   1887.974     12.026    499.457   1836.362    499.457    550.976    499.457
 72.170   1933.033   1873.269     59.764    499.535   1815.162    499.535    557.587    499.535
 72.270   1807.000   1791.062     15.938    499.612   1726.002    499.612    564.655    499.612
 72.370   1605.627   1659.121    -53.495    499.689   1586.813    499.689    572.011    499.689
 72.470   1511.000   1500.218     10.782    499.764   1420.627    499.764    579.392    499.764
 72.570   1335.000   1335.225     -0.225    499.839   1248.687    499.839    586.426    499.839
 72.670   1236.958   1179.871     57.087    499.913   1087.199    499.913    592.639    499.913
 72.770   1047.000   1043.994      3.006    499.987    946.536    499.987    597.497    499.987
 72.870    896.000    932.004    -36.004    500.059    831.612    500.059    600.499    500.059
 72.970    810.741    844.016    -33.275    500.131    742.892    500.131    601.297    500.131
 73.070    736.440    777.327    -40.887    500.202    677.766    500.202    599.798    500.202
 73.170    768.000    727.893     40.107    500.272    631.999    500.272    596.195    500.272
 73.270    738.460    691.492     46.969    500.341    600.950    500.341    590.906    500.341
 73.370    645.000    664.442    -19.442    500.409    580.412    500.409    584.460    500.409
 73.470    611.140    643.907    -32.767    500.476    567.026    500.476    577.376    500.476
 73.570    604.816    627.912    -23.096    500.543    558.375    500.543    570.096    500.543
 73.670    647.000    615.197     31.803    500.608    552.871    500.608    562.951    500.608
 73.770    620.000    605.016     14.984    500.673    549.540    500.673    556.167    500.673
 73.870    563.383    596.951    -33.568    500.736    547.824    500.736    549.883    500.736
 73.970    608.000    590.748     17.252    500.799    547.396    500.799    544.174    500.799
 74.070    619.062    586.207     32.855    500.861    548.027    500.861    539.067    500.861
 74.170    556.000    583.098    -27.098    500.922    549.492    500.922    534.557    500.922
 74.270    655.000    581.115     73.885    500.981    551.514    500.981    530.619    500.981
 74.370    576.000    579.857     -3.857    501.040    553.729    501.040    527.210    501.040
 74.470    598.000    578.826     19.174    501.098    555.689    501.098    524.281    501.098
 74.570    614.000    577.477     36.523    501.155    556.902    501.155    521.779    501.155
 74.670    594.956    575.340     19.617    501.211    556.950    501.211    519.651    501.211
 74.770    617.000    572.186     44.814    501.266    555.657    501.266    517.844    501.266
 74.870    617.000    568.127     48.873    501.320    553.182    501.320    516.311    501.320
 74.970    631.000    563.548     67.452    501.372    549.954    501.372    515.008    501.372
 75.070    583.000    558.958     24.042    501.424    546.520    501.424    513.897    501.424
 75.170    628.000    554.882     73.118    501.475    543.438    501.475    512.946    501.475
 75.270    599.000    551.822     47.178    501.524    541.240    501.524    512.128    501.524
 75.370    601.000    550.266     50.734    501.573    540.435    501.573    511.419    501.573
 75.470    514.747    550.697    -35.950    501.620    541.525    501.620    510.800    501.620
 75.570    540.000    553.598    -13.598    501.667    545.008    501.667    510.257    501.667
 75.670    565.000    559.430      5.570    501.712    551.359    501.712    509.778    501.712
 75.770    599.000    568.580     30.420    501.756    560.973    501.756    509.351    501.756
 75.870    608.000    581.264     26.736    501.799    574.074    501.799    508.970    501.799
 75.970    606.000    597.412      8.588    501.841    590.599    501.841    508.628    501.841
 76.070    619.237    616.541      2.695    501.882    610.069    501.882    508.319    501.882
 76.170    634.000    637.654     -3.654    501.921    631.494    501.921    508.040    501.921
 76.270    664.000    659.181      4.819    501.960    653.307    501.960    507.786    501.960
 76.370    737.000    678.993     58.007    501.997    673.383    501.997    507.555    501.997
 76.470    692.000    694.564     -2.564    502.033    689.199    502.033    507.343    502.033
 76.570    717.613    703.421     14.192    502.068    698.286    502.068    507.150    502.068
 76.670    678.000    703.889    -25.889    502.102    698.968    502.102    506.972    502.102
 76.770    664.956    695.783    -30.827    502.134    691.065    502.134    506.809    502.134
 76.870    712.338    680.497     31.841    502.166    675.967    502.166    506.658    502.166
 76.970    686.964    660.396     26.569    502.196    656.042    502.196    506.520    502.196
 77.070    650.000    638.026     11.974    502.225    633.836    502.225    506.391    502.225
 77.170    580.000    615.589    -35.589    502.252    611.552    502.252    506.272    502.252
 77.270    587.000    594.731     -7.731    502.279    590.836    502.279    506.162    502.279
 77.370    622.058    576.501     45.557    502.304    572.738    502.304    506.059    502.304
 77.470    594.172    561.401     32.771    502.328    557.759    502.328    505.964    502.328
 77.570    588.860    549.478     39.382    502.350    545.951    502.350    505.874    502.350
 77.670    541.000    540.461      0.539    502.372    537.039    502.372    505.791    502.372
 77.770    573.399    533.891     39.507    502.392    530.569    502.392    505.713    502.392
 77.870    515.000    529.249    -14.249    502.411    526.019    502.411    505.640    502.411
 77.970    559.715    526.040     33.675    502.428    522.896    502.428    505.571    502.428
 78.070    479.702    523.846    -44.143    502.444    520.784    502.444    505.506    502.444
 78.170    528.329    522.345      5.984    502.459    519.358    502.459    505.445    502.459
 78.270    514.000    521.307     -7.307    502.473    518.392    502.473    505.388    502.473
 78.370    547.000    520.579     26.421    502.485    517.730    502.485    505.334    502.485
 78.470    503.000    520.066    -17.066    502.496    517.279    502.496    505.282    502.496
 78.570    512.000    519.714     -7.714    502.506    516.986    502.506    505.234    502.506
 78.670    516.563    519.498     -2.935    502.514    516.825    502.514    505.188    502.514
 78.770    522.000    519.412      2.588    502.521    516.789    502.521    505.144    502.521
 78.870    503.172    519.460    -16.289    502.526    516.884    502.526    505.103    502.526
 78.970    551.000    519.660     31.340    502.531    517.127    502.531    505.064    502.531
 79.070    486.000    520.033    -34.033    502.533    517.539    502.533    505.027    502.533
 79.170    492.000    520.604    -28.604    502.535    518.147    502.535    504.992    502.535
 79.270    483.000    521.403    -38.403    502.535    518.978    502.535    504.958    502.535
 79.370    503.372    522.451    -19.079    502.533    520.056    502.533    504.927    502.533
 79.470    501.000    523.768    -22.768    502.531    521.399    502.531    504.897    502.531
 79.570    494.000    525.464    -31.464    502.527    523.119    502.527    504.869    502.527
 79.670    528.925    527.576      1.349    502.521    525.251    502.521    504.843    502.521
 79.770    514.000    530.200    -16.200    502.514    527.893    502.514    504.818    502.514
 79.870    559.827    533.480     26.347    502.506    531.188    502.506    504.794    502.506
 79.970    585.000    537.620     47.380    502.496    535.342    502.496    504.770    502.496
 80.070    536.463    542.901     -6.438    502.484    540.635    502.484    504.747    502.484
 80.170    563.938    549.686     14.251    502.472    547.432    502.472    504.724    502.472
 80.270    591.666    558.404     33.262    502.458    556.161    502.458    504.701    502.458
 80.370    562.000    569.477     -7.477    502.442    567.246    502.442    504.675    502.442
 80.470    585.000    583.224      1.776    502.425    581.007    502.425    504.648    502.425
 80.570    588.000    599.750    -11.750    502.406    597.549    502.406    504.617    502.406
 80.670    574.232    618.858    -44.626    502.386    616.676    502.386    504.583    502.386
 80.770    679.825    639.985     39.840    502.365    637.826    502.365    504.544    502.365
 80.870    646.000    662.197    -16.197    502.342    660.064    502.342    504.501    502.342
 80.970    715.092    684.256     30.837    502.317    682.154    502.317    504.452    502.317
 81.070    683.000    704.781    -21.781    502.291    702.713    502.291    504.400    502.291
 81.170    704.524    722.448    -17.924    502.264    720.415    502.264    504.344    502.264
 81.270    748.000    736.137     11.863    502.235    734.141    502.235    504.285    502.235
 81.370    771.425    745.023     26.402    502.205    743.064    502.205    504.224    502.205
 81.470    765.000    748.650     16.350    502.173    746.728    502.173    504.162    502.173
 81.570    751.000    746.962      4.038    502.139    745.074    502.139    504.098    502.139
 81.670    736.000    740.242     -4.242    502.104    738.387    502.104    504.034    502.104
 81.770    711.000    729.069    -18.069    502.068    727.244    502.068    503.970    502.068
 81.870    774.000    714.327     59.673    502.030    712.528    502.030    503.906    502.030
 81.970    726.984    697.181     29.803    501.990    695.405    501.990    503.842    501.990
 82.070    691.000    678.875     12.125    501.949    677.118    501.949    503.778    501.949
 82.170    697.000    660.462     36.538    501.906    658.723    501.906    503.714    501.906
 82.270    641.949    642.650     -0.700    501.862    640.925    501.862    503.650    501.862
 82.370    606.000    625.819    -19.819    501.816    624.107    501.816    503.587    501.816
 82.470    596.614    610.165    -13.551    501.769    608.463    501.769    503.523    501.769
 82.570    595.292    595.845     -0.553    501.720    594.152    501.720    503.459    501.720
 82.670    588.000    583.046      4.954    501.670    581.359    501.670    503.396    501.670
 82.770    582.422    571.973     10.448    501.618    570.291    501.618    503.332    501.618
 82.870    536.000    562.812    -26.812    501.564    561.133    501.564    503.268    501.564
 82.970    575.777    555.698     20.079    501.509    554.021    501.509    503.203    501.509
 83.070    593.328    550.710     42.618    501.452    549.034    501.452    503.139    501.452
 83.170    513.564    547.856    -34.292    501.394    546.179    501.394    503.073    501.394
 83.270    528.000    547.061    -19.061    501.334    545.383    501.334    503.007    501.334
 83.370    516.035    548.152    -32.117    501.273    546.471    501.273    502.941    501.273
 83.470    526.000    550.846    -24.846    501.210    549.161    501.210    502.873    501.210
 83.570    576.954    554.747     22.207    501.145    553.058    501.145    502.805    501.145
 83.670    574.359    559.351     15.008    501.079    557.658    501.079    502.736    501.079
 83.770    546.000    564.062    -18.062    501.011    562.366    501.011    502.666    501.011
 83.870    520.000    568.229    -48.229    500.942    566.530    500.942    502.596    500.942
 83.970    595.578    571.203     24.375    500.871    569.502    500.871    502.524    500.871
 84.070    558.000    572.447    -14.447    500.798    570.746    500.798    502.452    500.798
 84.170    553.000    571.666    -18.666    500.724    569.966    500.724    502.378    500.724
 84.270    576.000    568.880      7.120    500.648    567.182    500.648    502.304    500.648
 84.370    569.988    564.406      5.583    500.571    562.710    500.571    502.228    500.571
 84.470    563.000    558.740      4.260    500.492    557.047    500.492    502.152    500.492
 84.570    527.000    552.431    -25.431    500.411    550.741    500.411    502.075    500.411
 84.670    570.000    545.985     24.015    500.329    544.296    500.329    501.996    500.329
 84.770    543.000    539.817      3.183    500.245    538.128    500.245    501.917    500.245
 84.870    500.000    534.230    -34.230    500.160    532.540    500.160    501.836    500.160
 84.970    541.898    529.411     12.487    500.073    527.719    500.073    501.754    500.073
 85.070    499.127    525.443    -26.316    499.984    523.747    499.984    501.672    499.984
 85.170    511.000    522.324    -11.324    499.894    520.623    499.894    501.588    499.894
 85.270    519.000    519.991     -0.991    499.802    518.284    499.802    501.503    499.802
 85.370    572.000    518.350     53.650    499.709    516.636    499.709    501.418    499.709
 85.470    499.613    517.297    -17.684    499.614    515.575    499.614    501.331    499.614
 85.570    539.554    516.743     22.811    499.517    515.012    499.517    501.243    499.517
 85.670    512.000    516.622     -4.622    499.419    514.880    499.419    501.155    499.419
 85.770    532.728    516.903     15.825    499.319    515.151    499.319    501.065    499.319
 85.870    530.000    517.597     12.403    499.217    515.832    499.217    500.974    499.217
 85.970    551.000    518.751     32.249    499.114    516.973    499.114    500.883    499.114
 86.070    526.380    520.453      5.927    499.009    518.661    499.009    500.790    499.009
 86.170    507.000    522.825    -15.825    498.903    521.017    498.903    500.697    498.903
 86.270    494.977    526.013    -31.036    498.795    524.187    498.795    500.602    498.795
 86.370    568.000    530.171     37.829    498.685    528.326    498.685    500.507    498.685
 86.470    561.000    535.443     25.557    498.574    533.576    498.574    500.411    498.574
 86.570    528.000    541.936    -13.936    498.461    540.046    498.461    500.314    498.461
 86.670    568.000    549.690     18.310    498.346    547.774    498.346    500.216    498.346
 86.770    587.000    558.643     28.357    498.230    556.700    498.230    500.118    498.230
 86.870    528.011    568.610    -40.599    498.112    566.638    498.112    500.019    498.112
 86.970    623.000    579.248     43.752    497.993    577.246    497.993    499.919    497.993
 87.070    602.000    590.056     11.944    497.872    588.024    497.872    499.818    497.872
 87.170    637.073    600.375     36.698    497.749    598.312    497.749    499.717    497.749
 87.270    615.000    609.421      5.579    497.625    607.328    497.625    499.615    497.625
 87.370    618.000    616.370      1.630    497.499    614.250    497.499    499.513    497.499
 87.470    582.054    620.504    -38.450    497.372    618.360    497.372    499.410    497.372
 87.570    633.000    621.395     11.605    497.243    619.230    497.243    499.307    497.243
 87.670    636.362    619.035     17.328    497.113    616.849    497.113    499.203    497.113
 87.770    592.549    613.833    -21.284    496.980    611.630    496.980    499.099    496.980
 87.870    625.000    606.502     18.498    496.847    604.280    496.847    498.995    496.847
 87.970    564.813    597.895    -33.082    496.711    595.655    496.711    498.891    496.711
 88.070    631.877    588.885     42.992    496.574    586.624    496.574    498.786    496.574
 88.170    565.764    580.280    -14.517    496.436    577.998    496.436    498.682    496.436
 88.270    583.000    572.774     10.226    496.296    570.466    496.296    498.578    496.296
 88.370    606.000    566.901     39.099    496.154    564.566    496.154    498.474    496.154
 88.470    523.739    563.022    -39.283    496.011    560.657    496.011    498.370    496.011
 88.570    527.444    561.313    -33.869    495.866    558.915    495.866    498.267    495.866
 88.670    593.000    561.765     31.235    495.719    559.331    495.719    498.164    495.719
 88.770    538.708    564.196    -25.488    495.571    561.724    495.571    498.063    495.571
 88.870    587.000    568.265     18.735    495.422    565.752    495.422    497.962    495.422
 88.970    544.000    573.496    -29.496    495.271    570.940    495.271    497.862    495.271
 89.070    603.000    579.298     23.702    495.118    576.694    495.118    497.764    495.118
 89.170    626.000    584.995     41.005    494.964    582.340    494.964    497.667    494.964
 89.270    599.000    589.874      9.126    494.808    587.165    494.808    497.573    494.808
 89.370    623.000    593.255     29.745    494.650    590.486    494.650    497.481    494.650
 89.470    565.000    594.596    -29.596    494.492    591.762    494.492    497.391    494.492
 89.570    622.969    593.613     29.357    494.331    590.705    494.331    497.305    494.331
 89.670    566.000    590.336    -24.336    494.169    587.349    494.169    497.222    494.169
 89.770    516.000    585.087    -69.087    494.006    582.012    494.006    497.144    494.006
 89.870    600.000    578.373     21.627    493.841    575.203    493.841    497.070    493.841
 89.970    613.503    570.766     42.737    493.674    567.492    493.674    497.002    493.674
 90.070    587.028    562.816     24.212    493.506    559.428    493.506    496.941    493.506
 90.170    572.000    554.993     17.007    493.337    551.483    493.337    496.888    493.337
 90.270    506.000    547.667    -41.667    493.166    544.024    493.166    496.843    493.166
 90.370    549.000    541.094      7.906    492.993    537.306    492.993    496.809    492.993
 90.470    518.000    535.466    -17.466    492.819    531.521    492.819    496.786    492.819
 90.570    518.000    530.833    -12.833    492.644    526.717    492.644    496.776    492.644
 90.670    557.527    527.182     30.345    492.467    522.880    492.467    496.781    492.467
 90.770    526.000    524.449      1.551    492.288    519.944    492.288    496.804    492.288
 90.870    549.577    522.542     27.036    492.109    517.812    492.109    496.845    492.109
 90.970    546.000    521.355     24.645    491.927    516.380    491.927    496.908    491.927
 91.070    540.000    520.797     19.203    491.744    515.550    491.744    496.994    491.744
 91.170    517.000    520.795     -3.795    491.560    515.250    491.560    497.106    491.560
 91.270    487.000    521.311    -34.311    491.374    515.439    491.374    497.247    491.374
 91.370    549.000    522.346     26.654    491.187    516.113    491.187    497.420    491.187
 91.470    476.000    523.940    -47.940    490.999    517.312    490.999    497.625    490.999
 91.570    526.000    526.179     -0.179    490.809    519.118    490.809    497.867    490.809
 91.670    562.744    529.187     33.557    490.618    521.653    490.618    498.147    490.618
 91.770    511.147    533.124    -21.977    490.425    525.075    490.425    498.466    490.425
 91.870    547.000    538.176      8.824    490.231    529.570    490.231    498.828    490.231
 91.970    574.392    544.546     29.846    490.035    535.337    490.035    499.232    490.035
 92.070    525.000    552.433    -27.433    489.838    542.576    489.838    499.679    489.838
 92.170    556.000    562.014     -6.014    489.640    551.466    489.640    500.168    489.640
 92.270    568.000    573.421     -5.421    489.440    562.138    489.440    500.698    489.440
 92.370    547.032    586.715    -39.683    489.239    574.658    489.239    501.265    489.239
 92.470    590.000    601.866    -11.866    489.037    589.002    489.037    501.864    489.037
 92.570    664.288    618.730     45.558    488.834    605.032    488.834    502.488    488.834
 92.670    631.000    637.038     -6.038    488.629    622.491    488.629    503.127    488.629
 92.770    667.000    656.382     10.618    488.422    640.983    488.422    503.766    488.422
 92.870    658.000    676.218    -18.218    488.215    659.984    488.215    504.389    488.215
 92.970    687.000    695.911     -8.911    488.006    678.878    488.006    504.975    488.006
 93.070    709.000    714.778     -5.778    487.796    697.007    487.796    505.500    487.796
 93.170    771.000    732.213     38.787    487.584    713.791    487.584    505.938    487.584
 93.270    751.000    747.811      3.189    487.372    728.850    487.372    506.265    487.372
 93.370    799.000    761.439     37.561    487.158    742.075    487.158    506.456    487.158
 93.470    779.000    773.210      5.790    486.943    753.595    486.943    506.492    486.943
 93.570    794.000    783.366     10.634    486.726    763.667    486.726    506.364    486.726
 93.670    804.000    792.236     11.764    486.509    772.618    486.509    506.068    486.509
 93.770    836.000    800.163     35.837    486.290    780.786    486.290    505.611    486.290
 93.870    830.000    807.416     22.584    486.070    788.424    486.070    505.009    486.070
 93.970    829.000    814.346     14.654    485.848    795.862    485.848    504.284    485.848
 94.070    864.399    821.375     43.024    485.626    803.495    485.626    503.459    485.626
 94.170    778.523    828.920    -50.397    485.402    811.716    485.402    502.563    485.402
 94.270    889.101    837.247     51.854    485.178    820.765    485.178    501.619    485.178
 94.370    801.156    846.323    -45.167    484.952    830.587    484.952    500.650    484.952
 94.470    886.334    855.724     30.610    484.725    840.739    484.725    499.675    484.725
 94.570    789.000    864.625    -75.625    484.497    850.381    484.497    498.711    484.497
 94.670    942.000    871.864     70.136    484.267    858.338    484.267    497.768    484.267
 94.770    854.243    876.110    -21.867    484.037    863.272    484.037    496.856    484.037
 94.870    826.479    876.043    -49.564    483.806    863.855    483.806    495.982    483.806
 94.970    820.464    870.668    -50.204    483.573    859.088    483.573    495.149    483.573
 95.070    814.437    859.583    -45.145    483.340    848.565    483.340    494.361    483.340
 95.170    864.000    843.113     20.887    483.105    832.610    483.105    493.618    483.105
 95.270    877.000    822.255     54.745    482.870    812.218    482.870    492.922    482.870
 95.370    877.000    798.475     78.525    482.633    788.856    482.633    492.271    482.633
 95.470    777.715    773.479      4.235    482.395    764.231    482.395    491.666    482.395
 95.570    750.118    749.037      1.080    482.157    740.113    482.157    491.103    482.157
 95.670    754.431    726.865     27.567    481.917    718.220    481.917    490.583    481.917
 95.770    706.000    708.556     -2.556    481.677    700.148    481.677    490.102    481.677
 95.870    673.000    695.547    -22.547    481.435    687.336    481.435    489.659    481.435
 95.970    648.068    689.090    -41.021    481.193    681.039    481.193    489.252    481.193
 96.070    721.000    690.244     30.756    480.949    682.317    480.949    488.878    480.949
 96.170    719.008    699.867     19.141    480.705    692.031    480.705    488.536    480.705
 96.270    741.000    718.603     22.397    480.460    710.825    480.460    488.224    480.460
 96.370    780.973    746.855     34.117    480.214    739.108    480.214    487.940    480.214
 96.470    790.000    784.748      5.252    479.967    777.003    479.967    487.683    479.967
 96.570    751.000    832.061    -81.061    479.719    824.291    479.719    487.452    479.719
 96.670    916.145    888.154     27.991    479.471    880.336    479.471    487.246    479.471
 96.770    926.000    951.899    -25.899    479.222    944.008    479.222    487.063    479.222
 96.870    958.000   1021.612    -63.612    478.972   1013.626    478.972    486.905    478.972
 96.970   1056.486   1095.022    -38.536    478.721   1086.918    478.721    486.771    478.721
 97.070   1206.000   1169.261     36.739    478.469   1161.017    478.469    486.661    478.469
 97.170   1256.000   1240.907     15.093    478.217   1232.501    478.217    486.576    478.217
 97.270   1350.000   1306.098     43.902    477.964   1297.506    477.964    486.518    477.964
 97.370   1276.000   1360.774    -84.774    477.710   1351.972    477.710    486.487    477.710
 97.470   1338.247   1401.129    -62.882    477.455   1392.088    477.455    486.487    477.455
 97.570   1402.845   1424.176    -21.331    477.200   1414.866    477.200    486.519    477.200
 97.670   1525.000   1428.296     96.704    476.944   1418.683    476.944    486.588    476.944
 97.770   1344.870   1413.601    -68.731    476.688   1403.642    476.688    486.696    476.688
 97.870   1414.101   1381.837     32.264    476.431   1371.486    476.431    486.847    476.431
 97.970   1333.000   1335.966     -2.966    476.173   1325.170    476.173    487.048    476.173
 98.070   1295.611   1279.619     15.992    475.915   1268.320    475.915    487.303    475.915
 98.170   1277.304   1216.640     60.664    475.656   1204.772    475.656    487.618    475.656
 98.270   1103.200   1150.771    -47.571    475.396   1138.262    475.396    488.001    475.396
 98.370   1030.684   1085.470    -54.786    475.136   1072.242    475.136    488.458    475.136
 98.470   1048.000   1023.809     24.191    474.876   1009.775    474.876    488.997    474.876
 98.570    933.000    968.426    -35.426    474.615    953.494    474.615    489.627    474.615
 98.670    895.072    921.520    -26.448    474.354    905.588    474.354    490.356    474.354
 98.770    871.000    884.864    -13.864    474.092    867.822    474.092    491.194    474.092
 98.870    847.000    859.830    -12.830    473.830    841.562    473.830    492.149    473.830
 98.970    816.000    847.436    -31.436    473.567    827.813    473.567    493.230    473.567
 99.070    846.228    848.379     -2.152    473.304    827.269    473.304    494.447    473.304
 99.170    894.000    863.082     30.918    473.040    840.341    473.040    495.806    473.040
 99.270    899.000    891.704      7.296    472.777    867.185    472.777    497.317    472.777
 99.370    923.389    934.143    -10.753    472.512    907.689    472.512    498.983    472.512
 99.470    988.371    989.998     -1.627    472.248    961.453    472.248    500.811    472.248
 99.570    997.000   1058.529    -61.529    471.983   1027.731    471.983    502.803    471.983
 99.670   1168.116   1138.588     29.528    471.718   1105.375    471.718    504.959    471.718
 99.770   1206.000   1228.553    -22.553    471.453   1192.768    471.453    507.276    471.453
 99.870   1255.000   1326.275    -71.275    471.187   1287.767    471.187    509.747    471.187
 99.970   1403.482   1429.038    -25.557    470.922   1387.669    470.922    512.362    470.922
100.070   1550.000   1533.579     16.421    470.656   1489.226    470.656    515.102    470.656
100.170   1663.000   1636.197     26.803    470.390   1588.763    470.390    517.943    470.390
100.270   1723.000   1732.951     -9.951    470.124   1682.370    470.124    520.852    470.124
100.370   1815.000   1819.983     -4.983    469.858   1766.232    469.858    523.787    469.858
100.470   1925.000   1893.865     31.135    469.591   1836.970    469.591    526.694    469.591
100.570   1953.000   1951.833      1.167    469.325   1891.886    469.325    529.509    469.325
100.670   1931.497   1991.856    -60.359    469.058   1929.024    469.058    532.155    469.058
100.770   1985.000   2012.574    -27.574    468.792   1947.104    468.792    534.549    468.792
100.870   2033.000   2013.256     19.744    468.526   1945.485    468.526    536.601    468.526
100.970   1925.580   1993.917    -68.337    468.259   1924.269    468.259    538.223    468.259
101.070   1851.000   1955.561   -104.561    467.993   1884.540    467.993    539.337    467.993
101.170   1878.539   1900.391    -21.853    467.726   1828.561    467.726    539.879    467.726
101.270   1853.000   1831.775     21.225    467.460   1759.739    467.460    539.813    467.460
101.370   1729.839   1753.908    -24.069    467.194   1682.278    467.194    539.128    467.194
101.470   1674.000   1671.301      2.699    466.928   1600.670    466.928    537.847    466.928
101.570   1637.000   1588.278     48.722    466.662   1519.191    466.662    536.018    466.662
101.670   1547.000   1508.524     38.476    466.397   1441.458    466.397    533.712    466.397
101.770   1458.000   1434.914     23.086    466.132   1370.261    466.132    531.012    466.132
101.870   1428.791   1369.408     59.384    465.867   1307.474    465.867    528.007    465.867
101.970   1291.239   1313.047    -21.809    465.602   1254.052    465.602    524.786    465.602
102.070   1312.000   1265.999     46.001    465.337   1210.079    465.337    521.430    465.337
102.170   1187.000   1227.631    -40.631    465.073   1174.853    465.073    518.010    465.073
102.270   1220.000   1196.629     23.371    464.809   1147.001    464.809    514.586    464.809
102.370   1155.115   1171.137    -16.022    464.546   1124.616    464.546    511.208    464.546
102.470   1134.151   1148.955    -14.803    464.283   1105.461    464.283    507.913    464.283
102.570   1126.000   1127.781     -1.781    464.020   1087.203    464.020    504.731    464.020
102.670   1087.843   1105.504    -17.661    463.758   1067.710    463.758    501.683    463.758
102.770   1093.000   1080.482     12.518    463.497   1045.324    463.497    498.784    463.497
102.870   1059.852   1051.737      8.115    463.236   1019.057    463.236    496.044    463.236
102.970   1040.000   1019.014     20.986    462.975    988.647    462.975    493.467    462.975
103.070    985.000    982.679      2.321    462.715    954.459    462.715    491.056    462.715
103.170    935.000    943.535     -8.535    462.456    917.298    462.456    488.808    462.456
103.270    857.581    902.623    -45.042    462.197    878.208    462.197    486.721    462.197
103.370    895.000    861.053     33.947    461.939    838.305    461.939    484.789    461.939
103.470    814.560    819.897     -5.337    461.682    798.666    461.682    483.005    461.682
103.570    804.000    780.114     23.886    461.425    760.262    461.425    481.361    461.425
103.670    713.000    742.513    -29.513    461.169    723.906    461.169    479.851    461.169
103.770    693.932    707.721    -13.789    460.914    690.238    460.914    478.463    460.914
103.870    651.000    676.178    -25.178    460.660    659.705    460.660    477.190    460.660
103.970    717.000    648.135     68.865    460.407    632.568    460.407    476.023    460.407
104.070    666.943    623.673     43.270    460.154    608.916    460.154    474.952    460.154
104.170    640.000    602.720     37.280    459.902    588.688    459.902    473.969    459.902
104.270    557.359    585.089    -27.730    459.652    571.703    459.652    473.066    459.652
104.370    578.000    570.509      7.491    459.402    557.700    459.402    472.235    459.402
104.470    619.000    558.658     60.342    459.153    546.362    459.153    471.468    459.153
104.570    567.000    549.195     17.805    458.906    537.356    458.906    470.760    458.906
104.670    529.804    541.786    -11.982    458.659    530.353    458.659    470.104    458.659
104.770    598.000    536.121     61.879    458.413    525.049    458.413    469.494    458.413
104.870    527.000    531.930     -4.930    458.169    521.179    458.169    468.927    458.169
104.970    563.000    528.989     34.011    457.926    518.523    457.926    468.397    457.926
105.070    539.000    527.125     11.875    457.683    516.911    457.683    467.900    457.683
105.170    549.000    526.215     22.785    457.443    516.225    457.443    467.434    457.443
105.270    533.452    526.182      7.270    457.203    516.389    457.203    466.995    457.203
105.370    543.593    526.993     16.601    456.965    517.374    456.965    466.581    456.965
105.470    489.578    528.651    -39.073    456.728    519.185    456.728    466.190    456.728
105.570    544.000    531.191     12.809    456.492    521.858    456.492    465.819    456.492
105.670    577.536    534.671     42.865    456.258    525.453    456.258    465.468    456.258
105.770    537.000    539.161     -2.161    456.025    530.041    456.025    465.134    456.025
105.870    563.000    544.732     18.268    455.793    535.696    455.793    464.817    455.793
105.970    519.253    551.446    -32.193    455.563    542.478    455.563    464.516    455.563
106.070    514.814    559.337    -44.523    455.335    550.425    455.335    464.229    455.335
106.170    587.000    568.403     18.597    455.108    559.533    455.108    463.957    455.108
106.270    600.000    578.595     21.405    454.883    569.755    454.883    463.698    454.883
106.370    598.000    589.806      8.194    454.660    580.986    454.660    463.453    454.660
106.470    568.760    601.870    -33.110    454.438    593.058    454.438    463.220    454.438
106.570    605.000    614.569     -9.569    454.217    605.755    454.217    462.999    454.217
106.670    621.337    627.618     -6.280    453.999    618.791    453.999    462.791    453.999
106.770    618.000    640.679    -22.679    453.782    631.830    453.782    462.595    453.782
106.870    701.312    653.374     47.938    453.567    644.494    453.567    462.410    453.567
106.970    623.720    665.296    -41.576    453.354    656.377    453.354    462.237    453.354
107.070    669.000    676.037     -7.037    453.143    667.068    453.143    462.076    453.143
107.170    705.105    685.228     19.877    452.934    676.201    452.934    461.927    452.934
107.270    658.000    692.591    -34.591    452.727    683.497    452.727    461.789    452.727
107.370    739.321    697.968     41.353    452.522    688.797    452.522    461.663    452.522
107.470    689.000    701.369    -12.369    452.318    692.112    452.318    461.549    452.318
107.570    689.000    702.976    -13.976    452.117    693.624    452.117    461.447    452.117
107.670    743.661    703.112     40.549    451.918    693.655    451.918    461.358    451.918
107.770    655.838    702.187    -46.349    451.721    692.615    451.721    461.281    451.721
107.870    690.261    700.638    -10.377    451.527    690.940    451.527    461.217    451.527
107.970    647.000    698.873    -51.873    451.334    689.038    451.334    461.166    451.334
108.070    728.000    697.233     30.767    451.144    687.249    451.144    461.129    451.144
108.170    679.000    695.963    -16.963    450.956    685.819    450.956    461.106    450.956
108.270    690.000    695.201     -5.201    450.771    684.885    450.771    461.097    450.771
108.370    669.000    694.967    -25.967    450.588    684.464    450.588    461.104    450.588
108.470    652.000    695.162    -43.162    450.407    684.461    450.407    461.126    450.407
108.570    693.765    695.580     -1.814    450.229    684.665    450.229    461.165    450.229
108.670    678.683    695.918    -17.235    450.053    684.776    450.053    461.221    450.053
108.770    696.627    695.808      0.818    449.880    684.422    449.880    461.296    449.880
108.870    728.000    694.854     33.146    449.710    683.205    449.710    461.390    449.710
108.970    681.912    692.683    -10.771    449.542    680.755    449.542    461.504    449.542
109.070    651.000    689.008    -38.008    449.377    676.781    449.377    461.640    449.377
109.170    710.979    683.666     27.313    449.214    671.119    449.214    461.800    449.214
109.270    681.000    676.648      4.352    449.055    663.757    449.055    461.984    449.055
109.370    707.437    668.088     39.350    448.898    654.828    448.898    462.196    448.898
109.470    646.689    658.230    -11.541    448.744    644.576    448.744    462.436    448.744
109.570    609.000    647.393    -38.393    448.593    633.315    448.593    462.707    448.593
109.670    588.801    635.922    -47.121    448.445    621.388    448.445    463.013    448.445
109.770    633.000    624.164      8.836    448.299    609.140    448.299    463.356    448.299
109.870    640.954    612.443     28.511    448.157    596.892    448.157    463.739    448.157
109.970    615.000    601.053     13.947    448.018    584.933    448.018    464.166    448.018
110.070    602.000    590.243     11.757    447.882    573.510    447.882    464.641    447.882
110.170    592.000    580.221     11.779    447.749    562.824    447.749    465.168    447.749
110.270    603.000    571.144     31.856    447.620    553.029    447.620    465.753    447.620
110.370    557.954    563.123     -5.169    447.493    544.231    447.493    466.402    447.493
110.470    555.114    556.227     -1.113    447.370    536.492    447.370    467.120    447.370
110.570    591.942    550.482     41.460    447.251    529.831    447.251    467.913    447.251
110.670    561.000    545.878     15.122    447.134    524.232    447.134    468.790    447.134
110.770    525.000    542.378    -17.378    447.022    519.650    447.022    469.757    447.022
110.870    583.000    539.922     43.078    446.912    516.017    446.912    470.823    446.912
110.970    588.000    538.436     49.564    446.806    513.250    446.806    471.997    446.806
111.070    569.396    537.837     31.559    446.704    511.256    446.704    473.287    446.704
111.170    518.190    538.039    -19.848    446.605    509.941    446.605    474.705    446.605
111.270    546.000    538.959      7.041    446.510    509.211    446.510    476.259    446.510
111.370    547.000    540.518      6.482    446.419    508.976    446.419    477.961    446.419
111.470    549.000    542.645      6.355    446.332    509.155    446.332    479.821    446.332
111.570    532.000    545.279    -13.279    446.248    509.675    446.248    481.850    446.248
111.670    525.000    548.367    -23.367    446.168    510.475    446.168    484.059    446.168
111.770    589.253    551.870     37.383    446.092    511.501    446.092    486.459    446.092
111.870    559.000    555.757      3.243    446.020    512.715    446.020    489.060    446.020
111.970    576.089    560.008     16.081    445.952    514.085    445.952    491.873    445.952
112.070    559.000    564.616     -5.616    445.889    515.596    445.889    494.906    445.889
112.170    555.000    569.583    -14.583    445.829    517.241    445.829    498.168    445.829
112.270    581.000    574.921      6.079    445.773    519.026    445.773    501.666    445.773
112.370    556.000    580.652    -24.652    445.722    520.965    445.722    505.406    445.722
112.470    593.877    586.796      7.081    445.675    523.078    445.675    509.391    445.675
112.570    605.000    593.363     11.637    445.632    525.369    445.632    513.624    445.632
112.670    609.682    600.479      9.203    445.594    527.968    445.594    518.102    445.594
112.770    626.836    608.164     18.672    445.559    530.899    445.559    522.823    445.559
112.870    595.000    616.484    -21.484    445.530    534.234    445.530    527.778    445.530
112.970    595.000    625.527    -30.527    445.505    538.074    445.505    532.956    445.505
113.070    642.286    635.409      6.877    445.484    542.552    445.484    538.339    445.484
113.170    629.000    646.277    -17.277    445.469    547.837    445.469    543.906    445.469
113.270    693.186    658.324     34.862    445.458    554.152    445.458    549.626    445.458
113.370    650.000    671.800    -21.800    445.451    561.783    445.451    555.463    445.451
113.470    668.000    687.028    -19.028    445.449    571.100    445.449    561.372    445.449
113.570    649.000    704.426    -55.426    445.453    582.574    445.453    567.297    445.453
113.670    683.376    724.522    -41.146    445.461    596.798    445.461    573.175    445.461
113.770    752.542    747.981      4.562    445.474    614.512    445.474    578.928    445.474
113.870    787.994    775.625     12.370    445.492    636.625    445.492    584.473    445.492
113.970    783.508    808.459    -24.951    445.515    664.236    445.515    589.714    445.515
114.070    835.000    847.691    -12.691    445.543    698.651    445.543    594.550    445.543
114.170    838.157    894.743    -56.587    445.577    741.399    445.577    598.878    445.577
114.270    921.991    951.263    -29.271    445.615    794.230    445.615    602.595    445.615
114.370   1009.000   1019.115    -10.115    445.659    859.104    445.659    605.603    445.659
114.470   1067.000   1100.365    -33.365    445.708    938.169    445.708    607.821    445.708
114.570   1170.000   1197.235    -27.235    445.763   1033.711    445.763    609.184    445.763
114.670   1348.328   1312.042     36.286    445.823   1148.088    445.823    609.651    445.823
114.770   1475.533   1447.114     28.420    445.889   1283.641    445.889    609.211    445.889
114.870   1634.559   1604.672     29.888    445.960   1442.576    445.960    607.878    445.960
114.970   1858.000   1786.699     71.301    446.037   1626.833    446.037    605.696    446.037
115.070   1969.710   1994.786    -25.076    446.119   1837.938    446.119    602.730    446.119
115.170   2289.000   2229.961     59.039    446.207   2076.835    446.207    599.066    446.207
115.270   2555.000   2492.529     62.471    446.301   2343.732    446.301    594.800    446.301
115.370   2867.000   2781.904     85.096    446.401   2637.943    446.401    590.035    446.401
115.470   3021.358   3096.476    -75.117    446.507   2957.754    446.507    584.877    446.507
115.570   3530.629   3433.498     97.132    446.619   3300.319    446.619    579.425    446.619
115.670   3727.986   3789.016    -61.030    446.736   3661.594    446.736    573.774    446.736
115.770   4171.364   4157.847     13.516    446.860   4036.309    446.860    568.008    446.860
115.870   4496.340   4533.601    -37.261    446.990   4418.004    446.990    562.201    446.990
115.970   4866.000   4908.760    -42.760    447.126   4799.096    447.126    556.418    447.126
116.070   5191.790   5274.810    -83.020    447.269   5171.022    447.269    550.712    447.269
116.170   5614.146   5622.442     -8.297    447.418   5524.426    447.418    545.129    447.418
116.270   5791.956   5941.821   -149.865    447.573   5849.438    447.573    539.705    447.573
116.370   6371.658   6222.960    148.698    447.734   6136.042    447.734    534.468    447.734
116.470   6392.847   6456.217    -63.370    447.903   6374.575    447.903    529.440    447.903
116.570   6627.512   6632.914     -5.402    448.077   6556.338    448.077    524.638    448.077
116.670   6671.000   6746.034    -75.034    448.259   6674.301    448.259    520.073    448.259
116.770   6818.893   6790.902     27.991    448.447   6723.777    448.447    515.754    448.447
116.870   6952.000   6765.695    186.305    448.642   6702.936    448.642    511.683    448.642
116.970   6759.000   6671.654     87.346    448.843   6613.013    448.843    507.862    448.843
117.070   6566.756   6512.922     53.834    449.052   6458.148    449.052    504.289    449.052
117.170   6259.000   6296.071    -37.071    449.267   6244.915    449.267    500.960    449.267
117.270   6154.262   6029.438    124.824    449.490   5981.654    449.490    497.869    449.490
117.370   5624.000   5722.420    -98.420    449.720   5677.767    449.720    495.009    449.720
117.470   5499.861   5384.841    115.020    449.956   5343.088    449.956    492.372    449.956
117.570   4960.251   5026.440    -66.188    450.200   4987.364    450.200    489.949    450.200
117.670   4739.247   4656.482     82.765    450.452   4619.872    450.452    487.729    450.452
117.770   4261.873   4283.475    -21.601    450.710   4249.133    450.710    485.703    450.710
117.870   3909.000   3914.967     -5.967    450.977   3882.706    450.977    483.860    450.977
117.970   3787.000   3557.414    229.586    451.250   3527.062    451.250    482.188    451.250
118.070   3338.000   3216.105    121.895    451.531   3187.501    451.531    480.678    451.531
118.170   2979.000   2895.144     83.856    451.820   2868.140    451.820    479.318    451.820
118.270   2631.000   2597.481     33.519    452.116   2571.942    452.116    478.098    452.116
118.370   2373.000   2324.990     48.010    452.420   2300.793    452.420    477.009    452.420
118.470   2127.523   2078.570     48.953    452.732   2055.604    452.732    476.040    452.732
118.570   1913.000   1858.279     54.721    453.052   1836.441    453.052    475.183    453.052
118.670   1606.000   1663.467    -57.467    453.380   1642.666    453.380    474.429    453.380
118.770   1536.000   1492.926     43.074    453.716   1473.078    453.716    473.770    453.716
118.870   1270.000   1345.028    -75.028    454.060   1326.060    454.060    473.199    454.060
118.970   1285.698   1217.867     67.831    454.412   1199.709    454.412    472.708    454.412
119.070   1098.000   1109.376    -11.376    454.772   1091.967    454.772    472.292    454.772
119.170   1043.915   1017.440     26.476    455.141   1000.724    455.141    471.944    455.141
119.270    904.203    939.980    -35.778    455.518    923.907    455.518    471.659    455.518
119.370    872.992    875.026     -2.034    455.903    859.549    455.903    471.433    455.903
119.470    802.000    820.758    -18.758    456.297    805.835    456.297    471.261    456.297
119.570    789.000    775.540     13.460    456.699    761.131    456.699    471.139    456.699
119.670    757.507    737.924     19.584    457.110    723.994    457.110    471.065    457.110
119.770    742.000    706.638     35.362    457.530    693.154    457.530    471.034    457.530
119.870    674.335    680.666     -6.331    457.959    667.597    457.959    471.044    457.959
119.970    645.000    659.108    -14.108    458.396    646.425    458.396    471.092    458.396
120.070    637.000    641.216     -4.216    458.843    628.893    458.843    471.177    458.843
120.170    610.000    626.384    -16.384    459.298    614.396    459.298    471.297    459.298
120.270    613.469    614.121     -0.652    459.763    602.445    459.763    471.449    459.763
120.370    565.000    604.031    -39.031    460.237    592.644    460.237    471.632    460.237
120.470    573.000    595.795    -22.795    460.719    584.679    460.719    471.846    460.719
120.570    635.000    589.161     45.839    461.212    578.295    461.212    472.088    461.212
120.670    603.000    583.925     19.075    461.713    573.291    461.713    472.358    461.713
120.770    557.759    579.925    -22.166    462.224    569.506    462.224    472.655    462.224
120.870    540.000    577.031    -37.031    462.745    566.811    462.745    472.977    462.745
120.970    537.787    575.137    -37.351    463.275    565.100    463.275    473.325    463.275
121.070    521.000    574.155    -53.155    463.815    564.286    463.815    473.697    463.815
121.170    550.000    574.009    -24.009    464.365    564.296    464.365    474.092    464.365
121.270    572.000    574.634     -2.634    464.924    565.063    464.924    474.511    464.924
121.370    554.140    575.967    -21.826    465.494    566.526    465.494    474.951    465.494
121.470    606.385    577.947     28.439    466.073    568.625    466.073    475.414    466.073
121.570    593.000    580.512     12.488    466.663    571.298    466.663    475.897    466.663
121.670    569.000    583.597    -14.597    467.262    574.482    467.262    476.400    467.262
121.770    617.457    587.133     30.324    467.872    578.107    467.872    476.923    467.872
121.870    600.000    591.042      8.958    468.492    582.096    468.492    477.465    468.492
121.970    623.000    595.240     27.760    469.123    586.368    469.123    478.025    469.123
122.070    586.541    599.638    -13.097    469.764    590.832    469.764    478.602    469.764
122.170    566.851    604.136    -37.285    470.415    595.393    470.415    479.195    470.415
122.270    584.349    608.632    -24.283    471.077    599.945    471.077    479.803    471.077
122.370    614.728    613.014      1.714    471.750    604.381    471.750    480.426    471.750
122.470    662.442    617.171     45.271    472.434    608.589    472.434    481.060    472.434
122.570    631.000    620.989     10.011    473.128    612.458    473.128    481.707    473.128
122.670    670.709    624.359     46.350    473.833    615.880    473.833    482.363    473.833
122.770    622.000    627.181     -5.181    474.550    618.755    474.550    483.028    474.550
122.870    658.000    629.369     28.631    475.277    621.000    475.277    483.701    475.277
122.970    629.000    630.857     -1.857    476.016    622.549    476.016    484.380    476.016
123.070    647.000    631.603     15.397    476.766    623.362    476.766    485.063    476.766
123.170    625.000    631.592     -6.592    477.527    623.425    477.527    485.751    477.527
123.270    714.000    630.834     83.166    478.300    622.749    478.300    486.441    478.300
123.370    603.399    629.363    -25.965    479.084    621.369    479.084    487.135    479.084
123.470    592.488    627.234    -34.745    479.880    619.339    479.880    487.830    479.880
123.570    641.921    624.513     17.408    480.687    616.726    480.687    488.527    480.687
123.670    596.000    621.278    -25.278    481.507    613.609    481.507    489.227    481.507
123.770    601.000    617.612    -16.612    482.338    610.069    482.338    489.929    482.338
123.870    644.000    613.599     30.401    483.181    606.191    483.181    490.635    483.181
123.970    654.000    609.323     44.677    484.036    602.057    484.036    491.345    484.036
124.070    602.000    604.864     -2.864    484.903    597.746    484.903    492.061    484.903
124.170    592.000    600.297     -8.297    485.782    593.333    485.782    492.784    485.782
124.270    592.000    595.691     -3.691    486.674    588.885    486.674    493.514    486.674
124.370    575.545    591.106    -15.561    487.578    584.461    487.578    494.254    487.578
124.470    610.000    586.595     23.405    488.494    580.113    488.494    495.004    488.494
124.570    624.330    582.201     42.129    489.423    575.884    489.423    495.765    489.423
124.670    570.000    577.960     -7.960    490.365    571.807    490.365    496.539    490.365
124.770    547.000    573.898    -26.898    491.319    567.910    491.319    497.326    491.319
124.870    598.000    570.038     27.962    492.286    564.212    492.286    498.128    492.286
124.970    533.000    566.394    -33.394    493.266    560.729    493.266    498.944    493.266
