neutron_powder_diffraction_0152
R_wp: 3.963
Temperature (K): 1074.000
Counts: 83836.00
Wavelength (Ã…): 2.52098
COMMENTS
Test file for demonstrating the .xyy file format in Reel1.0
END OF HEADER
   tth       Y_obs     Y_calc      Y_res    Background    Phase_1_Nuc    Phase_1_Mag    Phase_2_Nuc    Phase_2_Mag
  9.970    607.000    573.050     33.950    572.190    572.980    572.190    572.259    572.190
 10.070    583.965    573.131     10.834    572.202    573.061    572.202    572.272    572.202
 10.170    584.000    573.218     10.782    572.209    573.147    572.209    572.279    572.209
 10.270    610.000    573.312     36.688    572.212    573.241    572.212    572.282    572.212
 10.370    599.702    573.415     26.287    572.209    573.344    572.209    572.279    572.209
 10.470    534.437    573.534    -39.097    572.201    573.462    572.201    572.272    572.201
 10.570    603.948    573.669     30.279    572.189    573.597    572.189    572.260    572.189
 10.670    590.474    573.828     16.646    572.172    573.756    572.172    572.243    572.172
 10.770    529.816    574.018    -44.203    572.150    573.945    572.150    572.222    572.150
 10.870    570.000    574.251     -4.251    572.124    574.178    572.124    572.196    572.124
 10.970    624.000    574.543     49.457    572.093    574.469    572.093    572.165    572.093
 11.070    604.059    574.910     29.149    572.058    574.836    572.058    572.130    572.058
 11.170    599.000    575.386     23.614    572.018    575.312    572.018    572.090    572.018
 11.270    570.341    576.020     -5.679    571.973    575.945    571.973    572.046    571.973
 11.370    609.000    576.899     32.101    571.924    576.823    571.924    571.998    571.924
 11.470    575.294    578.221     -2.927    571.871    578.144    571.871    571.945    571.871
 11.570    580.273    580.501     -0.227    571.813    580.422    571.813    571.887    571.813
 11.670    605.587    584.993     20.594    571.752    584.911    571.752    571.826    571.752
 11.770    614.399    594.172     20.227    571.685    594.085    571.685    571.760    571.685
 11.870    632.000    611.409     20.591    571.615    611.311    571.615    571.690    571.615
 11.970    662.000    638.655     23.345    571.541    638.541    571.541    571.616    571.541
 12.070    690.000    671.920     18.080    571.462    671.788    571.462    571.538    571.462
 12.170    720.000    697.327     22.673    571.380    697.181    571.380    571.456    571.380
 12.270    673.000    698.061    -25.061    571.293    697.913    571.293    571.370    571.293
 12.370    654.708    673.419    -18.711    571.203    673.284    571.203    571.280    571.203
 12.470    632.000    639.906     -7.906    571.108    639.791    571.108    571.185    571.108
 12.570    647.506    611.970     35.536    571.010    611.870    571.010    571.088    571.010
 12.670    619.000    594.054     24.946    570.908    593.963    570.908    570.986    570.908
 12.770    573.000    584.377    -11.377    570.802    584.292    570.802    570.880    570.802
 12.870    579.612    579.553      0.059    570.692    579.470    570.692    570.771    570.692
 12.970    583.000    577.036      5.964    570.579    576.953    570.579    570.658    570.579
 13.070    575.000    575.515     -0.515    570.462    575.433    570.462    570.541    570.462
 13.170    537.000    574.453    -37.453    570.341    574.371    570.341    570.421    570.341
 13.270    555.922    573.644    -17.721    570.217    573.562    570.217    570.297    570.217
 13.370    587.730    572.996     14.734    570.089    572.914    570.089    570.170    570.089
 13.470    555.000    572.462    -17.462    569.958    572.380    569.958    570.039    569.958
 13.570    602.713    572.008     30.705    569.823    571.926    569.823    569.905    569.823
 13.670    582.527    571.612     10.915    569.685    571.529    569.685    569.767    569.685
 13.770    527.907    571.259    -43.352    569.544    571.176    569.544    569.626    569.544
 13.870    589.000    570.940     18.060    569.399    570.856    569.399    569.482    569.399
 13.970    583.223    570.646     12.577    569.251    570.562    569.251    569.334    569.251
 14.070    544.420    570.372    -25.952    569.100    570.288    569.100    569.183    569.100
 14.170    588.000    570.113     17.887    568.945    570.028    568.945    569.029    568.945
 14.270    560.000    569.866     -9.866    568.788    569.781    568.788    568.872    568.788
 14.370    606.000    569.628     36.372    568.627    569.543    568.627    568.711    568.627
 14.470    576.005    569.397      6.608    568.463    569.311    568.463    568.548    568.463
 14.570    539.000    569.172    -30.172    568.296    569.086    568.296    568.382    568.296
 14.670    557.000    568.950    -11.950    568.126    568.864    568.126    568.212    568.126
 14.770    581.000    568.732     12.268    567.953    568.646    567.953    568.040    567.953
 14.870    522.156    568.517    -46.360    567.777    568.430    567.777    567.864    567.777
 14.970    535.539    568.303    -32.764    567.599    568.215    567.599    567.686    567.599
 15.070    548.033    568.090    -20.057    567.417    568.002    567.417    567.505    567.417
 15.170    546.646    567.878    -21.231    567.233    567.789    567.233    567.321    567.233
 15.270    544.000    567.666    -23.666    567.046    567.577    567.046    567.134    567.046
 15.370    580.666    567.454     13.212    566.856    567.365    566.856    566.945    566.856
 15.470    598.000    567.243     30.757    566.663    567.153    566.663    566.753    566.663
 15.570    616.000    567.031     48.969    566.468    566.939    566.468    566.560    566.468
 15.670    551.000    566.818    -15.818    566.270    566.724    566.270    566.364    566.270
 15.770    579.613    566.605     13.008    566.070    566.511    566.070    566.164    566.070
 15.870    543.087    566.389    -23.302    565.867    566.295    565.867    565.961    565.867
 15.970    562.000    566.172     -4.172    565.661    566.077    565.661    565.756    565.661
 16.070    569.000    565.953      3.047    565.453    565.858    565.453    565.549    565.453
 16.170    577.000    565.733     11.267    565.243    565.637    565.243    565.339    565.243
 16.270    562.000    565.512     -3.512    565.030    565.415    565.030    565.127    565.030
 16.370    511.000    565.289    -54.289    564.815    565.192    564.815    564.912    564.815
 16.470    574.638    565.065      9.573    564.597    564.967    564.597    564.695    564.597
 16.570    550.000    564.838    -14.838    564.377    564.740    564.377    564.476    564.377
 16.670    587.000    564.611     22.389    564.155    564.512    564.155    564.254    564.155
 16.770    557.140    564.382     -7.241    563.931    564.282    563.931    564.031    563.931
 16.870    555.000    564.151     -9.151    563.704    564.051    563.704    563.805    563.704
 16.970    526.000    563.919    -37.919    563.476    563.818    563.476    563.577    563.476
 17.070    565.000    563.685      1.315    563.245    563.583    563.245    563.347    563.245
 17.170    517.000    563.449    -46.449    563.012    563.347    563.012    563.114    563.012
 17.270    546.000    563.212    -17.212    562.777    563.109    562.777    562.880    562.777
 17.370    596.000    562.973     33.027    562.540    562.870    562.540    562.644    562.540
 17.470    520.797    562.733    -41.936    562.301    562.629    562.301    562.406    562.301
 17.570    590.000    562.491     27.509    562.061    562.386    562.061    562.165    562.061
 17.670    526.000    562.248    -36.248    561.818    562.143    561.818    561.923    561.818
 17.770    603.000    562.004     40.996    561.573    561.898    561.573    561.679    561.573
 17.870    531.630    561.759    -30.129    561.327    561.652    561.327    561.433    561.327
 17.970    559.000    561.525     -2.525    561.078    561.417    561.078    561.186    561.078
 18.070    555.000    561.286     -6.286    560.828    561.178    560.828    560.936    560.828
 18.170    541.000    561.037    -20.037    560.576    560.928    560.576    560.685    560.576
 18.270    600.000    560.785     39.215    560.323    560.675    560.323    560.432    560.323
 18.370    537.329    560.532    -23.203    560.067    560.421    560.067    560.178    560.067
 18.470    589.000    560.277     28.723    559.810    560.166    559.810    559.922    559.810
 18.570    503.000    560.021    -57.021    559.552    559.909    559.552    559.664    559.552
 18.670    593.000    559.764     33.236    559.291    559.651    559.291    559.405    559.291
 18.770    575.000    559.506     15.494    559.030    559.392    559.030    559.144    559.030
 18.870    556.000    559.246     -3.246    558.766    559.131    558.766    558.881    558.766
 18.970    512.934    558.986    -46.052    558.502    558.870    558.502    558.617    558.502
 19.070    579.000    558.724     20.276    558.235    558.607    558.235    558.352    558.235
 19.170    552.000    558.461     -6.461    557.968    558.343    557.968    558.085    557.968
 19.270    542.000    558.197    -16.197    557.699    558.078    557.699    557.817    557.699
 19.370    513.375    557.933    -44.558    557.428    557.813    557.428    557.548    557.428
 19.470    534.753    557.670    -22.917    557.156    557.549    557.156    557.277    557.156
 19.570    567.000    557.403      9.597    556.883    557.282    556.883    557.004    556.883
 19.670    538.794    557.135    -18.341    556.609    557.013    556.609    556.731    556.609
 19.770    580.000    556.867     23.133    556.333    556.743    556.333    556.456    556.333
 19.870    580.000    556.597     23.403    556.056    556.473    556.056    556.180    556.056
 19.970    551.000    556.329     -5.329    555.778    556.204    555.778    555.903    555.778
 20.070    590.596    556.062     34.534    555.499    555.936    555.499    555.625    555.499
 20.170    558.000    555.791      2.209    555.218    555.664    555.218    555.346    555.218
 20.270    573.273    555.519     17.754    554.937    555.391    554.937    555.065    554.937
 20.370    587.199    555.247     31.952    554.654    555.117    554.654    554.784    554.654
 20.470    541.825    554.975    -13.149    554.370    554.843    554.370    554.501    554.370
 20.570    584.000    554.703     29.297    554.085    554.570    554.085    554.218    554.085
 20.670    589.235    554.429     34.806    553.800    554.296    553.800    553.933    553.800
 20.770    548.000    554.156     -6.156    553.513    554.021    553.513    553.648    553.513
 20.870    526.000    553.882    -27.882    553.225    553.746    553.225    553.362    553.225
 20.970    555.000    553.617      1.383    552.937    553.479    552.937    553.074    552.937
 21.070    552.430    553.422     -0.992    552.647    553.283    552.647    552.786    552.647
 21.170    560.000    553.169      6.831    552.357    553.029    552.357    552.497    552.357
 21.270    568.000    552.898     15.102    552.066    552.756    552.066    552.208    552.066
 21.370    574.916    552.625     22.291    551.774    552.482    551.774    551.917    551.774
 21.470    557.000    552.354      4.646    551.481    552.208    551.481    551.626    551.481
 21.570    568.000    552.083     15.917    551.187    551.936    551.187    551.334    551.187
 21.670    520.836    551.813    -30.977    550.893    551.664    550.893    551.041    550.893
 21.770    585.000    551.544     33.456    550.598    551.394    550.598    550.748    550.598
 21.870    563.000    551.277     11.723    550.302    551.125    550.302    550.454    550.302
 21.970    545.000    551.012     -6.012    550.006    550.858    550.006    550.160    550.006
 22.070    550.655    550.753     -0.098    549.709    550.598    549.709    549.865    549.709
 22.170    538.000    550.538    -12.538    549.411    550.381    549.411    549.569    549.411
 22.270    592.852    550.299     42.553    549.113    550.140    549.113    549.273    549.113
 22.370    531.068    550.047    -18.979    548.814    549.886    548.814    548.976    548.814
 22.470    550.000    549.799      0.201    548.515    549.635    548.515    548.679    548.515
 22.570    526.000    549.557    -23.557    548.215    549.391    548.215    548.381    548.215
 22.670    544.646    549.339     -4.693    547.915    549.171    547.915    548.084    547.915
 22.770    590.000    549.134     40.866    547.614    548.964    547.614    547.785    547.614
 22.870    544.000    548.916     -4.916    547.313    548.744    547.313    547.487    547.313
 22.970    531.409    548.708    -17.299    547.012    548.533    547.012    547.188    547.012
 23.070    503.376    548.513    -45.138    546.710    548.335    546.710    546.888    546.710
 23.170    592.381    548.336     44.045    546.407    548.156    546.407    546.589    546.407
 23.270    537.000    548.181    -11.181    546.105    547.997    546.105    546.289    546.105
 23.370    567.000    548.053     18.947    545.802    547.867    545.802    545.989    545.802
 23.470    541.000    547.961     -6.961    545.499    547.772    545.499    545.689    545.499
 23.570    558.000    547.916     10.084    545.195    547.724    545.195    545.389    545.195
 23.670    523.265    547.935    -24.670    544.891    547.739    544.891    545.088    544.891
 23.770    542.000    548.047     -6.047    544.587    547.849    544.587    544.788    544.587
 23.870    547.000    548.297     -1.297    544.283    548.094    544.283    544.487    544.283
 23.970    554.000    548.747      5.253    543.979    548.542    543.979    544.187    543.979
 24.070    594.964    549.580     45.384    543.674    549.371    543.674    543.886    543.674
 24.170    549.000    551.267     -2.267    543.369    551.056    543.369    543.586    543.369
 24.270    598.548    554.825     43.723    543.065    554.611    543.065    543.286    543.065
 24.370    552.639    561.962     -9.323    542.760    561.749    542.760    542.985    542.760
 24.470    537.785    574.552    -36.767    542.455    574.343    542.455    542.685    542.455
 24.570    652.000    592.951     59.049    542.150    592.750    542.150    542.386    542.150
 24.670    646.000    613.396     32.604    541.845    613.205    541.845    542.086    541.845
 24.770    579.000    626.469    -47.469    541.540    626.282    541.540    541.787    541.540
 24.870    635.000    623.238     11.762    541.235    623.043    541.235    541.488    541.235
 24.970    571.000    606.095    -35.095    540.929    605.881    540.929    541.189    540.929
 25.070    643.000    585.210     57.790    540.625    584.974    540.625    540.891    540.625
 25.170    578.000    568.087      9.913    540.320    567.831    540.320    540.594    540.320
 25.270    604.000    556.887     47.113    540.015    556.616    540.015    540.297    540.015
 25.370    529.344    550.569    -21.225    539.710    550.285    539.710    540.000    539.710
 25.470    560.145    547.223     12.922    539.406    546.928    539.406    539.705    539.406
 25.570    529.000    545.364    -16.364    539.101    545.058    539.101    539.410    539.101
 25.670    530.637    544.182    -13.545    538.797    543.866    538.797    539.116    538.797
 25.770    530.000    543.351    -13.351    538.493    543.023    538.493    538.822    538.493
 25.870    505.000    542.699    -37.699    538.189    542.360    538.189    538.530    538.189
 25.970    559.496    542.148     17.348    537.885    541.796    537.885    538.239    537.885
 26.070    560.899    541.687     19.212    537.582    541.321    537.582    537.949    537.582
 26.170    551.000    541.298      9.702    537.279    540.916    537.279    537.661    537.279
 26.270    520.000    540.969    -20.969    536.976    540.571    536.976    537.374    536.976
 26.370    568.000    540.704     27.296    536.674    540.290    536.674    537.089    536.674
 26.470    511.645    540.500    -28.855    536.371    540.066    536.371    536.805    536.371
 26.570    524.106    540.322    -16.216    536.070    539.867    536.070    536.524    536.070
 26.670    545.000    540.193      4.807    535.768    539.716    535.768    536.245    535.768
 26.770    546.000    540.122      5.878    535.467    539.620    535.467    535.969    535.467
 26.870    497.546    540.121    -42.575    535.166    539.592    535.166    535.696    535.166
 26.970    549.000    540.198      8.802    534.866    539.638    534.866    535.425    534.866
 27.070    517.424    540.384    -22.959    534.566    539.790    534.566    535.159    534.566
 27.170    508.000    540.697    -32.697    534.267    540.066    534.267    534.897    534.267
 27.270    592.000    541.172     50.828    533.968    540.499    533.968    534.640    533.968
 27.370    553.000    541.885     11.115    533.669    541.164    533.669    534.389    533.669
 27.470    557.000    542.957     14.043    533.371    542.183    533.371    534.144    533.371
 27.570    554.155    544.714      9.441    533.074    543.878    533.074    533.907    533.074
 27.670    598.000    548.391     49.609    532.777    547.485    532.777    533.680    532.777
 27.770    536.156    558.523    -22.367    532.480    557.534    532.480    533.463    532.480
 27.870    612.032    587.383     24.649    532.184    586.291    532.184    533.259    532.184
 27.970    670.000    655.228     14.772    531.889    654.006    531.889    533.071    531.889
 28.070    753.000    772.232    -19.232    531.594    770.849    531.594    532.903    531.594
 28.170    864.616    904.587    -39.971    531.300    903.023    531.300    532.759    531.300
 28.270    949.000    969.637    -20.637    531.007    967.895    531.007    532.646    531.007
 28.370    952.000    913.803     38.197    530.714    911.879    530.714    532.573    530.714
 28.470    799.000    793.727      5.273    530.422    791.567    530.422    532.556    530.422
 28.570    677.000    701.503    -24.503    530.130    699.006    530.130    532.616    530.130
 28.670    683.000    684.033     -1.033    529.839    681.069    529.839    532.788    529.839
 28.770    717.000    734.396    -17.396    529.549    730.805    529.549    533.120    529.549
 28.870    856.370    808.595     47.775    529.260    804.162    529.260    533.678    529.260
 28.970    809.000    843.652    -34.652    528.971    838.078    528.971    534.545    528.971
 29.070    756.450    803.128    -46.679    528.683    796.011    528.683    535.812    528.683
 29.170    649.000    719.149    -70.149    528.396    709.997    528.396    537.561    528.396
 29.270    613.000    641.809    -28.809    528.110    630.098    528.110    539.829    528.110
 29.370    600.000    593.839      6.161    527.824    579.130    527.824    542.537    527.824
 29.470    624.000    572.026     51.974    527.539    554.201    527.539    545.365    527.539
 29.570    573.003    564.197      8.806    527.255    543.814    527.255    547.637    527.255
 29.670    572.570    560.905     11.665    526.972    539.401    526.972    548.474    526.972
 29.770    569.000    557.796     11.204    526.690    537.093    526.690    547.393    526.690
 29.870    537.000    553.949    -16.949    526.408    535.604    526.408    544.753    526.408
 29.970    569.255    549.846     19.409    526.128    534.562    526.128    541.410    526.128
 30.070    563.000    546.098     16.902    525.848    533.854    525.848    538.090    525.848
 30.170    583.000    543.065     39.935    525.569    533.461    525.569    535.171    525.569
 30.270    621.000    540.977     80.023    525.291    533.499    525.291    532.767    525.291
 30.370    555.708    540.261     15.447    525.014    534.417    525.014    530.854    525.014
 30.470    596.000    542.022     53.978    524.738    537.396    524.738    529.358    524.738
 30.570    592.000    548.367     43.633    524.463    544.630    524.463    528.187    524.463
 30.670    597.000    561.596     35.404    524.188    558.505    524.188    527.257    524.188
 30.770    545.000    581.529    -36.529    523.915    578.909    523.915    526.497    523.915
 30.870    637.000    602.157     34.843    523.643    599.891    523.643    525.857    523.643
 30.970    576.000    611.535    -35.535    523.372    609.550    523.372    525.300    523.372
 31.070    621.000    601.841     19.159    523.101    600.094    523.101    524.802    523.101
 31.170    538.290    580.320    -42.030    522.832    578.775    522.832    524.348    522.832
 31.270    604.000    558.909     45.091    522.564    557.530    522.564    523.926    522.564
 31.370    576.000    543.867     32.133    522.297    542.625    522.297    523.531    522.297
 31.470    545.285    535.527      9.758    522.030    534.397    522.030    523.156    522.030
 31.570    553.600    531.550     22.050    521.765    530.515    521.765    522.798    521.765
 31.670    526.000    529.694     -3.694    521.501    528.739    521.501    522.454    521.501
 31.770    572.926    528.706     44.220    521.238    527.821    521.238    522.122    521.238
 31.870    558.000    528.083     29.917    520.976    527.258    520.976    521.799    520.976
 31.970    501.943    527.651    -25.707    520.716    526.879    520.716    521.486    520.716
 32.070    513.766    527.352    -13.587    520.456    526.627    520.456    521.180    520.456
 32.170    526.626    527.167     -0.541    520.197    526.483    520.197    520.880    520.197
 32.270    523.000    527.089     -4.089    519.940    526.441    519.940    520.586    519.940
 32.370    573.000    527.118     45.882    519.684    526.503    519.684    520.298    519.684
 32.470    541.000    527.265     13.735    519.429    526.679    519.429    520.014    519.429
 32.570    547.000    527.545     19.455    519.175    526.985    519.175    519.734    519.175
 32.670    542.042    527.985     14.057    518.922    527.448    518.922    519.458    518.922
 32.770    492.207    528.624    -36.417    518.670    528.108    518.670    519.185    518.670
 32.870    500.018    529.518    -29.500    518.420    529.021    518.420    518.915    518.420
 32.970    594.000    530.750     63.250    518.170    530.270    518.170    518.649    518.170
 33.070    508.689    532.450    -23.761    517.922    531.986    517.922    518.385    517.922
 33.170    522.000    534.860    -12.860    517.676    534.409    517.676    518.124    517.676
 33.270    542.220    538.545      3.675    517.430    538.106    517.430    517.866    517.430
 33.370    550.000    545.043      4.957    517.186    544.615    517.186    517.610    517.186
 33.470    551.000    558.323     -7.323    516.942    557.903    516.942    517.356    516.942
 33.570    572.000    586.779    -14.779    516.701    586.363    516.701    517.104    516.701
 33.670    604.218    643.315    -39.097    516.460    642.899    516.460    516.854    516.460
 33.770    728.000    739.121    -11.121    516.221    738.697    516.221    516.607    516.221
 33.870    920.940    869.648     51.292    515.982    869.214    515.982    516.361    515.982
 33.970    996.000    999.369     -3.369    515.746    998.931    515.746    516.118    515.746
 34.070   1094.630   1062.582     32.049    515.510   1062.159    515.510    515.876    515.510
 34.170   1028.000   1015.150     12.850    515.276   1014.760    515.276    515.636    515.276
 34.270    887.000    891.607     -4.607    515.043    891.246    515.043    515.397    515.043
 34.370    751.000    757.958     -6.958    514.811    757.615    514.811    515.161    514.811
 34.470    653.000    655.160     -2.160    514.581    654.823    514.581    514.926    514.581
 34.570    579.926    592.062    -12.137    514.352    591.727    514.352    514.693    514.352
 34.670    577.000    559.161     17.839    514.124    558.826    514.124    514.462    514.124
 34.770    521.046    543.358    -22.312    513.898    543.025    513.898    514.232    513.898
 34.870    519.000    535.467    -16.467    513.673    535.136    513.673    514.004    513.673
 34.970    550.000    530.893     19.107    513.449    530.564    513.449    513.778    513.449
 35.070    528.000    527.784      0.216    513.227    527.457    513.227    513.553    513.227
 35.170    490.000    525.452    -35.452    513.006    525.128    513.006    513.330    513.006
 35.270    515.000    523.616     -8.616    512.787    523.293    512.787    513.109    512.787
 35.370    543.557    522.128     21.428    512.569    521.808    512.569    512.889    512.569
 35.470    521.000    520.899      0.101    512.352    520.580    512.352    512.670    512.352
 35.570    542.185    519.865     22.320    512.137    519.547    512.137    512.454    512.137
 35.670    551.000    518.981     32.019    511.923    518.665    511.923    512.238    511.923
 35.770    516.856    518.216     -1.361    511.710    517.901    511.710    512.025    511.710
 35.870    580.000    517.547     62.453    511.499    517.233    511.499    511.813    511.499
 35.970    550.557    516.955     33.602    511.289    516.641    511.289    511.603    511.289
 36.070    524.000    516.428      7.572    511.081    516.115    511.081    511.394    511.081
 36.170    520.000    515.953      4.047    510.874    515.640    510.874    511.186    510.874
 36.270    486.723    515.526    -28.802    510.668    515.213    510.668    510.981    510.668
 36.370    473.000    515.145    -42.145    510.464    514.832    510.464    510.777    510.464
 36.470    474.146    514.804    -40.658    510.262    514.492    510.262    510.574    510.262
 36.570    530.000    514.503     15.497    510.061    514.191    510.061    510.373    510.061
 36.670    460.000    514.246    -54.246    509.861    513.933    509.861    510.174    509.861
 36.770    515.303    514.042      1.261    509.663    513.729    509.663    509.976    509.663
 36.870    500.583    513.921    -13.337    509.466    513.607    509.466    509.780    509.466
 36.970    550.928    513.947     36.981    509.271    513.633    509.271    509.585    509.271
 37.070    541.753    514.248     27.504    509.077    513.933    509.077    509.392    509.077
 37.170    518.000    515.023      2.977    508.884    514.707    508.884    509.200    508.884
 37.270    533.761    516.501     17.260    508.693    516.184    508.693    509.010    508.693
 37.370    488.694    518.814    -30.120    508.504    518.497    508.504    508.822    508.504
 37.470    479.000    521.804    -42.804    508.316    521.486    508.316    508.635    508.316
 37.570    536.000    524.812     11.188    508.129    524.494    508.129    508.450    508.129
 37.670    492.093    526.678    -34.585    507.944    526.360    507.944    508.267    507.944
 37.770    513.864    526.458    -12.594    507.761    526.141    507.761    508.084    507.761
 37.870    543.000    524.372     18.628    507.579    524.055    507.579    507.904    507.579
 37.970    553.513    521.420     32.093    507.398    521.103    507.398    507.725    507.398
 38.070    526.000    518.410      7.590    507.219    518.092    507.219    507.548    507.219
 38.170    498.000    515.738    -17.738    507.042    515.416    507.042    507.372    507.042
 38.270    514.000    513.605      0.395    506.866    513.279    506.866    507.198    506.866
 38.370    449.000    512.059    -63.059    506.691    511.729    506.691    507.026    506.691
 38.470    488.000    511.009    -23.009    506.518    510.675    506.518    506.855    506.518
 38.570    533.369    510.313     23.056    506.347    509.975    506.347    506.686    506.347
 38.670    484.000    509.840    -25.840    506.177    509.499    506.177    506.518    506.177
 38.770    506.000    509.493     -3.493    506.009    509.150    506.009    506.353    506.009
 38.870    516.930    509.216      7.714    505.842    508.870    505.842    506.188    505.842
 38.970    504.000    508.977     -4.977    505.676    508.629    505.676    506.026    505.676
 39.070    524.000    508.763     15.237    505.513    508.412    505.513    505.865    505.513
 39.170    500.000    508.566     -8.566    505.350    508.212    505.350    505.705    505.350
 39.270    500.000    508.384     -8.384    505.190    508.026    505.190    505.547    505.190
 39.370    547.800    508.213     39.586    505.030    507.853    505.030    505.391    505.030
 39.470    511.971    508.053      3.918    504.873    507.689    504.873    505.237    504.873
 39.570    532.000    507.903     24.097    504.716    507.536    504.716    505.084    504.716
 39.670    488.000    507.761    -19.761    504.562    507.391    504.562    504.933    504.562
 39.770    473.133    507.629    -34.496    504.409    507.255    504.409    504.783    504.409
 39.870    536.000    507.505     28.495    504.257    507.127    504.257    504.635    504.257
 39.970    479.000    507.389    -28.389    504.107    507.008    504.107    504.489    504.107
 40.070    536.000    507.282     28.718    503.959    506.897    503.959    504.344    503.959
 40.170    523.685    507.185     16.501    503.812    506.795    503.812    504.202    503.812
 40.270    473.096    507.097    -34.001    503.667    506.704    503.667    504.060    503.667
 40.370    528.788    507.020     21.767    503.523    506.623    503.523    503.921    503.523
 40.470    547.135    506.955     40.180    503.381    506.553    503.381    503.783    503.381
 40.570    487.000    506.903    -19.903    503.240    506.497    503.240    503.647    503.240
 40.670    515.000    506.867      8.133    503.101    506.455    503.101    503.513    503.101
 40.770    546.049    506.847     39.202    502.963    506.431    502.963    503.380    502.963
 40.870    516.000    506.848      9.152    502.827    506.427    502.827    503.249    502.827
 40.970    528.814    506.873     21.940    502.693    506.447    502.693    503.120    502.693
 41.070    480.557    506.928    -26.370    502.560    506.496    502.560    502.992    502.560
 41.170    462.000    507.018    -45.018    502.428    506.581    502.428    502.866    502.428
 41.270    480.000    507.153    -27.153    502.298    506.710    502.298    502.742    502.298
 41.370    482.463    507.345    -24.882    502.170    506.897    502.170    502.620    502.170
 41.470    476.000    507.611    -31.611    502.043    507.157    502.043    502.499    502.043
 41.570    492.000    507.980    -15.980    501.918    507.519    501.918    502.380    501.918
 41.670    453.000    508.505    -55.505    501.795    508.038    501.795    502.263    501.795
 41.770    533.803    509.304     24.499    501.673    508.831    501.673    502.148    501.673
 41.870    457.000    510.654    -53.654    501.552    510.175    501.552    502.034    501.552
 41.970    527.000    513.152     13.848    501.433    512.667    501.433    501.922    501.433
 42.070    519.000    517.910      1.090    501.316    517.420    501.316    501.812    501.316
 42.170    529.856    526.582      3.274    501.200    526.087    501.200    501.704    501.200
 42.270    566.668    540.909     25.759    501.085    540.413    501.085    501.598    501.085
 42.370    559.000    561.602     -2.602    500.973    561.107    500.973    501.494    500.973
 42.470    543.000    586.787    -43.787    500.861    586.298    500.861    501.391    500.861
 42.570    604.000    610.701     -6.701    500.752    610.216    500.752    501.290    500.752
 42.670    634.000    624.251      9.749    500.644    623.766    500.644    501.191    500.644
 42.770    631.000    620.588     10.412    500.537    620.094    500.537    501.094    500.537
 42.870    622.000    601.783     20.217    500.432    601.272    500.432    500.999    500.432
 42.970    615.083    576.424     38.659    500.328    575.889    500.328    500.906    500.328
 43.070    532.000    552.491    -20.491    500.226    551.933    500.226    500.815    500.226
 43.170    522.000    534.130    -12.130    500.126    533.549    500.126    500.726    500.126
 43.270    518.000    522.036     -4.036    500.027    521.436    500.027    500.639    500.027
 43.370    518.356    514.946      3.410    499.930    514.330    499.930    500.553    499.930
 43.470    476.000    511.079    -35.079    499.834    510.447    499.834    500.470    499.834
 43.570    492.000    508.982    -16.982    499.740    508.335    499.740    500.389    499.740
 43.670    505.989    507.761     -1.772    499.647    507.100    499.647    500.310    499.647
 43.770    549.000    506.965     42.035    499.556    506.289    499.556    500.233    499.556
 43.870    477.000    506.390    -29.390    499.466    505.699    499.466    500.159    499.466
 43.970    514.129    505.950      8.180    499.378    505.242    499.378    500.086    499.378
 44.070    507.000    505.602      1.398    499.291    504.877    499.291    500.016    499.291
 44.170    511.000    505.323      5.677    499.206    504.581    499.206    499.948    499.206
 44.270    530.000    505.099     24.901    499.122    504.339    499.122    499.883    499.122
 44.370    480.000    504.919    -24.919    499.040    504.139    499.040    499.820    499.040
 44.470    502.377    504.775     -2.398    498.959    503.975    498.959    499.759    498.959
 44.570    524.000    504.662     19.338    498.880    503.841    498.880    499.702    498.880
 44.670    516.000    504.575     11.425    498.802    503.732    498.802    499.646    498.802
 44.770    525.516    504.512     21.004    498.726    503.645    498.726    499.594    498.726
 44.870    492.000    504.470    -12.470    498.652    503.578    498.652    499.544    498.652
 44.970    531.140    504.448     26.692    498.579    503.530    498.579    499.497    498.579
 45.070    511.184    504.445      6.739    498.507    503.498    498.507    499.453    498.507
 45.170    500.000    504.459     -4.459    498.437    503.483    498.437    499.413    498.437
 45.270    494.000    504.491    -10.491    498.368    503.483    498.368    499.376    498.368
 45.370    488.315    504.541    -16.226    498.301    503.499    498.301    499.342    498.301
 45.470    507.000    504.608      2.392    498.235    503.531    498.235    499.312    498.235
 45.570    466.707    504.694    -37.987    498.171    503.579    498.171    499.286    498.171
 45.670    494.000    504.801    -10.801    498.108    503.645    498.108    499.264    498.108
 45.770    548.087    504.928     43.159    498.047    503.728    498.047    499.246    498.047
 45.870    538.414    505.078     33.336    497.987    503.832    497.987    499.233    497.987
 45.970    478.000    505.254    -27.254    497.928    503.957    497.928    499.225    497.928
 46.070    463.000    505.458    -42.458    497.872    504.107    497.872    499.222    497.872
 46.170    485.000    505.695    -20.695    497.816    504.285    497.816    499.226    497.816
 46.270    514.604    505.969      8.635    497.762    504.495    497.762    499.235    497.762
 46.370    509.377    506.286      3.091    497.709    504.743    497.709    499.252    497.709
 46.470    541.114    506.656     34.459    497.658    505.037    497.658    499.276    497.658
 46.570    505.000    507.089     -2.089    497.609    505.388    497.609    499.308    497.609
 46.670    532.000    507.604     24.396    497.560    505.814    497.560    499.350    497.560
 46.770    505.600    508.234     -2.634    497.513    506.344    497.513    499.401    497.513
 46.870    545.000    509.040     35.960    497.468    507.041    497.468    499.465    497.468
 46.970    509.193    510.183     -0.990    497.424    508.063    497.424    499.541    497.424
 47.070    489.702    511.952    -22.250    497.381    509.697    497.381    499.632    497.381
 47.170    530.303    514.868     15.435    497.340    512.462    497.340    499.740    497.340
 47.270    545.000    519.709     25.291    497.300    517.134    497.300    499.866    497.300
 47.370    541.000    527.370     13.630    497.262    524.602    497.262    500.016    497.262
 47.470    536.000    538.467     -2.467    497.225    535.478    497.225    500.191    497.225
 47.570    559.000    552.743      6.257    497.189    549.504    497.189    500.396    497.189
 47.670    562.210    568.461     -6.251    497.155    564.934    497.155    500.638    497.155
 47.770    617.000    582.055     34.945    497.122    578.202    497.122    500.923    497.122
 47.870    619.746    588.880     30.866    497.091    584.654    497.091    501.261    497.091
 47.970    601.000    586.222     14.778    497.061    581.564    497.061    501.668    497.061
 48.070    607.000    575.936     31.064    497.032    570.765    497.032    502.161    497.032
 48.170    600.241    562.557     37.683    497.005    556.758    497.005    502.772    497.005
 48.270    541.000    550.088     -9.088    496.979    543.499    496.979    503.546    496.979
 48.370    545.000    540.804      4.196    496.954    533.195    496.954    504.549    496.954
 48.470    536.608    535.415      1.193    496.931    526.458    496.931    505.878    496.931
 48.570    557.810    533.650     24.161    496.909    522.884    496.909    507.668    496.909
 48.670    508.000    534.874    -26.874    496.888    521.667    496.888    510.091    496.888
 48.770    578.250    538.544     39.705    496.869    522.059    496.869    513.350    496.869
 48.870    545.000    544.388      0.612    496.851    523.575    496.851    517.660    496.851
 48.970    553.694    552.397      1.297    496.834    526.025    496.834    523.202    496.834
 49.070    529.000    562.773    -33.773    496.818    529.520    496.818    530.068    496.818
 49.170    554.000    576.016    -22.016    496.804    534.657    496.804    538.159    496.804
 49.270    570.000    593.441    -23.441    496.792    543.172    496.792    547.054    496.792
 49.370    601.000    618.591    -17.591    496.780    559.538    496.780    555.822    496.780
 49.470    676.000    659.976     16.024    496.770    593.792    496.770    562.932    496.770
 49.570    719.000    734.662    -15.662    496.761    664.786    496.761    566.594    496.761
 49.670    883.000    869.644     13.356    496.753    800.641    496.753    565.678    496.753
 49.770   1154.954   1094.845     60.109    496.747   1030.970    496.747    560.497    496.747
 49.870   1468.000   1423.888     44.112    496.742   1367.899    496.742    552.563    496.742
 49.970   1899.890   1828.592     71.298    496.738   1781.519    496.738    543.626    496.738
 50.070   2205.000   2224.004    -19.004    496.735   2185.602    496.735    534.983    496.735
 50.170   2409.608   2483.950    -74.342    496.734   2453.271    496.734    527.350    496.734
 50.270   2501.865   2501.647      0.218    496.734   2477.433    496.734    521.006    496.734
 50.370   2254.000   2266.860    -12.860    496.735   2247.782    496.735    515.964    496.735
 50.470   1901.000   1875.653     25.347    496.737   1860.488    496.737    512.090    496.737
 50.570   1410.694   1458.087    -47.393    496.741   1445.817    496.741    509.186    496.741
 50.670   1060.598   1109.709    -49.111    496.745   1099.553    496.745    507.037    496.745
 50.770    832.983    869.043    -36.060    496.751    860.436    496.751    505.451    496.751
 50.870    709.000    728.163    -19.163    496.758    720.714    496.758    504.270    496.758
 50.970    697.000    656.784     40.216    496.767    650.220    496.767    503.375    496.767
 51.070    623.789    623.242      0.547    496.776    617.372    496.776    502.682    496.776
 51.170    627.000    605.120     21.880    496.787    599.807    496.787    502.132    496.787
 51.270    602.000    591.081     10.919    496.798    586.220    496.798    501.687    496.798
 51.370    589.876    577.754     12.122    496.811    573.266    496.811    501.322    496.811
 51.470    533.000    565.357    -32.357    496.826    561.180    496.826    501.019    496.826
 51.570    591.000    554.810     36.190    496.841    550.898    496.841    500.766    496.841
 51.670    569.000    546.680     22.320    496.857    542.992    496.857    500.554    496.857
 51.770    574.248    541.019     33.229    496.875    537.524    496.875    500.376    496.875
 51.870    540.230    537.523      2.708    496.894    534.193    496.894    500.228    496.894
 51.970    520.985    535.745    -14.760    496.913    532.558    496.913    500.104    496.913
 52.070    571.000    535.288     35.712    496.934    532.222    496.934    500.003    496.934
 52.170    531.000    535.913     -4.913    496.956    532.951    496.956    499.920    496.956
 52.270    498.662    537.606    -38.943    496.979    534.732    496.979    499.855    496.979
 52.370    542.000    540.659      1.341    497.003    537.860    497.003    499.804    497.003
 52.470    535.886    545.865     -9.979    497.029    543.128    497.029    499.767    497.029
 52.570    599.000    554.841     44.159    497.055    552.154    497.055    499.742    497.055
 52.670    568.425    570.449     -2.024    497.082    567.803    497.082    499.728    497.082
 52.770    626.000    597.059     28.941    497.111    594.444    497.111    499.724    497.111
 52.870    606.546    640.211    -33.665    497.140    637.618    497.140    499.730    497.140
 52.970    755.527    705.221     50.306    497.171    702.642    497.171    499.745    497.171
 53.070    791.777    794.595     -2.818    497.203    792.024    497.203    499.768    497.203
 53.170    960.559    904.771     55.788    497.235    902.203    497.235    499.800    497.235
 53.270   1044.675   1023.135     21.540    497.269   1020.565    497.269    499.838    497.269
 53.370   1102.000   1126.658    -24.658    497.303   1124.084    497.303    499.885    497.303
 53.470   1149.000   1185.976    -36.976    497.339   1183.395    497.339    499.938    497.339
 53.570   1207.000   1179.818     27.182    497.376   1177.224    497.376    499.999    497.376
 53.670   1068.000   1110.850    -42.850    497.413   1108.232    497.413    500.067    497.413
 53.770    977.535   1003.246    -25.711    497.452   1000.592    497.452    500.142    497.452
 53.870    862.000    885.763    -23.763    497.491    883.061    497.491    500.225    497.491
 53.970    735.358    779.512    -44.154    497.532    776.755    497.532    500.314    497.532
 54.070    709.153    695.275     13.878    497.573    692.456    497.573    500.411    497.573
 54.170    605.000    635.265    -30.265    497.616    632.378    497.616    500.516    497.616
 54.270    604.000    596.243      7.757    497.659    593.282    497.659    500.628    497.659
 54.370    571.000    572.714     -1.714    497.703    569.673    497.703    500.749    497.703
 54.470    552.396    559.298     -6.902    497.749    556.171    497.749    500.879    497.749
 54.570    597.000    551.908     45.092    497.795    548.688    497.795    501.017    497.795
 54.670    552.000    547.931      4.069    497.842    544.609    497.842    501.166    497.842
 54.770    567.613    545.907     21.706    497.890    542.474    497.890    501.324    497.890
 54.870    539.000    545.104     -6.104    497.938    541.550    497.938    501.494    497.938
 54.970    629.000    545.188     83.812    497.988    541.502    497.988    501.675    497.988
 55.070    540.316    546.025     -5.709    498.038    542.195    498.038    501.869    498.038
 55.170    588.478    547.582     40.896    498.090    543.595    498.090    502.077    498.090
 55.270    582.955    549.887     33.068    498.142    545.730    498.142    502.300    498.142
 55.370    568.000    553.030     14.970    498.195    548.686    498.195    502.540    498.195
 55.470    585.000    557.183     27.817    498.249    552.636    498.249    502.797    498.249
 55.570    579.480    562.693     16.786    498.304    557.924    498.304    503.074    498.304
 55.670    532.000    570.290    -38.290    498.359    565.276    498.359    503.373    498.359
 55.770    593.032    581.547     11.486    498.416    576.265    498.416    503.697    498.416
 55.870    579.000    599.734    -20.734    498.473    594.157    498.473    504.048    498.473
 55.970    651.000    631.106     19.894    498.531    625.201    498.531    504.429    498.531
 56.070    690.000    686.287      3.713    498.590    680.018    498.590    504.845    498.590
 56.170    774.024    780.803     -6.779    498.649    774.129    498.649    505.300    498.649
 56.270    849.000    933.162    -84.162    498.709    926.035    498.709    505.798    498.709
 56.370   1193.576   1159.112     34.464    498.770   1151.482    498.770    506.347    498.770
 56.470   1520.815   1462.275     58.540    498.832   1454.089    498.832    506.954    498.832
 56.570   1815.000   1823.838     -8.838    498.895   1815.045    498.895    507.627    498.895
 56.670   2207.000   2195.442     11.558    498.958   2185.987    498.958    508.378    498.958
 56.770   2427.000   2500.095    -73.095    499.022   2489.918    499.022    509.218    499.022
 56.870   2552.227   2651.044    -98.816    499.086   2640.063    499.086    510.166    499.086
 56.970   2593.183   2596.654     -3.471    499.152   2584.745    499.152    511.242    499.152
 57.070   2407.386   2357.941     49.445    499.218   2344.918    499.218    512.475    499.218
 57.170   2024.286   2011.333     12.953    499.285   1996.958    499.285    513.905    499.285
 57.270   1641.684   1641.578      0.106    499.352   1625.563    499.352    515.589    499.352
 57.370   1255.078   1311.292    -56.214    499.420   1293.278    499.420    517.613    499.420
 57.470   1041.000   1052.898    -11.898    499.489   1032.417    499.489    520.101    499.489
 57.570    865.593    872.571     -6.978    499.558    848.980    499.558    523.235    499.558
 57.670    760.000    759.664      0.336    499.628    732.071    499.628    527.273    499.628
 57.770    743.000    697.112     45.888    499.699    664.276    499.699    532.564    499.699
 57.870    689.000    669.226     19.774    499.770    629.456    499.770    539.552    499.770
 57.970    673.000    665.506      7.494    499.842    616.582    499.842    548.768    499.842
 58.070    726.903    681.151     45.752    499.914    620.272    499.914    560.785    499.914
 58.170    708.000    715.635     -7.635    499.987    639.452    499.987    576.153    499.987
 58.270    790.000    770.491     19.509    500.061    675.235    500.061    595.289    500.061
 58.370    834.000    846.962    -12.962    500.135    728.718    500.135    618.341    500.135
 58.470    967.763    943.891     23.872    500.210    799.052    500.210    645.002    500.210
 58.570   1038.000   1056.120    -18.120    500.285    882.105    500.285    674.251    500.285
 58.670   1103.000   1173.943    -70.943    500.361    970.251    500.361    704.008    500.361
 58.770   1217.000   1284.319    -67.318    500.437   1053.902    500.437    730.821    500.437
 58.870   1380.592   1373.875      6.717    500.514   1124.287    500.514    750.085    500.514
 58.970   1436.000   1431.008      4.992    500.591   1174.181    500.591    757.422    500.591
 59.070   1408.728   1447.036    -38.308    500.669   1196.818    500.669    750.911    500.669
 59.170   1400.368   1419.720    -19.352    500.747   1188.191    500.747    732.314    500.747
 59.270   1371.395   1357.373     14.022    500.826   1152.298    500.826    705.941    500.826
 59.370   1348.336   1277.215     71.121    500.906   1101.730    500.906    676.418    500.906
 59.470   1280.000   1198.697     81.303    500.985   1052.424    500.985    647.260    500.985
 59.570   1239.000   1139.145     99.855    501.066   1019.563    501.066    620.612    501.066
 59.670   1140.000   1113.258     26.742    501.146   1016.783    501.146    597.540    501.146
 59.770   1125.294   1131.683     -6.389    501.227   1054.395    501.227    578.380    501.227
 59.870   1126.958   1196.655    -69.698    501.309   1134.767    501.309    563.004    501.309
 59.970   1343.000   1297.926     45.074    501.391   1248.065    501.391    551.006    501.391
 60.070   1497.000   1411.817     85.183    501.473   1371.165    501.473    541.840    501.473
 60.170   1491.000   1504.211    -13.211    501.556   1470.536    501.556    534.933    501.556
 60.270   1580.000   1539.693     40.307    501.639   1511.302    501.639    529.754    501.639
 60.370   1464.000   1497.969    -33.969    501.723   1473.613    501.723    525.855    501.723
 60.470   1435.082   1385.916     49.166    501.806   1364.677    501.806    522.886    501.806
 60.570   1280.000   1231.232     48.768    501.891   1212.434    501.891    520.588    501.891
 60.670   1094.000   1066.259     27.741    501.975   1049.399    501.975    518.780    501.975
 60.770    945.000    916.616     28.384    502.060    901.310    502.060    517.341    502.060
 60.870    741.000    797.068    -56.068    502.145    783.013    502.145    516.190    502.145
 60.970    712.000    712.082     -0.082    502.231    699.033    502.231    515.275    502.231
 61.070    678.000    659.132     18.868    502.317    646.882    502.317    514.560    502.317
 61.170    678.000    633.001     44.999    502.403    621.372    502.403    514.019    502.403
 61.270    674.000    629.452     44.548    502.489    618.289    502.489    513.632    502.489
 61.370    648.000    647.272      0.728    502.576    636.441    502.576    513.375    502.576
 61.470    695.000    688.438      6.562    502.663    677.829    502.663    513.222    502.663
 61.570    723.000    756.570    -33.570    502.750    746.109    502.750    513.136    502.750
 61.670    833.000    854.071    -21.071    502.838    843.736    502.838    513.069    502.838
 61.770    944.000    978.693    -34.693    502.926    968.521    502.926    512.961    502.926
 61.870   1111.000   1120.582     -9.582    503.014   1110.671    503.014    512.759    503.014
 61.970   1303.150   1260.914     42.236    503.102   1251.401    503.102    512.432    503.102
 62.070   1325.000   1373.278    -48.278    503.190   1364.297    503.190    511.988    503.190
 62.170   1383.000   1429.992    -46.992    503.279   1421.644    503.279    511.467    503.279
 62.270   1334.000   1414.400    -80.400    503.368   1406.732    503.368    510.917    503.368
 62.370   1326.000   1331.002     -5.002    503.456   1324.006    503.456    510.379    503.456
 62.470   1244.893   1202.305     42.588    503.546   1195.934    503.546    509.881    503.546
 62.570   1021.185   1056.449    -35.263    503.635   1050.636    503.635    509.438    503.635
 62.670    951.000    917.165     33.835    503.724    911.838    503.724    509.057    503.724
 62.770    740.000    799.587    -59.587    503.814    794.675    503.814    508.737    503.814
 62.870    714.195    709.962      4.234    503.904    705.402    503.904    508.475    503.904
 62.970    658.236    647.538     10.698    503.993    643.275    503.993    508.263    503.993
 63.070    608.000    607.478      0.522    504.083    603.468    504.083    508.096    504.083
 63.170    568.224    583.675    -15.451    504.173    579.881    504.173    507.966    504.173
 63.270    603.279    570.691     32.588    504.263    567.085    504.263    507.866    504.263
 63.370    583.000    564.682     18.318    504.354    561.240    504.354    507.790    504.354
 63.470    615.000    563.560     51.440    504.444    560.262    504.444    507.735    504.444
 63.570    585.000    566.794     18.206    504.534    563.624    504.534    507.694    504.534
 63.670    565.861    575.125     -9.264    504.624    572.067    504.624    507.668    504.624
 63.770    618.000    590.259     27.741    504.715    587.301    504.715    507.652    504.715
 63.870    608.000    614.465     -6.465    504.805    611.594    504.805    507.645    504.805
 63.970    671.251    649.957     21.294    504.896    647.161    504.896    507.646    504.896
 64.070    699.000    698.034      0.966    504.986    695.303    504.986    507.655    504.986
 64.170    804.000    758.075     45.925    505.077    755.398    505.077    507.670    505.077
 64.270    810.000    826.607    -16.607    505.167    823.980    505.167    507.691    505.167
 64.370    922.000    896.720     25.280    505.258    894.141    505.258    507.717    505.258
 64.470    955.845    958.303     -2.457    505.348    955.774    505.348    507.747    505.348
 64.570   1032.000   1000.148     31.852    505.438    997.676    505.438    507.783    505.438
 64.670    976.863   1014.235    -37.373    505.529   1011.827    505.529    507.822    505.529
 64.770   1013.000    999.223     13.777    505.619    996.885    505.619    507.866    505.619
 64.870    957.000    960.096     -3.096    505.709    957.827    505.709    507.913    505.709
 64.970    871.381    905.482    -34.101    505.799    903.280    505.799    507.963    505.799
 65.070    818.195    844.871    -26.677    505.889    842.729    505.889    508.016    505.889
 65.170    769.000    786.142    -17.142    505.979    784.051    505.979    508.073    505.979
 65.270    731.507    734.123     -2.616    506.069    732.075    506.069    508.132    506.069
 65.370    703.000    690.669     12.331    506.158    688.654    506.158    508.194    506.158
 65.470    633.000    655.717    -22.717    506.248    653.729    506.248    508.258    506.248
 65.570    642.874    628.380     14.494    506.337    626.412    506.337    508.325    506.337
 65.670    572.792    607.505    -34.713    506.427    605.554    506.427    508.394    506.427
 65.770    613.000    591.901     21.099    506.516    589.963    506.516    508.466    506.516
 65.870    554.000    580.480    -26.480    506.605    578.554    506.605    508.539    506.605
 65.970    561.000    572.366    -11.366    506.693    570.449    506.693    508.615    506.693
 66.070    547.000    566.900    -19.900    506.782    564.992    506.782    508.693    506.782
 66.170    551.006    563.605    -12.599    506.870    561.704    506.870    508.772    506.870
 66.270    585.000    562.131     22.869    506.958    560.236    506.958    508.854    506.958
 66.370    529.000    562.238    -33.238    507.046    560.347    507.046    508.937    507.046
 66.470    569.534    563.816      5.719    507.134    561.927    507.134    509.023    507.134
 66.570    574.151    566.958      7.193    507.222    565.070    507.222    509.110    507.222
 66.670    606.643    572.094     34.550    507.309    570.204    507.309    509.200    507.309
 66.770    614.314    580.214     34.100    507.396    578.320    507.396    509.291    507.396
 66.870    607.000    593.218     13.782    507.482    591.317    507.482    509.384    507.482
 66.970    642.132    614.365     27.767    507.569    612.453    507.569    509.479    507.569
 67.070    630.000    648.716    -18.716    507.655    646.790    507.655    509.576    507.655
 67.170    661.000    703.345    -42.345    507.741    701.401    507.741    509.676    507.741
 67.270    809.837    786.946     22.891    507.826    784.982    507.826    509.777    507.826
 67.370    947.000    908.488     38.512    507.912    906.501    507.912    509.881    507.912
 67.470   1092.000   1074.753     17.247    507.996   1072.743    507.996    509.987    507.996
 67.570   1280.000   1287.041     -7.041    508.081   1285.013    508.081    510.095    508.081
 67.670   1603.000   1537.798     65.202    508.165   1535.760    508.165    510.206    508.165
 67.770   1812.000   1808.143      3.857    508.249   1806.106    508.249    510.320    508.249
 67.870   2014.825   2067.224    -52.398    508.333   2065.200    508.333    510.437    508.333
 67.970   2309.000   2274.738     34.262    508.416   2272.739    508.416    510.556    508.416
 68.070   2514.000   2389.385    124.615    508.499   2387.414    508.499    510.679    508.499
 68.170   2392.000   2384.274      7.726    508.581   2382.319    508.581    510.805    508.581
 68.270   2262.000   2260.769      1.231    508.663   2258.805    508.663    510.935    508.663
 68.370   2035.000   2047.662    -12.662    508.745   2045.652    508.745    511.069    508.745
 68.470   1770.000   1786.625    -16.625    508.826   1784.538    508.826    511.208    508.826
 68.570   1531.000   1517.341     13.659    508.906   1515.154    508.906    511.351    508.906
 68.670   1323.142   1269.682     53.460    508.987   1267.379    508.987    511.499    508.987
 68.770   1042.000   1061.516    -19.516    509.067   1059.090    509.067    511.652    509.067
 68.870    898.924    899.541     -0.617    509.146    896.991    509.146    511.812    509.146
 68.970    831.900    781.862     50.039    509.225    779.188    509.225    511.979    509.225
 69.070    668.609    701.398    -32.790    509.303    698.603    509.303    512.152    509.303
 69.170    688.546    649.131     39.416    509.381    646.213    509.381    512.334    509.381
 69.270    637.000    616.462     20.538    509.459    613.418    509.459    512.525    509.459
 69.370    643.000    596.470     46.530    509.536    593.294    509.536    512.726    509.536
 69.470    596.000    584.231     11.769    509.612    580.916    509.612    512.938    509.612
 69.570    605.731    576.576     29.155    509.688    573.110    509.688    513.162    509.688
 69.670    609.000    571.628     37.372    509.764    567.997    509.764    513.400    509.764
 69.770    568.323    568.348     -0.026    509.839    564.537    509.839    513.654    509.839
 69.870    635.000    566.194     68.806    509.913    562.184    509.913    513.925    509.913
 69.970    537.353    564.893    -27.540    509.987    560.666    509.987    514.216    509.987
 70.070    574.000    564.323      9.677    510.060    559.854    510.060    514.529    510.060
 70.170    556.000    564.448     -8.448    510.133    559.712    510.133    514.868    510.133
 70.270    558.000    565.308     -7.308    510.205    560.275    510.205    515.236    510.205
 70.370    584.220    567.038     17.181    510.276    561.674    510.276    515.639    510.276
 70.470    527.000    569.932    -42.932    510.347    564.195    510.347    516.080    510.347
 70.570    592.467    574.543     17.924    510.417    568.386    510.417    516.569    510.417
 70.670    600.000    581.855     18.145    510.487    575.220    510.487    517.113    510.487
 70.770    586.000    593.498     -7.498    510.556    586.315    510.556    517.727    510.556
 70.870    629.279    611.986     17.293    510.624    604.164    510.624    518.427    510.624
 70.970    664.000    640.881     23.119    510.692    632.303    510.692    519.240    510.692
 71.070    643.000    684.762    -41.762    510.759    675.271    510.759    520.206    510.759
 71.170    696.726    748.820    -52.094    510.826    738.199    510.826    521.383    510.826
 71.270    875.111    837.963     37.148    510.891    825.912    510.891    522.854    510.891
 71.370    949.000    955.433     -6.433    510.956    941.533    510.956    524.740    510.956
 71.470   1072.000   1101.134    -29.134    511.021   1084.803    511.021    527.204    511.021
 71.570   1223.692   1270.031    -46.339    511.085   1250.478    511.085    530.461    511.085
 71.670   1480.000   1451.058     28.942    511.148   1427.231    511.148    534.774    511.148
 71.770   1583.000   1626.880    -43.880    511.210   1597.429    511.210    540.449    511.210
 71.870   1847.224   1775.076     72.149    511.272   1738.332    511.272    547.807    511.272
 71.970   1883.300   1871.940     11.360    511.332   1825.936    511.332    557.149    511.332
 72.070   1907.000   1899.810      7.190    511.393   1842.353    511.393    568.697    511.393
 72.170   1818.000   1855.019    -37.019    511.452   1783.826    511.452    582.531    511.452
 72.270   1749.000   1749.880     -0.880    511.511   1662.800    511.511    598.513    511.511
 72.370   1718.000   1606.486    111.514    511.568   1501.797    511.568    616.211    511.568
 72.470   1471.000   1448.088     22.912    511.626   1324.886    511.626    634.805    511.626
 72.570   1302.000   1293.523      8.477    511.682   1152.194    511.682    653.003    511.682
 72.670   1127.000   1155.061    -28.061    511.737    997.786    511.737    669.012    511.737
 72.770    993.000   1038.327    -45.327    511.792    869.416    511.792    680.707    511.792
 72.870    888.000    943.590    -55.590    511.846    769.299    511.846    686.142    511.846
 72.970    833.000    867.943    -34.943    511.899    695.554    511.899    684.292    511.899
 73.070    812.830    807.488      5.341    511.952    643.904    511.952    675.539    511.952
 73.170    787.238    758.693     28.546    512.003    609.222    512.003    661.476    512.003
 73.270    646.000    718.825    -72.825    512.054    586.666    512.054    644.214    512.054
 73.370    675.000    685.919    -10.919    512.104    572.285    512.104    625.739    512.104
 73.470    606.000    658.635    -52.635    512.153    563.202    512.153    607.588    512.153
 73.570    636.000    636.112     -0.112    512.201    557.516    512.201    590.800    512.201
 73.670    579.706    617.811    -38.105    512.248    554.077    512.248    575.988    512.248
 73.770    555.000    603.359    -48.359    512.294    552.238    512.294    563.423    512.294
 73.870    570.178    592.420    -22.242    512.340    551.647    512.340    553.124    512.340
 73.970    609.124    584.618     24.506    512.385    552.089    512.385    544.928    512.385
 74.070    592.000    579.494     12.506    512.428    553.375    512.428    538.567    512.428
 74.170    548.625    576.502    -27.877    512.471    555.274    512.471    533.725    512.471
 74.270    584.653    575.019      9.634    512.513    557.480    512.513    530.084    512.513
 74.370    575.911    574.364      1.546    512.554    559.597    512.554    527.358    512.554
 74.470    674.000    573.845    100.155    512.594    561.171    512.594    525.309    512.594
 74.570    609.000    572.843     36.157    512.633    561.771    512.633    523.749    512.633
 74.670    652.000    570.951     81.049    512.672    561.128    512.672    522.538    512.672
 74.770    683.000    568.081    114.919    512.709    559.258    512.709    521.574    512.709
 74.870    608.000    564.463     43.537    512.745    556.458    512.745    520.789    512.745
 74.970    588.000    560.519     27.481    512.781    553.198    512.781    520.134    512.781
 75.070    598.000    556.739     41.261    512.815    550.004    512.815    519.577    512.815
 75.170    568.000    553.614     14.386    512.849    547.385    512.849    519.097    512.849
 75.270    604.000    551.620     52.380    512.881    545.836    512.881    518.679    512.881
 75.370    575.000    551.234     23.766    512.913    545.844    512.913    518.310    512.913
 75.470    581.000    552.948     28.052    512.943    547.908    512.943    517.984    512.943
 75.570    579.000    557.267     21.733    512.973    552.541    512.973    517.694    512.973
 75.670    540.000    564.672    -24.672    513.001    560.227    513.001    517.435    513.001
 75.770    610.000    575.538     34.462    513.029    571.346    513.029    517.203    513.029
 75.870    559.894    590.013    -30.119    513.055    586.049    513.055    516.994    513.055
 75.970    624.000    607.871     16.129    513.081    604.113    513.081    516.806    513.081
 76.070    673.000    628.379     44.621    513.105    624.806    513.105    516.635    513.105
 76.170    679.000    650.208     28.792    513.128    646.805    513.128    516.481    513.128
 76.270    660.000    671.417    -11.417    513.151    668.170    513.151    516.340    513.151
 76.370    711.226    689.546     21.679    513.172    686.445    513.172    516.210    513.172
 76.470    692.000    701.928     -9.928    513.192    698.964    513.192    516.092    513.192
 76.570    715.000    706.339      8.661    513.211    703.504    513.211    515.985    513.211
 76.670    734.127    701.855     32.272    513.230    699.142    513.230    515.886    513.230
 76.770    711.157    689.286     21.871    513.247    686.690    513.247    515.794    513.247
 76.870    609.000    670.784    -61.784    513.263    668.297    513.263    515.710    513.263
 76.970    659.000    648.995     10.005    513.277    646.610    513.277    515.631    513.277
 77.070    607.000    626.378    -19.378    513.291    624.087    513.291    515.558    513.291
 77.170    591.098    604.878    -13.780    513.304    602.675    513.304    515.490    513.304
 77.270    542.000    585.818    -43.818    513.316    583.695    513.316    515.427    513.316
 77.370    565.000    569.903     -4.903    513.326    567.854    513.326    515.367    513.326
 77.470    551.000    557.305     -6.305    513.335    555.324    513.335    515.311    513.335
 77.570    522.000    547.802    -25.802    513.344    545.884    513.344    515.258    513.344
 77.670    455.000    540.931    -85.931    513.351    539.072    513.351    515.208    513.351
 77.770    540.000    536.123      3.877    513.357    534.317    513.357    515.160    513.357
 77.870    500.000    532.847    -32.847    513.362    531.092    513.362    515.115    513.362
 77.970    511.000    530.673    -19.673    513.365    528.965    513.365    515.072    513.365
 78.070    500.000    529.224    -29.224    513.368    527.560    513.368    515.030    513.368
 78.170    521.000    528.248     -7.248    513.369    526.626    513.369    514.991    513.369
 78.270    528.144    527.579      0.565    513.370    525.995    513.370    514.952    513.370
 78.370    513.000    527.114    -14.114    513.369    525.566    513.369    514.915    513.369
 78.470    509.000    526.797    -17.797    513.367    525.283    513.367    514.880    513.367
 78.570    491.656    526.601    -34.945    513.363    525.118    513.363    514.846    513.363
 78.670    485.000    526.518    -41.518    513.359    525.064    513.359    514.812    513.359
 78.770    522.793    526.554     -3.761    513.353    525.126    513.353    514.781    513.353
 78.870    492.927    526.722    -33.795    513.347    525.317    513.347    514.750    513.347
 78.970    490.181    527.042    -36.861    513.339    525.657    513.339    514.722    513.339
 79.070    481.000    527.536    -46.536    513.329    526.169    513.329    514.695    513.329
 79.170    486.445    528.230    -41.785    513.319    526.876    513.319    514.670    513.319
 79.270    493.000    529.145    -36.145    513.307    527.802    513.307    514.648    513.307
 79.370    535.000    530.307      4.693    513.295    528.970    513.295    514.629    513.295
 79.470    516.968    531.746    -14.779    513.281    530.410    513.281    514.614    513.281
 79.570    496.000    533.505    -37.505    513.265    532.164    513.265    514.602    513.265
 79.670    518.143    535.650    -17.507    513.249    534.300    513.249    514.595    513.249
 79.770    542.000    538.293      3.707    513.231    536.927    513.231    514.592    513.231
 79.870    555.000    541.599     13.401    513.212    540.214    513.212    514.593    513.212
 79.970    528.000    545.818    -17.818    513.192    544.408    513.192    514.598    513.192
 80.070    587.000    551.290     35.710    513.171    549.851    513.171    514.606    513.171
 80.170    536.000    558.449    -22.449    513.148    556.978    513.148    514.616    513.148
 80.270    545.000    567.757    -22.757    513.125    566.256    513.125    514.626    513.125
 80.370    592.000    579.624     12.376    513.099    578.093    513.099    514.632    513.099
 80.470    566.000    594.289    -28.289    513.073    592.735    513.073    514.631    513.073
 80.570    579.000    611.722    -32.722    513.046    610.155    513.046    514.621    513.046
 80.670    585.000    631.546    -46.546    513.017    629.979    513.017    514.596    513.017
 80.770    670.000    653.000     17.000    512.987    651.449    512.987    514.555    512.987
 80.870    660.000    674.970    -14.970    512.955    673.451    512.955    514.498    512.955
 80.970    687.000    696.108     -9.108    512.922    694.634    512.922    514.427    512.922
 81.070    734.000    715.019     18.981    512.889    713.599    512.889    514.346    512.889
 81.170    781.146    730.444     50.702    512.853    729.085    512.853    514.257    512.853
 81.270    796.000    741.385     54.615    512.817    740.087    512.817    514.165    512.817
 81.370    801.000    747.177     53.823    512.779    745.941    512.779    514.072    512.779
 81.470    746.000    747.564     -1.564    512.740    746.385    512.740    513.981    512.740
 81.570    692.641    742.700    -50.059    512.700    741.572    512.700    513.892    512.700
 81.670    693.586    733.099    -39.513    512.658    732.017    512.658    513.807    512.658
 81.770    746.000    719.608     26.392    512.615    718.565    512.615    513.725    512.615
 81.870    670.768    703.361    -32.594    512.571    702.352    512.571    513.647    512.571
 81.970    733.000    685.627     47.373    512.525    684.645    512.525    513.572    512.525
 82.070    666.000    667.552     -1.552    512.479    666.592    512.479    513.500    512.479
 82.170    649.000    649.962     -0.962    512.431    649.019    512.431    513.431    512.431
 82.270    646.000    633.322     12.678    512.381    632.392    512.381    513.365    512.381
 82.370    609.210    617.833     -8.622    512.330    616.913    512.330    513.300    512.330
 82.470    612.000    603.598      8.402    512.278    602.685    512.278    513.235    512.278
 82.570    626.000    590.739     35.261    512.225    589.830    512.225    513.172    512.225
 82.670    608.107    579.419     28.688    512.170    578.512    512.170    513.109    512.170
 82.770    525.000    569.818    -44.818    512.114    568.912    512.114    513.046    512.114
 82.870    516.000    562.092    -46.092    512.057    561.185    512.057    512.983    512.057
 82.970    564.000    556.358      7.642    511.998    555.448    511.998    512.919    511.998
 83.070    525.008    552.677    -27.669    511.939    551.764    511.939    512.855    511.939
 83.170    552.000    551.037      0.963    511.877    550.121    511.877    512.790    511.877
 83.270    542.000    551.332     -9.332    511.815    550.412    511.815    512.724    511.815
 83.370    584.918    553.349     31.569    511.751    552.424    511.751    512.658    511.751
 83.470    544.000    556.754    -12.754    511.686    555.824    511.686    512.590    511.686
 83.570    555.000    561.096     -6.096    511.619    560.161    511.619    512.522    511.619
 83.670    549.000    565.824    -16.824    511.551    564.885    511.551    512.453    511.551
 83.770    526.280    570.312    -44.032    511.482    569.369    511.482    512.383    511.482
 83.870    578.517    573.913      4.604    511.412    572.968    511.412    512.312    511.412
 83.970    579.000    576.037      2.963    511.340    575.091    511.340    512.240    511.340
 84.070    552.000    576.275    -24.275    511.266    575.329    511.266    512.167    511.266
 84.170    590.039    574.499     15.540    511.192    573.556    511.192    512.093    511.192
 84.270    569.000    570.898     -1.898    511.116    569.958    511.116    512.018    511.116
 84.370    537.000    565.896    -28.896    511.039    564.959    511.039    511.942    511.039
 84.470    570.000    560.025      9.975    510.960    559.092    510.960    511.865    510.960
 84.570    517.879    553.818    -35.938    510.881    552.887    510.881    511.787    510.881
 84.670    579.961    547.731     32.229    510.799    546.803    510.799    511.708    510.799
 84.770    537.000    542.120     -5.120    510.717    541.194    510.717    511.628    510.717
 84.870    559.939    537.217     22.722    510.633    536.291    510.633    511.547    510.633
 84.970    534.222    533.140      1.081    510.548    532.214    510.548    511.465    510.548
 85.070    527.000    529.911     -2.911    510.461    528.982    510.461    511.382    510.461
 85.170    550.838    527.476     23.363    510.374    526.545    510.374    511.298    510.374
 85.270    522.000    525.742     -3.742    510.284    524.808    510.284    511.213    510.284
 85.370    521.000    524.601     -3.601    510.194    523.663    510.194    511.127    510.194
 85.470    512.737    523.953    -11.216    510.102    523.010    510.102    511.040    510.102
 85.570    496.887    523.722    -26.835    510.009    522.773    510.009    510.952    510.009
 85.670    548.968    523.865     25.103    509.914    522.911    509.914    510.864    509.914
 85.770    540.000    524.382     15.618    509.819    523.421    509.819    510.774    509.819
 85.870    559.000    525.313     33.687    509.721    524.343    509.721    510.683    509.721
 85.970    501.000    526.739    -25.739    509.623    525.761    509.623    510.591    509.623
 86.070    582.000    528.780     53.220    509.523    527.792    509.523    510.498    509.523
 86.170    512.000    531.586    -19.586    509.422    530.587    509.422    510.405    509.422
 86.270    549.000    535.323     13.677    509.320    534.311    509.320    510.310    509.320
 86.370    562.000    540.153     21.847    509.216    539.127    509.216    510.215    509.216
 86.470    576.000    546.210     29.790    509.111    545.167    509.111    510.118    509.111
 86.570    534.591    553.562    -18.971    509.004    552.501    509.004    510.021    509.004
 86.670    529.204    562.185    -32.981    508.897    561.104    508.897    509.923    508.897
 86.770    575.635    571.922      3.713    508.788    570.820    508.788    509.824    508.788
 86.870    601.000    582.461     18.539    508.677    581.336    508.677    509.725    508.677
 86.970    652.000    593.326     58.674    508.566    592.178    508.566    509.624    508.566
 87.070    615.870    603.876     11.994    508.453    602.707    508.453    509.523    508.453
 87.170    582.000    613.337    -31.337    508.338    612.147    508.338    509.421    508.338
 87.270    666.000    620.868     45.132    508.223    619.660    508.223    509.319    508.223
 87.370    640.000    625.697     14.303    508.106    624.473    508.106    509.216    508.106
 87.470    646.559    627.294     19.265    507.988    626.059    507.988    509.112    507.988
 87.570    622.000    625.535     -3.535    507.868    624.290    507.868    509.007    507.868
 87.670    628.907    620.733      8.174    507.747    619.482    507.747    508.902    507.747
 87.770    624.000    613.551     10.449    507.625    612.296    507.625    508.797    507.625
 87.870    609.162    604.840      4.322    507.502    603.580    507.502    508.691    507.502
 87.970    630.000    595.495     34.505    507.377    594.229    507.377    508.584    507.377
 88.070    580.777    586.361     -5.584    507.251    585.090    507.251    508.478    507.251
 88.170    577.000    578.176     -1.176    507.124    576.896    507.124    508.371    507.124
 88.270    569.608    571.524     -1.916    506.996    570.234    506.996    508.263    506.996
 88.370    567.000    566.816      0.184    506.866    565.514    506.866    508.156    506.866
 88.470    528.943    564.280    -35.337    506.735    562.962    506.735    508.049    506.735
 88.570    556.000    563.955     -7.955    506.603    562.621    506.603    507.941    506.603
 88.670    593.300    565.707     27.593    506.469    564.355    506.469    507.834    506.469
 88.770    571.000    569.240      1.760    506.334    567.868    506.334    507.727    506.334
 88.870    574.000    574.113     -0.113    506.198    572.720    506.198    507.620    506.198
 88.970    605.000    579.769     25.231    506.061    578.353    506.061    507.514    506.061
 89.070    590.000    585.548      4.452    505.922    584.106    505.922    507.408    505.922
 89.170    576.000    590.768    -14.768    505.783    589.298    505.783    507.303    505.783
 89.270    618.000    594.748     23.252    505.642    593.247    505.642    507.199    505.642
 89.370    591.000    596.891     -5.891    505.499    595.354    505.499    507.096    505.499
 89.470    578.328    596.818    -18.490    505.356    595.242    505.356    506.994    505.356
 89.570    599.000    594.444      4.556    505.211    592.824    505.211    506.894    505.211
 89.670    575.000    589.989    -14.989    505.065    588.319    505.065    506.795    505.065
 89.770    618.000    583.893     34.107    504.918    582.169    504.918    506.699    504.918
 89.870    551.000    576.711    -25.711    504.770    574.927    504.770    506.605    504.770
 89.970    587.680    569.004     18.677    504.620    567.155    504.620    506.514    504.620
 90.070    576.356    561.276     15.080    504.469    559.358    504.469    506.426    504.469
 90.170    580.000    553.939     26.061    504.317    551.946    504.317    506.343    504.317
 90.270    511.000    547.296    -36.296    504.164    545.223    504.164    506.264    504.164
 90.370    512.324    541.536    -29.213    504.010    539.376    504.010    506.190    504.010
 90.470    571.746    536.748     34.998    503.855    534.494    503.855    506.124    503.855
 90.570    501.000    532.934    -31.934    503.698    530.578    503.698    506.066    503.698
 90.670    506.685    530.035    -23.350    503.540    527.565    503.540    506.019    503.540
 90.770    539.000    527.955     11.045    503.381    525.357    503.381    505.984    503.381
 90.870    529.580    526.584      2.996    503.221    523.841    503.221    505.967    503.221
 90.970    521.000    525.819     -4.819    503.060    522.910    503.060    505.970    503.060
 91.070    484.903    525.580    -40.677    502.897    522.478    502.897    506.000    502.897
 91.170    515.000    525.818    -10.818    502.734    522.487    502.734    506.064    502.734
 91.270    524.000    526.525     -2.525    502.569    522.922    502.569    506.169    502.569
 91.370    501.110    527.739    -26.629    502.403    523.812    502.403    506.327    502.403
 91.470    485.532    529.538    -44.007    502.237    525.221    502.237    506.550    502.237
 91.570    509.000    532.043    -23.043    502.069    527.256    502.069    506.850    502.069
 91.670    566.552    535.383     31.169    501.900    530.031    501.900    507.243    501.900
 91.770    507.000    539.824    -32.824    501.729    533.797    501.729    507.746    501.729
 91.870    513.000    545.580    -32.580    501.558    538.751    501.558    508.373    501.558
 91.970    584.766    552.865     31.901    501.386    545.091    501.386    509.142    501.386
 92.070    572.591    561.892     10.700    501.212    553.016    501.212    510.066    501.212
 92.170    550.793    572.834    -22.041    501.038    562.690    501.038    511.155    501.038
 92.270    540.000    585.800    -45.800    500.862    574.212    500.862    512.416    500.862
 92.370    560.633    600.798    -40.165    500.686    587.594    500.686    513.850    500.686
 92.470    564.000    617.722    -53.722    500.508    602.735    500.508    515.449    500.508
 92.570    629.418    636.325     -6.908    500.330    619.406    500.330    517.195    500.330
 92.670    637.503    656.212    -18.709    500.150    637.241    500.150    519.061    500.150
 92.770    707.000    676.834     30.166    499.970    655.734    499.970    521.003    499.970
 92.870    671.000    697.524    -26.524    499.788    674.274    499.788    522.965    499.788
 92.970    636.000    717.540    -81.540    499.605    692.199    499.605    524.869    499.605
 93.070    781.000    736.157     44.843    499.422    708.878    499.422    526.622    499.422
 93.170    737.000    752.802    -15.802    499.237    723.846    499.237    528.114    499.237
 93.270    795.000    767.158     27.842    499.052    736.901    499.052    529.229    499.052
 93.370    736.037    779.191    -43.154    498.865    748.111    498.865    529.866    498.865
 93.470    821.000    789.097     31.903    498.678    757.746    498.678    529.951    498.678
 93.570    759.657    797.217    -37.561    498.489    766.171    498.489    529.461    498.489
 93.670    833.000    803.971     29.029    498.300    773.772    498.300    528.428    498.300
 93.770    778.952    809.834    -30.883    498.110    780.947    498.110    526.928    498.110
 93.870    807.230    815.353     -8.123    497.919    788.136    497.919    525.069    497.919
 93.970    861.000    821.128     39.872    497.727    795.824    497.727    522.965    497.727
 94.070    845.000    827.732     17.268    497.534    804.477    497.534    520.724    497.534
 94.170    821.519    835.556    -14.036    497.340    814.394    497.340    518.440    497.340
 94.270    897.000    844.658     52.342    497.145    825.560    497.145    516.184    497.145
 94.370    841.000    854.666    -13.666    496.950    837.545    496.950    514.014    496.950
 94.470    848.811    864.760    -15.949    496.754    849.491    496.754    511.968    496.754
 94.570    815.918    873.742    -57.824    496.556    860.174    496.556    510.075    496.556
 94.670    923.000    880.174     42.826    496.358    868.139    496.358    508.349    496.358
 94.770    934.000    882.588     51.412    496.160    871.912    496.160    506.798    496.160
 94.870    947.000    879.756     67.244    495.960    870.267    495.960    505.420    495.960
 94.970    885.013    870.974     14.038    495.760    862.506    495.760    504.208    495.760
 95.070    892.727    856.255     36.472    495.558    848.650    495.558    503.151    495.558
 95.170    916.000    836.341     79.659    495.356    829.457    495.356    502.235    495.356
 95.270    777.510    812.559    -35.049    495.154    806.269    495.154    501.444    495.154
 95.370    830.000    786.598     43.402    494.950    780.790    494.950    500.763    494.950
 95.470    766.000    760.304      5.696    494.746    754.882    494.746    500.175    494.746
 95.570    740.458    735.511      4.947    494.541    730.394    494.541    499.665    494.541
 95.670    738.000    714.003     23.997    494.336    709.123    494.336    499.221    494.336
 95.770    734.774    697.372     37.402    494.129    692.671    494.129    498.832    494.129
 95.870    672.034    687.018    -14.984    493.922    682.451    493.922    498.486    493.922
 95.970    699.000    684.143     14.857    493.715    679.671    493.715    498.177    493.715
 96.070    705.000    689.736     15.264    493.506    685.326    493.506    497.898    493.506
 96.170    703.000    704.569     -1.569    493.297    700.195    493.297    497.644    493.297
 96.270    726.849    729.176     -2.327    493.088    724.816    493.088    497.411    493.088
 96.370    785.000    763.816     21.184    492.878    759.449    492.878    497.195    492.878
 96.470    802.000    808.405     -6.405    492.667    804.015    492.667    496.996    492.667
 96.570    879.747    862.436     17.311    492.456    858.009    492.456    496.811    492.456
 96.670    948.726    924.897     23.829    492.244    920.419    492.244    496.639    492.244
 96.770   1041.000    994.192     46.808    492.031    989.651    492.031    496.480    492.031
 96.870   1058.077   1068.099    -10.022    491.818   1063.485    491.818    496.333    491.818
 96.970   1178.248   1143.761     34.488    491.605   1139.062    491.605    496.199    491.605
 97.070   1168.000   1217.725    -49.725    491.390   1212.933    491.390    496.078    491.390
 97.170   1335.720   1286.061     49.659    491.176   1281.167    491.176    495.970    491.176
 97.270   1397.000   1344.594     52.406    490.961   1339.588    490.961    495.874    490.961
 97.370   1348.000   1389.295    -41.295    490.745   1384.168    490.745    495.794    490.745
 97.470   1362.000   1416.843    -54.843    490.529   1411.580    490.529    495.731    490.529
 97.570   1436.628   1425.210     11.418    490.313   1419.797    490.313    495.684    490.313
 97.670   1362.746   1414.073    -51.327    490.096   1408.490    490.096    495.658    490.096
 97.770   1365.000   1384.829    -19.829    489.878   1379.053    489.878    495.654    489.878
 97.870   1302.000   1340.242    -38.242    489.661   1334.244    489.661    495.676    489.661
 97.970   1260.000   1283.911    -23.911    489.443   1277.657    489.443    495.728    489.443
 98.070   1261.586   1219.784     41.803    489.224   1213.233    489.224    495.817    489.224
 98.170   1164.729   1151.797     12.932    489.005   1144.902    489.005    495.950    489.005
 98.270   1083.000   1083.651     -0.651    488.786   1076.351    488.786    496.137    488.786
 98.370   1042.452   1018.663     23.788    488.567   1010.890    488.567    496.390    488.567
 98.470    967.202    959.699      7.503    488.347    951.368    488.347    496.726    488.347
 98.570    856.148    909.141    -52.992    488.127    900.147    488.127    497.162    488.127
 98.670    871.000    868.895      2.105    487.906    859.112    487.906    497.723    487.906
 98.770    804.000    840.433    -36.433    487.686    829.706    487.686    498.437    487.686
 98.870    838.902    824.847     14.056    487.465    812.989    487.465    499.338    487.465
 98.970    832.000    822.902      9.098    487.244    809.689    487.244    500.463    487.244
 99.070    852.000    835.094     16.906    487.023    820.259    487.023    501.855    487.023
 99.170    872.000    861.670     10.330    486.801    844.899    486.801    503.561    486.801
 99.270    897.000    902.631     -5.631    486.580    883.561    486.580    505.632    486.580
 99.370    954.000    957.669     -3.669    486.358    935.888    486.358    508.116    486.358
 99.470   1068.546   1026.165     42.381    486.136   1001.211    486.136    511.064    486.136
 99.570   1105.928   1107.056     -1.127    485.914   1078.424    485.914    514.521    485.914
 99.670   1257.798   1198.772     59.025    485.692   1165.920    485.692    518.522    485.692
 99.770   1256.124   1299.184    -43.060    485.470   1261.544    485.470    523.095    485.470
 99.870   1504.000   1405.558     98.442    485.248   1362.553    485.248    528.249    485.248
 99.970   1534.139   1514.567     19.572    485.025   1465.630    485.025    533.974    485.025
100.070   1636.736   1622.380     14.357    484.803   1566.975    484.803    540.237    484.803
100.170   1630.000   1724.852    -94.852    484.581   1662.507    484.581    546.978    484.581
100.270   1756.906   1817.840    -60.935    484.358   1748.171    484.358    554.103    484.358
100.370   1953.000   1897.558     55.442    484.136   1820.313    484.136    561.482    484.136
100.470   2060.000   1960.879     99.121    483.914   1875.975    483.914    568.945    483.914
100.570   1922.261   2005.474    -83.213    483.692   1913.041    483.692    576.275    483.692
100.670   2103.846   2029.792     74.054    483.470   1930.222    483.470    583.211    483.470
100.770   2054.000   2033.019     20.981    483.248   1927.006    483.248    589.450    483.248
100.870   2023.000   2015.155      7.845    483.026   1903.718    483.026    594.666    483.026
100.970   1978.000   1977.212      0.788    482.804   1861.693    482.804    598.535    482.804
101.070   1925.000   1921.410      3.590    482.583   1803.424    482.583    600.783    482.583
101.170   1803.000   1851.150    -48.150    482.362   1732.492    482.362    601.232    482.362
101.270   1749.000   1770.713    -21.713    482.141   1653.231    482.141    599.828    482.141
101.370   1571.000   1684.760   -113.760    481.920   1570.211    481.920    596.664    481.920
101.470   1640.000   1597.805     42.195    481.699   1487.737    481.699    591.950    481.699
101.570   1548.215   1513.802     34.413    481.479   1409.469    481.479    585.980    481.479
101.670   1452.659   1435.886     16.773    481.259   1338.215    481.259    579.082    481.259
101.770   1318.000   1366.248    -48.248    481.039   1275.846    481.039    571.578    481.039
101.870   1373.568   1306.110     67.458    480.820   1223.291    480.820    563.762    480.820
101.970   1223.000   1255.766    -32.766    480.601   1180.596    480.601    555.881    480.601
102.070   1180.000   1214.663    -34.663    480.383   1147.008    480.383    548.138    480.383
102.170   1098.000   1181.530    -83.530    480.164   1121.095    480.164    540.692    480.164
102.270   1122.872   1154.525    -31.653    479.947   1100.897    479.947    533.662    479.947
102.370   1143.000   1131.437     11.563    479.729   1084.120    479.729    527.130    479.729
102.470   1112.980   1109.928      3.052    479.513   1068.374    479.513    521.150    479.513
102.570   1081.340   1087.818     -6.478    479.296   1051.451    479.296    515.747    479.296
102.670   1061.000   1063.364     -2.364    479.080   1031.604    479.080    510.924    479.080
102.770   1007.000   1035.471    -28.471    478.865   1007.753    478.865    506.667    478.865
102.870   1041.503   1003.765     37.738    478.651    979.554    478.651    502.946    478.651
102.970    927.000    968.517    -41.517    478.437    947.314    478.437    499.722    478.437
103.070    920.000    930.463    -10.463    478.223    911.818    478.223    496.948    478.223
103.170    861.357    890.606    -29.250    478.010    874.118    478.010    494.575    478.010
103.270    820.000    850.049    -30.049    477.798    835.367    477.798    492.551    477.798
103.370    857.280    809.870     47.410    477.587    796.694    477.587    490.828    477.587
103.470    721.021    771.048    -50.027    477.376    759.123    477.376    489.361    477.376
103.570    730.239    734.409     -4.171    477.166    723.521    477.166    488.107    477.166
103.670    689.000    700.597    -11.597    476.957    690.570    476.957    487.029    476.957
103.770    719.406    670.057     49.349    476.748    660.747    476.748    486.097    476.748
103.870    684.000    643.039     40.961    476.540    634.329    476.540    485.283    476.540
103.970    628.000    619.612      8.388    476.333    611.408    476.333    484.565    476.333
104.070    627.622    599.689     27.933    476.128    591.914    476.128    483.925    476.128
104.170    602.000    583.060     18.940    475.922    575.654    475.922    483.346    475.922
104.270    579.000    569.434      9.566    475.718    562.347    475.718    482.820    475.718
104.370    534.000    558.469    -24.469    475.515    551.658    475.515    482.336    475.515
104.470    602.000    549.806     52.194    475.313    543.239    475.313    481.888    475.313
104.570    567.000    543.101     23.899    475.111    536.749    475.111    481.469    475.111
104.670    578.000    538.034     39.966    474.911    531.873    474.911    481.076    474.911
104.770    490.496    534.329    -43.834    474.712    528.338    474.712    480.705    474.712
104.870    557.168    531.762     25.406    474.514    525.923    474.514    480.352    474.514
104.970    544.000    530.159     13.841    474.317    524.456    474.317    480.018    474.317
105.070    547.000    529.401     17.599    474.121    523.820    474.121    479.698    474.121
105.170    540.000    529.415     10.585    473.926    523.943    473.926    479.393    473.926
105.270    517.133    530.169    -13.036    473.732    524.794    473.732    479.101    473.732
105.370    520.138    531.688    -11.550    473.540    526.398    473.540    478.821    473.540
105.470    566.000    534.012     31.988    473.348    528.798    473.348    478.553    473.348
105.570    491.232    537.209    -45.977    473.159    532.060    473.159    478.295    473.159
105.670    567.964    541.363     26.602    472.970    536.270    472.970    478.048    472.970
105.770    545.000    546.559     -1.559    472.783    541.514    472.783    477.810    472.783
105.870    539.000    552.873    -13.873    472.597    547.868    472.597    477.582    472.597
105.970    573.613    560.358     13.256    472.412    555.384    472.412    477.363    472.412
106.070    564.000    569.025     -5.025    472.229    564.076    472.229    477.152    472.229
106.170    608.000    578.840     29.160    472.047    573.909    472.047    476.949    472.047
106.270    596.000    589.712      6.288    471.867    584.791    471.867    476.755    471.867
106.370    589.000    601.487    -12.487    471.688    596.570    471.688    476.569    471.688
106.470    569.000    613.946    -44.946    471.510    609.027    471.510    476.390    471.510
106.570    571.000    626.812    -55.812    471.335    621.886    471.335    476.219    471.335
106.670    645.000    639.751      5.249    471.160    634.812    471.160    476.056    471.160
106.770    692.000    652.385     39.615    470.988    647.427    470.988    475.900    470.988
106.870    660.000    664.306     -4.306    470.817    659.324    470.817    475.752    470.817
106.970    618.000    675.105    -57.105    470.648    670.095    470.648    475.611    470.648
107.070    642.000    684.405    -42.405    470.480    679.362    470.480    475.478    470.480
107.170    674.631    691.904    -17.273    470.314    686.822    470.314    475.352    470.314
107.270    679.000    697.426    -18.426    470.150    692.301    470.150    475.234    470.150
107.370    660.303    700.957    -40.654    469.988    695.784    469.988    475.123    469.988
107.470    716.827    702.650     14.177    469.827    697.423    469.827    475.020    469.827
107.570    753.013    702.802     50.211    469.669    697.516    469.669    474.926    469.669
107.670    693.000    701.806     -8.806    469.512    696.454    469.512    474.839    469.512
107.770    687.877    700.086    -12.209    469.357    694.662    469.357    474.760    469.357
107.870    670.380    698.048    -27.668    469.204    692.546    469.204    474.690    469.204
107.970    639.000    696.037    -57.037    469.053    690.450    469.053    474.628    469.053
108.070    660.664    694.309    -33.646    468.905    688.630    468.905    474.576    468.905
108.170    687.000    693.015     -6.015    468.758    687.237    468.758    474.532    468.758
108.270    682.000    692.192    -10.192    468.613    686.306    468.613    474.498    468.613
108.370    715.748    691.760     23.988    468.470    685.760    468.470    474.474    468.470
108.470    682.000    691.535     -9.535    468.330    685.412    468.330    474.460    468.330
108.570    721.592    691.239     30.354    468.192    684.983    468.192    474.457    468.192
108.670    690.000    690.529     -0.529    468.056    684.133    468.056    474.464    468.056
108.770    646.082    689.042    -42.960    467.922    682.495    467.922    474.483    467.922
108.870    646.293    686.437    -40.144    467.790    679.731    467.790    474.515    467.790
108.970    661.000    682.456    -21.456    467.661    675.578    467.661    474.559    467.661
109.070    660.573    676.957    -16.384    467.534    669.897    467.534    474.616    467.534
109.170    684.000    669.937     14.063    467.410    662.681    467.410    474.688    467.410
109.270    692.000    661.521     30.479    467.288    654.058    467.288    474.774    467.288
109.370    691.261    651.938     39.323    467.168    644.252    467.168    474.876    467.168
109.470    658.000    641.474     16.526    467.051    633.552    467.051    474.995    467.051
109.570    624.000    630.448     -6.448    466.936    622.274    466.936    475.132    466.936
109.670    639.000    619.176     19.824    466.824    610.732    466.824    475.288    466.824
109.770    626.000    607.956     18.044    466.715    599.224    466.715    475.466    466.715
109.870    590.173    597.057     -6.884    466.608    588.015    466.608    475.666    466.608
109.970    589.000    586.708      2.292    466.504    577.335    466.504    475.891    466.504
110.070    593.000    577.098     15.902    466.402    567.369    466.402    476.144    466.402
110.170    630.000    568.369     61.631    466.304    558.256    466.304    476.427    466.304
110.270    561.159    560.622      0.538    466.208    550.093    466.208    476.745    466.208
110.370    587.000    553.912     33.088    466.115    542.931    466.115    477.103    466.115
110.470    569.000    548.235     20.765    466.025    536.760    466.025    477.505    466.025
110.570    521.000    543.606    -22.606    465.937    531.588    465.937    477.959    465.937
110.670    512.307    540.003    -27.696    465.853    527.386    465.853    478.472    465.853
110.770    509.851    537.350    -27.499    465.771    524.066    465.771    479.056    465.771
110.870    565.000    535.574     29.426    465.693    521.544    465.693    479.722    465.693
110.970    541.000    534.599      6.401    465.618    519.730    465.618    480.484    465.618
111.070    548.209    534.352     13.856    465.545    518.533    465.545    481.361    465.545
111.170    525.000    534.763     -9.763    465.476    517.863    465.476    482.373    465.476
111.270    538.000    535.771      2.229    465.410    517.633    465.410    483.543    465.410
111.370    543.000    537.327      5.673    465.347    517.768    465.347    484.900    465.347
111.470    557.000    539.393     17.607    465.288    518.198    465.288    486.476    465.288
111.570    537.000    541.948     -4.948    465.231    518.865    465.231    488.308    465.231
111.670    514.419    544.983    -30.564    465.178    519.718    465.178    490.436    465.178
111.770    547.000    548.504     -1.504    465.129    520.720    465.129    492.905    465.129
111.870    537.000    552.533    -15.533    465.082    521.843    465.082    495.765    465.082
111.970    584.000    557.106     26.894    465.040    523.070    465.040    499.068    465.040
112.070    551.696    562.272    -10.575    465.000    524.394    465.000    502.869    465.000
112.170    545.000    568.090    -23.090    464.964    525.821    464.964    507.224    464.964
112.270    536.000    574.630    -38.630    464.932    527.364    464.932    512.189    464.932
112.370    570.000    581.970    -11.970    464.904    529.046    464.904    517.819    464.904
112.470    587.332    590.192     -2.860    464.878    530.898    464.878    524.164    464.878
112.570    602.000    599.380      2.620    464.857    532.962    464.857    531.267    464.857
112.670    584.000    609.624    -25.624    464.839    535.291    464.839    539.163    464.839
112.770    618.000    621.015     -3.015    464.826    537.956    464.826    547.876    464.826
112.870    661.223    633.652     27.571    464.816    541.043    464.816    557.415    464.816
112.970    636.000    647.641    -11.641    464.809    544.669    464.809    567.771    464.809
113.070    635.000    663.106    -28.106    464.807    548.986    464.807    578.917    464.807
113.170    728.515    680.195     48.320    464.809    554.192    464.809    590.800    464.809
113.270    749.672    699.092     50.580    464.814    560.548    464.814    603.346    464.814
113.370    675.569    720.031    -44.461    464.824    568.392    464.824    616.448    464.824
113.470    727.791    743.313    -15.522    464.838    578.162    464.838    629.972    464.838
113.570    827.000    769.326     57.674    464.855    590.414    464.855    643.747    464.855
113.670    785.000    798.568    -13.568    464.877    605.853    464.877    657.568    464.877
113.770    868.228    831.669     36.559    464.903    625.352    464.903    671.191    464.903
113.870    901.000    869.417     31.583    464.934    649.980    464.934    684.333    464.934
113.970    939.676    912.780     26.895    464.968    681.025    464.968    696.676    464.968
114.070    909.675    962.937    -53.262    465.007    720.009    465.007    707.876    465.007
114.170   1006.000   1021.291    -15.291    465.051    768.696    465.051    717.572    465.051
114.270   1042.000   1089.495    -47.495    465.098    829.085    465.098    725.417    465.098
114.370   1226.000   1169.451     56.549    465.151    903.392    465.151    731.096    465.151
114.470   1262.000   1263.305     -1.305    465.207    994.005    465.207    734.367    465.207
114.570   1461.000   1373.406     87.594    465.269   1103.421    465.269    735.083    465.269
114.670   1558.223   1502.237     55.986    465.334   1234.152    465.334    733.213    465.334
114.770   1625.022   1652.300    -27.279    465.405   1388.612    465.405    728.846    465.405
114.870   1923.000   1825.964     97.036    465.480   1568.972    465.480    722.181    465.480
114.970   1946.251   2025.277    -79.025    465.560   1777.000    465.560    713.497    465.560
115.070   2194.756   2251.762    -57.006    465.645   2013.884    465.645    703.131    465.645
115.170   2464.595   2506.207    -41.612    465.734   2280.056    465.734    691.440    465.734
115.270   2868.000   2788.465     79.535    465.829   2575.015    465.829    678.779    465.829
115.370   3163.000   3097.279     65.721    465.928   2897.173    465.928    665.481    465.928
115.470   3500.000   3430.154     69.846    466.033   3243.736    466.033    651.848    466.033
115.570   3735.000   3783.270    -48.270    466.142   3610.621    466.142    638.142    466.142
115.670   4259.000   4151.449    107.551    466.256   3992.428    466.256    624.590    466.256
115.770   4499.098   4528.192    -29.094    466.376   4382.473    466.376    611.379    466.376
115.870   4922.882   4905.766     17.117    466.501   4772.876    466.501    598.658    466.501
115.970   5247.122   5275.378    -28.256    466.631   5154.718    466.631    586.554    466.631
116.070   5627.000   5627.380     -0.380    466.766   5518.266    466.766    575.155    466.766
116.170   5951.000   5951.591     -0.591    466.906   5853.277    466.906    564.524    466.906
116.270   6392.455   6237.692    154.763    467.052   6149.391    467.052    554.700    467.052
116.370   6584.000   6475.735    108.265    467.204   6396.645    467.204    545.702    467.204
116.470   6784.000   6656.764    127.236    467.360   6586.080    467.360    537.529    467.360
116.570   6744.497   6773.502    -29.005    467.523   6710.435    467.523    530.164    467.523
116.670   6892.000   6821.021     70.979    467.690   6764.806    467.690    523.579    467.690
116.770   6899.000   6797.251    101.749    467.864   6747.160    467.864    517.733    467.864
116.870   6800.840   6703.203     97.637    468.043   6658.549    468.043    512.580    468.043
116.970   6439.000   6542.839   -103.839    468.228   6502.984    468.228    508.067    468.228
117.070   6347.000   6322.636     24.364    468.418   6286.993    468.418    504.139    468.418
117.170   6100.566   6050.947     49.619    468.615   6018.982    468.615    500.740    468.615
117.270   5759.594   5737.310     22.284    468.817   5708.544    468.817    497.813    468.817
117.370   5213.000   5391.810   -178.810    469.025   5365.822    469.025    495.297    469.025
117.470   5111.034   5024.561     86.473    469.239   5000.967    469.239    493.157    469.239
117.570   4579.000   4645.248    -66.248    469.460   4623.719    469.460    491.340    469.460
117.670   4245.000   4262.818    -17.818    469.686   4243.068    469.686    489.801    469.686
117.770   3875.780   3885.252     -9.472    469.918   3867.035    469.918    488.502    469.918
117.870   3620.000   3519.427    100.573    470.157   3502.533    470.157    487.408    470.157
117.970   3203.000   3170.926     32.074    470.402   3155.178    470.402    486.490    470.402
118.070   2855.000   2844.078     10.922    470.653   2829.326    470.653    485.721    470.653
118.170   2554.000   2541.970     12.030    470.910   2528.088    470.910    485.080    470.910
118.270   2297.000   2266.516     30.484    471.174   2253.400    471.174    484.548    471.174
118.370   1938.000   2018.579    -80.579    471.444   2006.140    471.444    484.108    471.444
118.470   1755.000   1798.105    -43.105    471.721   1786.270    471.721    483.748    471.721
118.570   1628.052   1604.284     23.768    472.005   1592.993    472.005    483.457    472.005
118.670   1424.000   1435.714    -11.714    472.295   1424.916    472.295    483.225    472.295
118.770   1272.000   1290.561    -18.561    472.591   1280.213    472.591    483.046    472.591
118.870   1142.000   1166.709    -24.709    472.895   1156.774    472.895    482.913    472.895
118.970   1046.000   1061.900    -15.900    473.205   1052.346    473.205    482.822    473.205
119.070    942.000    973.847    -31.847    473.522    964.648    473.522    482.769    473.522
119.170    866.000    900.330    -34.330    473.846    891.460    473.846    482.750    473.846
119.270    827.000    839.262    -12.262    474.176    830.700    474.176    482.762    474.176
119.370    749.000    788.738    -39.738    474.514    780.463    474.514    482.805    474.514
119.470    756.000    747.059      8.941    474.859    739.052    474.859    482.876    474.859
119.570    693.000    712.743    -19.743    475.211    704.985    475.211    482.974    475.211
119.670    736.255    684.519     51.736    475.570    676.994    475.570    483.098    475.570
119.770    652.115    661.319     -9.204    475.937    654.010    475.937    483.247    475.937
119.870    601.000    642.255    -41.255    476.311    635.144    476.311    483.421    476.311
119.970    612.000    626.600    -14.600    476.692    619.672    476.692    483.619    476.692
120.070    623.323    613.766      9.558    477.080    607.003    477.080    483.842    477.080
120.170    582.000    603.279    -21.279    477.476    596.666    477.476    484.088    477.476
120.270    628.000    594.764     33.236    477.880    588.285    477.880    484.359    477.880
120.370    586.000    587.924     -1.924    478.291    581.562    478.291    484.653    478.291
120.470    565.000    582.524    -17.524    478.710    576.263    478.710    484.972    478.710
120.570    593.000    578.382     14.618    479.136    572.205    479.136    485.315    479.136
120.670    607.000    575.352     31.648    479.570    569.242    479.570    485.683    479.570
120.770    590.000    573.321     16.679    480.012    567.262    480.012    486.075    480.012
120.870    581.000    572.198      8.802    480.462    566.172    480.462    486.493    480.462
120.970    531.066    571.909    -40.843    480.920    565.899    480.920    486.935    480.920
121.070    551.000    572.390    -21.390    481.386    566.380    481.386    487.403    481.386
121.170    579.935    573.587      6.348    481.860    567.559    481.860    487.896    481.860
121.270    510.000    575.445    -65.445    482.342    569.383    482.342    488.413    482.342
121.370    566.000    577.914    -11.914    482.832    571.802    482.832    488.955    482.832
121.470    577.000    580.938     -3.938    483.330    574.760    483.330    489.521    483.330
121.570    558.000    584.457    -26.457    483.837    578.199    483.837    490.111    483.837
121.670    625.000    588.407     36.593    484.352    582.054    484.352    490.722    484.352
121.770    563.671    592.714    -29.044    484.876    586.255    484.876    491.355    484.876
121.870    584.000    597.300    -13.300    485.408    590.723    485.408    492.008    485.408
121.970    602.000    602.076     -0.076    485.949    595.371    485.949    492.678    485.949
122.070    608.000    606.947      1.053    486.498    600.107    486.498    493.365    486.498
122.170    627.010    611.810     15.200    487.056    604.832    487.056    494.065    487.056
122.270    626.000    616.561      9.439    487.623    609.440    487.623    494.776    487.623
122.370    573.000    621.088    -48.088    488.198    613.827    488.198    495.495    488.198
122.470    599.000    625.284    -26.284    488.782    617.886    488.782    496.218    488.782
122.570    654.000    629.042     24.958    489.376    621.516    489.376    496.942    489.376
122.670    606.000    632.268    -26.268    489.978    624.626    489.978    497.662    489.978
122.770    636.000    634.880      1.120    490.590    627.139    490.590    498.375    490.590
122.870    628.000    636.817     -8.817    491.210    628.996    491.210    499.076    491.210
122.970    663.500    638.040     25.460    491.840    630.165    491.840    499.761    491.840
123.070    667.000    638.537     28.463    492.479    630.635    492.479    500.427    492.479
123.170    627.000    638.320    -11.320    493.127    630.422    493.127    501.071    493.127
123.270    642.391    637.425      4.966    493.785    629.564    493.785    501.691    493.785
123.370    625.000    635.905    -10.905    494.452    628.114    494.452    502.287    494.452
123.470    667.588    633.828     33.760    495.129    626.140    495.129    502.859    495.129
123.570    678.941    631.269     47.672    495.815    623.716    495.815    503.408    495.815
123.670    612.000    628.311    -16.311    496.511    620.922    496.511    503.938    496.511
123.770    620.000    625.036     -5.036    497.217    617.836    497.217    504.452    497.217
123.870    601.800    621.523    -19.722    497.933    614.535    497.933    504.953    497.933
123.970    618.000    617.847      0.153    498.658    611.090    498.658    505.445    498.658
124.070    640.000    614.079     25.921    499.393    607.566    499.393    505.933    499.393
124.170    604.000    610.277     -6.277    500.139    604.018    500.139    506.421    500.139
124.270    683.000    606.491     76.509    500.894    600.493    500.894    506.913    500.894
124.370    558.653    602.763    -44.109    501.660    597.029    501.660    507.411    501.660
124.470    624.000    599.121     24.879    502.435    593.652    502.435    507.919    502.435
124.570    630.630    595.586     35.044    503.221    590.380    503.221    508.440    503.221
124.670    591.000    592.171     -1.171    504.018    587.223    504.018    508.976    504.018
124.770    609.000    588.880     20.120    504.825    584.184    504.825    509.530    504.825
124.870    567.000    585.713    -18.713    505.642    581.262    505.642    510.101    505.642
124.970    604.000    582.668     21.332    506.470    578.451    506.470    510.693    506.470
