neutron_powder_diffraction_0203
R_wp: 3.961
Temperature (K): 1074.000
Counts: 84115.00
Wavelength (Ã…): 2.52098
COMMENTS
Test file for demonstrating the .xyy file format in Reel1.0
END OF HEADER
   tth       Y_obs     Y_calc      Y_res    Background    Phase_1_Nuc    Phase_1_Mag    Phase_2_Nuc    Phase_2_Mag
  9.970    602.000    570.780     31.220    570.079    570.747    570.079    570.112    570.079
 10.070    572.000    570.996      1.004    570.228    570.953    570.228    570.270    570.228
 10.170    610.000    571.205     38.795    570.369    571.160    570.369    570.413    570.369
 10.270    556.780    571.415    -14.635    570.503    571.371    570.503    570.548    570.503
 10.370    615.000    571.632     43.368    570.631    571.587    570.631    570.675    570.631
 10.470    581.709    571.856      9.852    570.752    571.811    570.752    570.796    570.752
 10.570    603.000    572.093     30.907    570.866    572.048    570.866    570.911    570.866
 10.670    547.079    572.347    -25.268    570.973    572.301    570.973    571.018    570.973
 10.770    599.000    572.625     26.375    571.073    572.579    571.073    571.119    571.073
 10.870    636.000    572.935     63.065    571.168    572.889    571.168    571.213    571.168
 10.970    544.477    573.291    -28.814    571.255    573.244    571.255    571.301    571.255
 11.070    573.000    573.715     -0.715    571.336    573.662    571.336    571.388    571.336
 11.170    572.000    574.223     -2.223    571.411    574.169    571.411    571.464    571.411
 11.270    570.000    574.861     -4.861    571.480    574.806    571.480    571.532    571.480
 11.370    612.000    575.698     36.302    571.542    575.643    571.542    571.595    571.542
 11.470    597.000    576.888     20.112    571.598    576.832    571.598    571.651    571.598
 11.570    603.000    578.855     24.145    571.648    578.797    571.648    571.701    571.648
 11.670    608.000    582.772     25.228    571.692    582.713    571.692    571.745    571.692
 11.770    614.000    591.303     22.697    571.729    591.238    571.729    571.783    571.729
 11.870    622.592    608.621     13.971    571.761    608.546    571.761    571.815    571.761
 11.970    635.796    637.844     -2.048    571.787    637.753    571.787    571.842    571.787
 12.070    649.000    675.125    -26.125    571.807    675.013    571.807    571.862    571.807
 12.170    700.000    704.329     -4.329    571.822    704.200    571.822    571.877    571.822
 12.270    696.000    705.288     -9.288    571.830    705.159    571.830    571.886    571.830
 12.370    647.000    677.153    -30.153    571.833    677.039    571.833    571.889    571.833
 12.470    626.253    639.735    -13.482    571.830    639.641    571.830    571.886    571.830
 12.570    606.498    609.885     -3.387    571.822    609.808    571.822    571.879    571.822
 12.670    638.339    592.008     46.331    571.809    591.940    571.809    571.866    571.809
 12.770    509.000    583.167    -74.167    571.790    583.100    571.790    571.850    571.790
 12.870    574.000    579.124     -5.124    571.765    579.058    571.765    571.827    571.765
 12.970    542.000    577.122    -35.122    571.735    577.057    571.735    571.797    571.735
 13.070    529.000    575.931    -46.931    571.700    575.867    571.700    571.763    571.700
 13.170    605.398    575.106     30.292    571.660    575.041    571.660    571.723    571.660
 13.270    557.000    574.486    -17.486    571.614    574.421    571.614    571.678    571.614
 13.370    564.000    573.999     -9.999    571.564    573.934    571.564    571.628    571.564
 13.470    576.000    573.605      2.395    571.508    573.540    571.508    571.573    571.508
 13.570    551.000    573.276    -22.276    571.448    573.210    571.448    571.512    571.448
 13.670    554.961    572.994    -18.034    571.382    572.929    571.382    571.447    571.382
 13.770    584.000    572.748     11.252    571.312    572.682    571.312    571.377    571.312
 13.870    549.000    572.527    -23.527    571.237    572.461    571.237    571.302    571.237
 13.970    554.000    572.326    -18.326    571.157    572.260    571.157    571.223    571.157
 14.070    547.775    572.139    -24.364    571.072    572.073    571.072    571.138    571.072
 14.170    595.756    571.963     23.793    570.983    571.896    570.983    571.050    570.983
 14.270    559.000    571.795    -12.795    570.889    571.728    570.889    570.956    570.889
 14.370    528.211    571.633    -43.422    570.791    571.565    570.791    570.858    570.791
 14.470    561.000    571.477    -10.477    570.688    571.409    570.688    570.755    570.688
 14.570    544.000    571.323    -27.323    570.580    571.255    570.580    570.648    570.580
 14.670    557.359    571.169    -13.810    570.468    571.100    570.468    570.537    570.468
 14.770    580.176    571.016      9.160    570.352    570.947    570.352    570.421    570.352
 14.870    535.000    570.862    -35.862    570.232    570.793    570.232    570.301    570.232
 14.970    520.000    570.709    -50.709    570.107    570.639    570.107    570.176    570.107
 15.070    552.136    570.554    -18.418    569.978    570.484    569.978    570.048    569.978
 15.170    621.000    570.398     50.602    569.845    570.327    569.845    569.915    569.845
 15.270    537.000    570.240    -33.240    569.708    570.169    569.708    569.779    569.708
 15.370    568.000    570.082     -2.082    569.567    570.009    569.567    569.639    569.567
 15.470    615.378    569.921     45.457    569.421    569.847    569.421    569.495    569.421
 15.570    585.000    569.758     15.242    569.272    569.684    569.272    569.346    569.272
 15.670    603.447    569.593     33.854    569.119    569.519    569.119    569.193    569.119
 15.770    543.000    569.425    -26.425    568.962    569.350    568.962    569.037    568.962
 15.870    575.000    569.253      5.747    568.802    569.178    568.802    568.877    568.802
 15.970    538.000    569.079    -31.079    568.637    569.004    568.637    568.713    568.637
 16.070    527.345    568.903    -41.557    568.469    568.827    568.469    568.545    568.469
 16.170    556.000    568.723    -12.723    568.298    568.647    568.298    568.374    568.298
 16.270    546.000    568.541    -22.541    568.122    568.464    568.122    568.199    568.122
 16.370    550.206    568.356    -18.150    567.943    568.279    567.943    568.021    567.943
 16.470    577.000    568.168      8.832    567.761    568.090    567.761    567.839    567.761
 16.570    575.000    567.978      7.022    567.575    567.899    567.575    567.653    567.575
 16.670    537.058    567.784    -30.726    567.386    567.705    567.386    567.464    567.386
 16.770    567.895    567.588      0.307    567.193    567.509    567.193    567.272    567.193
 16.870    574.655    567.389      7.266    566.997    567.309    566.997    567.077    566.997
 16.970    535.479    567.187    -31.709    566.798    567.107    566.798    566.878    566.798
 17.070    542.000    566.985    -24.985    566.595    566.904    566.595    566.676    566.595
 17.170    610.417    566.778     43.639    566.390    566.697    566.390    566.471    566.390
 17.270    581.284    566.568     14.716    566.181    566.486    566.181    566.263    566.181
 17.370    611.426    566.355     45.071    565.969    566.273    565.969    566.051    565.969
 17.470    520.000    566.139    -46.139    565.754    566.056    565.754    565.837    565.754
 17.570    535.000    565.921    -30.921    565.536    565.838    565.536    565.619    565.536
 17.670    601.499    565.701     35.798    565.315    565.616    565.315    565.400    565.315
 17.770    557.000    565.482     -8.482    565.091    565.392    565.091    565.181    565.091
 17.870    558.000    565.258     -7.258    564.865    565.166    564.865    564.956    564.865
 17.970    560.747    565.029     -4.283    564.635    564.937    564.635    564.728    564.635
 18.070    576.000    564.798     11.202    564.403    564.705    564.403    564.496    564.403
 18.170    578.000    564.565     13.435    564.168    564.471    564.168    564.262    564.168
 18.270    571.122    564.329      6.793    563.930    564.234    563.930    564.024    563.930
 18.370    568.000    564.091      3.909    563.689    563.996    563.689    563.785    563.689
 18.470    572.000    563.851      8.149    563.446    563.755    563.446    563.542    563.446
 18.570    571.023    563.608      7.415    563.201    563.511    563.201    563.298    563.201
 18.670    579.000    563.363     15.637    562.953    563.266    562.953    563.050    562.953
 18.770    558.285    563.117     -4.831    562.702    563.018    562.702    562.800    562.702
 18.870    589.000    562.868     26.132    562.449    562.769    562.449    562.548    562.449
 18.970    538.000    562.618    -24.618    562.194    562.518    562.194    562.293    562.194
 19.070    601.000    562.364     38.636    561.936    562.264    561.936    562.036    561.936
 19.170    577.000    562.109     14.891    561.676    562.008    561.676    561.777    561.676
 19.270    598.000    561.851     36.149    561.413    561.749    561.413    561.515    561.413
 19.370    525.140    561.592    -36.452    561.149    561.489    561.149    561.251    561.149
 19.470    532.278    561.331    -29.052    560.882    561.227    560.882    560.985    560.882
 19.570    593.000    561.068     31.932    560.613    560.963    560.613    560.717    560.613
 19.670    583.000    560.804     22.196    560.342    560.699    560.342    560.447    560.342
 19.770    583.000    560.551     22.449    560.068    560.445    560.068    560.175    560.068
 19.870    593.000    560.293     32.707    559.793    560.186    559.793    559.900    559.793
 19.970    578.000    560.024     17.976    559.516    559.916    559.516    559.624    559.516
 20.070    593.296    559.753     33.543    559.237    559.644    559.237    559.346    559.237
 20.170    547.379    559.481    -12.101    558.955    559.371    558.955    559.066    558.955
 20.270    583.629    559.207     24.422    558.672    559.096    558.672    558.783    558.672
 20.370    529.021    558.931    -29.910    558.387    558.819    558.387    558.500    558.387
 20.470    566.074    558.655      7.419    558.101    558.542    558.101    558.214    558.101
 20.570    560.000    558.377      1.623    557.812    558.263    557.812    557.926    557.812
 20.670    548.000    558.098    -10.098    557.522    557.983    557.522    557.637    557.522
 20.770    602.012    557.819     44.194    557.230    557.702    557.230    557.347    557.230
 20.870    568.000    557.538     10.462    556.936    557.420    556.936    557.054    556.936
 20.970    579.000    557.256     21.744    556.641    557.137    556.641    556.760    556.641
 21.070    540.000    556.974    -16.974    556.344    556.854    556.344    556.464    556.344
 21.170    599.984    556.691     43.293    556.046    556.570    556.046    556.167    556.046
 21.270    553.000    556.408     -3.408    555.746    556.285    555.746    555.869    555.746
 21.370    528.000    556.124    -28.124    555.445    556.000    555.445    555.569    555.445
 21.470    546.000    555.840     -9.840    555.142    555.715    555.142    555.267    555.142
 21.570    540.000    555.556    -15.556    554.838    555.429    554.838    554.964    554.838
 21.670    580.000    555.280     24.720    554.532    555.152    554.532    554.660    554.532
 21.770    523.000    555.081    -32.081    554.225    554.951    554.225    554.355    554.225
 21.870    521.000    554.820    -33.820    553.917    554.688    553.917    554.048    553.917
 21.970    566.000    554.541     11.459    553.607    554.406    553.607    553.742    553.607
 22.070    569.000    554.264     14.736    553.296    554.126    553.296    553.434    553.296
 22.170    583.932    554.008     29.924    552.984    553.868    552.984    553.124    552.984
 22.270    554.000    553.766      0.234    552.671    553.625    552.671    552.812    552.671
 22.370    577.805    553.540     24.265    552.357    553.397    552.357    552.500    552.357
 22.470    585.506    553.288     32.218    552.041    553.143    552.041    552.186    552.041
 22.570    538.000    553.022    -15.022    551.725    552.876    551.725    551.872    551.725
 22.670    522.502    552.760    -30.258    551.407    552.611    551.407    551.556    551.407
 22.770    573.995    552.504     21.491    551.089    552.353    551.089    551.240    551.089
 22.870    580.173    552.255     27.918    550.769    552.101    550.769    550.923    550.769
 22.970    583.000    552.014     30.986    550.449    551.859    550.449    550.604    550.449
 23.070    520.000    551.785    -31.785    550.127    551.628    550.127    550.285    550.127
 23.170    591.000    551.573     39.427    549.805    551.413    549.805    549.966    549.805
 23.270    599.006    551.375     47.632    549.482    551.212    549.482    549.645    549.482
 23.370    594.575    551.199     43.376    549.158    551.034    549.158    549.324    549.158
 23.470    533.000    551.053    -18.053    548.833    550.885    548.833    549.002    548.833
 23.570    540.000    550.945    -10.945    548.508    550.774    548.508    548.679    548.508
 23.670    536.483    550.889    -14.406    548.182    550.716    548.182    548.356    548.182
 23.770    558.000    550.905      7.095    547.855    550.729    547.855    548.032    547.855
 23.870    532.507    551.023    -18.517    547.527    550.844    547.527    547.708    547.527
 23.970    536.321    551.303    -14.981    547.199    551.120    547.199    547.383    547.199
 24.070    506.891    551.878    -44.987    546.870    551.693    546.870    547.058    546.870
 24.170    545.536    553.129     -7.593    546.541    552.941    546.541    546.732    546.541
 24.270    543.680    556.039    -12.359    546.211    555.849    546.211    546.406    546.211
 24.370    518.430    562.603    -44.173    545.880    562.414    545.880    546.080    545.880
 24.470    587.000    575.499     11.501    545.550    575.316    545.550    545.754    545.550
 24.570    608.771    595.954     12.817    545.218    595.781    545.218    545.427    545.218
 24.670    648.000    619.941     28.059    544.886    619.781    544.886    545.100    544.886
 24.770    676.000    635.755     40.245    544.554    635.601    544.554    544.773    544.554
 24.870    563.000    631.841    -68.841    544.222    631.679    544.222    544.446    544.222
 24.970    636.642    611.356     25.286    543.889    611.174    543.889    544.119    543.889
 25.070    578.065    587.253     -9.189    543.555    587.048    543.555    543.791    543.555
 25.170    545.000    568.655    -23.655    543.222    568.430    543.222    543.464    543.222
 25.270    565.000    557.492      7.508    542.888    557.252    542.888    543.138    542.888
 25.370    563.090    551.778     11.312    542.554    551.526    542.554    542.811    542.554
 25.470    567.000    548.967     18.033    542.220    548.706    542.220    542.484    542.220
 25.570    547.000    547.433     -0.433    541.885    547.162    541.885    542.158    541.885
 25.670    547.729    546.429      1.301    541.551    546.148    541.551    541.833    541.551
 25.770    589.901    545.673     44.228    541.216    545.383    541.216    541.508    541.216
 25.870    508.462    545.066    -36.604    540.881    544.765    540.881    541.183    540.881
 25.970    579.026    544.565     34.462    540.546    544.252    540.546    540.860    540.546
 26.070    541.000    544.143     -3.143    540.211    543.818    540.211    540.537    540.211
 26.170    533.000    543.785    -10.785    539.876    543.447    539.876    540.215    539.876
 26.270    520.000    543.507    -23.507    539.541    543.155    539.541    539.894    539.541
 26.370    553.000    543.277      9.723    539.206    542.909    539.206    539.574    539.206
 26.470    535.000    543.078     -8.078    538.872    542.693    538.872    539.256    538.872
 26.570    516.000    542.931    -26.931    538.537    542.528    538.537    538.940    538.537
 26.670    582.143    542.840     39.302    538.202    542.417    538.202    538.625    538.202
 26.770    514.894    542.821    -27.927    537.867    542.376    537.867    538.313    537.867
 26.870    547.000    542.866      4.134    537.533    542.396    537.533    538.003    537.533
 26.970    586.000    543.014     42.986    537.199    542.516    537.199    537.696    537.199
 27.070    544.000    543.293      0.707    536.865    542.765    536.865    537.392    536.865
 27.170    585.000    543.705     41.295    536.531    543.143    536.531    537.091    536.531
 27.270    597.000    544.324     52.676    536.197    543.724    536.197    536.796    536.197
 27.370    583.244    545.235     38.009    535.864    544.592    535.864    536.505    535.864
 27.470    560.000    546.590     13.410    535.531    545.899    535.531    536.220    535.531
 27.570    568.000    548.784     19.216    535.198    548.037    535.198    535.942    535.198
 27.670    577.000    553.199     23.801    534.865    552.388    534.865    535.672    534.865
 27.770    530.165    564.500    -34.336    534.533    563.613    534.533    535.413    534.533
 27.870    595.000    594.417      0.583    534.201    593.435    534.201    535.165    534.201
 27.970    710.404    661.041     49.364    533.870    659.939    533.870    534.932    533.870
 28.070    801.914    772.220     29.694    533.539    770.970    533.539    534.718    533.539
 28.170    938.771    896.455     42.316    533.209    895.039    533.209    534.525    533.209
 28.270    928.000    957.748    -29.748    532.879    956.167    532.879    534.362    532.879
 28.370    890.000    905.938    -15.938    532.549    904.190    532.549    534.235    532.549
 28.470    710.000    794.410    -84.410    532.220    792.447    532.220    534.158    532.220
 28.570    733.000    708.201     24.799    531.892    705.932    531.892    534.149    531.892
 28.670    686.000    690.893     -4.893    531.564    688.200    531.564    534.242    531.564
 28.770    725.069    737.352    -12.282    531.237    734.073    531.237    534.495    531.237
 28.870    734.000    807.077    -73.077    530.910    802.964    530.910    535.009    530.910
 28.970    838.000    840.061     -2.061    530.584    834.699    530.584    535.947    530.584
 29.070    769.000    800.896    -31.896    530.258    793.629    530.258    537.536    530.258
 29.170    668.077    720.673    -52.596    529.933    710.575    529.933    540.043    529.933
 29.270    610.000    647.297    -37.297    529.609    633.223    529.609    543.690    529.609
 29.370    559.000    602.361    -43.361    529.285    583.150    529.285    548.499    529.285
 29.470    620.000    583.023     36.977    528.963    557.972    528.963    554.013    528.963
 29.570    602.000    577.294     24.706    528.640    547.051    528.640    558.882    528.640
 29.670    643.000    574.839     68.161    528.319    542.200    528.319    560.955    528.319
 29.770    574.000    570.490      3.510    527.998    539.581    527.998    558.905    527.998
 29.870    586.000    563.930     22.070    527.679    537.865    527.679    553.742    527.679
 29.970    594.000    556.890     37.110    527.360    536.649    527.360    547.599    527.360
 30.070    543.000    550.744     -7.744    527.041    535.801    527.041    541.983    527.041
 30.170    588.000    546.059     41.941    526.724    535.298    526.724    537.483    526.724
 30.270    567.000    542.988     24.012    526.408    535.249    526.408    534.144    526.408
 30.370    563.905    541.771     22.134    526.092    536.092    526.092    531.767    526.092
 30.470    556.000    543.298     12.702    525.777    538.981    525.777    530.088    525.777
 30.570    533.370    549.462    -16.092    525.463    546.043    525.463    528.870    525.463
 30.670    579.011    562.408     16.602    525.150    559.598    525.150    527.938    525.150
 30.770    581.000    581.937     -0.937    524.838    579.556    524.838    527.182    524.838
 30.870    610.000    602.203      7.797    524.527    600.142    524.527    526.537    524.527
 30.970    598.631    611.420    -12.790    524.217    609.617    524.217    525.966    524.217
 31.070    598.000    601.795     -3.795    523.908    600.210    523.908    525.447    523.908
 31.170    563.051    580.554    -17.503    523.600    579.156    523.600    524.969    523.600
 31.270    559.000    559.475     -0.475    523.293    558.232    523.293    524.520    523.293
 31.370    557.000    544.644     12.356    522.987    543.527    522.987    524.096    522.987
 31.470    495.186    536.356    -41.169    522.682    535.343    522.682    523.691    522.682
 31.570    565.000    532.341     32.659    522.378    531.414    522.378    523.302    522.378
 31.670    508.118    530.417    -22.298    522.075    529.563    522.075    522.927    522.075
 31.770    517.391    529.359    -11.969    521.774    528.569    521.774    522.562    521.774
 31.870    541.270    528.670     12.600    521.473    527.935    521.473    522.207    521.473
 31.970    498.212    528.178    -29.966    521.174    527.491    521.174    521.860    521.174
 32.070    531.000    527.827      3.173    520.875    527.182    520.875    521.519    520.875
 32.170    536.000    527.592      8.408    520.578    526.984    520.578    521.185    520.578
 32.270    561.449    527.463     33.986    520.282    526.887    520.282    520.857    520.282
 32.370    504.000    527.443    -23.443    519.987    526.896    519.987    520.533    519.987
 32.470    568.000    527.540     40.460    519.694    527.020    519.694    520.213    519.694
 32.570    520.000    527.772     -7.772    519.401    527.275    519.401    519.897    519.401
 32.670    518.000    528.164    -10.164    519.110    527.687    519.110    519.585    519.110
 32.770    518.991    528.754     -9.763    518.820    528.296    518.820    519.277    518.820
 32.870    554.000    529.598     24.402    518.531    529.157    518.531    518.971    518.531
 32.970    514.059    530.779    -16.720    518.244    530.353    518.244    518.668    518.244
 33.070    562.000    532.425     29.575    517.958    532.014    517.958    518.368    517.958
 33.170    500.673    534.771    -34.097    517.673    534.371    517.673    518.071    517.673
 33.270    520.000    538.355    -18.355    517.389    537.966    517.389    517.776    517.389
 33.370    522.000    544.641    -22.641    517.107    544.262    517.107    517.483    517.107
 33.470    599.125    557.457     41.668    516.826    557.085    516.826    517.192    516.826
 33.570    613.156    585.034     28.121    516.547    584.666    516.547    516.904    516.547
 33.670    610.841    640.297    -29.456    516.268    639.927    516.268    516.618    516.268
 33.770    798.000    734.835     63.165    515.992    734.457    515.992    516.334    515.992
 33.870    849.000    864.756    -15.756    515.716    864.368    515.716    516.052    515.716
 33.970    990.000    994.816     -4.816    515.442    994.423    515.442    515.771    515.442
 34.070   1072.000   1058.474     13.526    515.169   1058.097    515.169    515.493    515.169
 34.170   1070.000   1010.601     59.399    514.898   1010.255    514.898    515.217    514.898
 34.270    876.190    886.555    -10.365    514.628    886.238    514.628    514.942    514.628
 34.370    764.000    753.284     10.716    514.360    752.982    514.360    514.669    514.360
 34.470    675.000    651.606     23.394    514.093    651.309    514.093    514.399    514.093
 34.570    622.159    589.734     32.425    513.827    589.437    513.827    514.129    513.827
 34.670    537.327    557.704    -20.376    513.563    557.407    513.563    513.862    513.563
 34.770    544.000    542.348      1.652    513.301    542.052    513.301    513.597    513.301
 34.870    515.000    534.623    -19.623    513.040    534.329    513.040    513.333    513.040
 34.970    508.000    530.084    -22.084    512.780    529.793    512.780    513.071    512.780
 35.070    544.607    526.964     17.643    512.522    526.675    512.522    512.811    512.522
 35.170    517.994    524.608     -6.614    512.265    524.321    512.265    512.552    512.265
 35.270    517.000    522.743     -5.743    512.010    522.458    512.010    512.295    512.010
 35.370    548.675    521.225     27.449    511.757    520.942    511.757    512.040    511.757
 35.470    499.000    519.964    -20.964    511.505    519.682    511.505    511.787    511.505
 35.570    491.640    518.897    -27.257    511.254    518.616    511.254    511.535    511.254
 35.670    549.000    517.979     31.021    511.006    517.699    511.006    511.285    511.006
 35.770    526.000    517.179      8.821    510.758    516.900    510.758    511.037    510.758
 35.870    527.243    516.474     10.769    510.513    516.196    510.513    510.791    510.513
 35.970    515.000    515.846     -0.846    510.268    515.568    510.268    510.546    510.268
 36.070    478.260    515.281    -37.021    510.026    515.004    510.026    510.303    510.026
 36.170    491.098    514.771    -23.673    509.785    514.494    509.785    510.062    509.785
 36.270    472.000    514.307    -42.307    509.546    514.030    509.546    509.822    509.546
 36.370    479.047    513.885    -34.838    509.308    513.608    509.308    509.585    509.308
 36.470    517.174    513.501      3.673    509.072    513.225    509.072    509.348    509.072
 36.570    512.000    513.155     -1.155    508.837    512.878    508.837    509.114    508.837
 36.670    524.000    512.847     11.153    508.605    512.570    508.605    508.882    508.605
 36.770    496.020    512.583    -16.563    508.373    512.306    508.373    508.651    508.373
 36.870    511.862    512.384     -0.522    508.144    512.106    508.144    508.422    508.144
 36.970    507.304    512.301     -4.997    507.916    512.023    507.916    508.195    507.916
 37.070    539.238    512.456     26.782    507.690    512.177    507.690    507.969    507.690
 37.170    491.000    513.083    -22.083    507.466    512.803    507.466    507.746    507.466
 37.270    529.107    514.507     14.600    507.243    514.227    507.243    507.524    507.243
 37.370    500.000    516.995    -16.995    507.022    516.714    507.022    507.304    507.022
 37.470    515.989    520.451     -4.462    506.802    520.170    506.802    507.085    506.802
 37.570    516.000    524.079     -8.079    506.584    523.798    506.584    506.869    506.584
 37.670    488.913    526.349    -37.436    506.368    526.068    506.368    506.654    506.368
 37.770    540.000    525.979     14.021    506.154    525.699    506.154    506.441    506.154
 37.870    530.000    523.297      6.703    505.942    523.017    505.942    506.230    505.942
 37.970    535.000    519.696     15.304    505.731    519.417    505.731    506.020    505.731
 38.070    471.000    516.266    -45.266    505.522    515.985    505.522    505.813    505.522
 38.170    524.453    513.445     11.008    505.314    513.161    505.314    505.607    505.314
 38.270    503.166    511.340     -8.173    505.109    511.052    505.109    505.403    505.109
 38.370    522.000    509.879     12.121    504.905    509.587    504.905    505.201    504.905
 38.470    525.000    508.901     16.099    504.703    508.605    504.703    505.001    504.703
 38.570    462.000    508.246    -46.246    504.502    507.947    504.502    504.803    504.502
 38.670    531.000    507.787     23.213    504.304    507.486    504.304    504.606    504.304
 38.770    490.000    507.439    -17.439    504.107    507.135    504.107    504.412    504.107
 38.870    493.000    507.151    -14.151    503.912    506.844    503.912    504.219    503.912
 38.970    455.000    506.896    -51.896    503.718    506.587    503.718    504.028    503.718
 39.070    502.000    506.663     -4.663    503.527    506.352    503.527    503.839    503.527
 39.170    515.000    506.446      8.554    503.337    506.132    503.337    503.651    503.337
 39.270    544.948    506.241     38.707    503.149    505.924    503.149    503.466    503.149
 39.370    524.000    506.047     17.953    502.963    505.728    502.963    503.283    502.963
 39.470    517.433    505.863     11.570    502.778    505.541    502.778    503.101    502.778
 39.570    508.000    505.688      2.312    502.596    505.363    502.596    502.922    502.596
 39.670    503.022    505.522     -2.500    502.415    505.194    502.415    502.744    502.415
 39.770    502.000    505.364     -3.364    502.236    505.032    502.236    502.568    502.236
 39.870    468.000    505.214    -37.214    502.059    504.879    502.059    502.394    502.059
 39.970    488.656    505.072    -16.416    501.884    504.734    501.884    502.222    501.884
 40.070    461.447    504.939    -43.492    501.710    504.597    501.710    502.052    501.710
 40.170    483.569    504.814    -21.245    501.538    504.469    501.538    501.884    501.538
 40.270    534.000    504.699     29.301    501.368    504.351    501.368    501.717    501.368
 40.370    518.000    504.595     13.405    501.200    504.242    501.200    501.553    501.200
 40.470    461.000    504.501    -43.501    501.034    504.145    501.034    501.391    501.034
 40.570    534.600    504.421     30.179    500.869    504.060    500.869    501.230    500.869
 40.670    452.000    504.355    -52.355    500.707    503.990    500.707    501.072    500.707
 40.770    496.000    504.305     -8.305    500.546    503.936    500.546    500.915    500.546
 40.870    498.629    504.274     -5.645    500.387    503.901    500.387    500.761    500.387
 40.970    510.000    504.267      5.733    500.230    503.889    500.230    500.608    500.230
 41.070    492.000    504.287    -12.287    500.075    503.904    500.075    500.458    500.075
 41.170    514.000    504.340      9.660    499.921    503.953    499.921    500.309    499.921
 41.270    496.000    504.436     -8.436    499.770    504.043    499.770    500.163    499.770
 41.370    497.044    504.584     -7.540    499.620    504.187    499.620    500.018    499.620
 41.470    487.000    504.802    -17.802    499.472    504.399    499.472    499.876    499.472
 41.570    525.000    505.114     19.886    499.326    504.706    499.326    499.735    499.326
 41.670    495.475    505.567    -10.092    499.181    505.153    499.181    499.597    499.181
 41.770    496.446    506.261     -9.815    499.039    505.842    499.039    499.460    499.039
 41.870    491.000    507.442    -16.442    498.898    507.017    498.898    499.326    498.898
 41.970    524.000    509.667     14.333    498.760    509.236    498.760    499.193    498.760
 42.070    513.000    514.037     -1.037    498.623    513.602    498.623    499.063    498.623
 42.170    509.000    522.295    -13.295    498.488    521.857    498.488    498.935    498.488
 42.270    545.000    536.414      8.586    498.354    535.975    498.354    498.809    498.354
 42.370    522.000    557.394    -35.394    498.223    556.959    498.223    498.685    498.223
 42.470    559.000    583.480    -24.480    498.093    583.050    498.093    498.563    498.093
 42.570    589.000    608.614    -19.614    497.966    608.191    497.966    498.443    497.966
 42.670    587.000    622.971    -35.971    497.840    622.549    497.840    498.326    497.840
 42.770    616.000    619.056     -3.056    497.716    618.627    497.716    498.210    497.716
 42.870    552.000    599.152    -47.152    497.594    598.706    497.594    498.097    497.594
 42.970    543.000    572.608    -29.608    497.473    572.139    497.473    497.986    497.473
 43.070    589.010    547.979     41.031    497.355    547.487    497.355    497.877    497.355
 43.170    515.899    529.520    -13.621    497.238    529.006    497.238    497.770    497.238
 43.270    532.472    517.710     14.761    497.124    517.179    497.124    497.666    497.124
 43.370    506.000    511.006     -5.006    497.011    510.459    497.011    497.564    497.011
 43.470    491.650    507.449    -15.800    496.899    506.889    496.899    497.464    496.899
 43.570    535.000    505.547     29.453    496.790    504.974    496.790    497.366    496.790
 43.670    521.000    504.433     16.567    496.683    503.847    496.683    497.271    496.683
 43.770    486.000    503.693    -17.693    496.577    503.093    496.577    497.178    496.577
 43.870    464.000    503.150    -39.150    496.473    502.536    496.473    497.088    496.473
 43.970    498.654    502.728     -4.074    496.371    502.101    496.371    497.000    496.371
 44.070    539.732    502.393     37.339    496.271    501.750    496.271    496.915    496.271
 44.170    582.000    502.122     79.878    496.173    501.464    496.173    496.832    496.173
 44.270    505.000    501.903      3.097    496.076    501.228    496.076    496.752    496.076
 44.370    497.000    501.725     -4.725    495.982    501.033    495.982    496.674    495.982
 44.470    461.464    501.582    -40.118    495.889    500.872    495.889    496.599    495.889
 44.570    501.603    501.468      0.136    495.798    500.739    495.798    496.527    495.798
 44.670    535.000    501.379     33.621    495.709    500.630    495.709    496.458    495.709
 44.770    506.000    501.313      4.687    495.621    500.543    495.621    496.391    495.621
 44.870    490.000    501.268    -11.268    495.536    500.476    495.536    496.328    495.536
 44.970    468.780    501.241    -32.461    495.452    500.426    495.452    496.268    495.452
 45.070    537.000    501.233     35.767    495.370    500.393    495.370    496.211    495.370
 45.170    528.000    501.242     26.758    495.290    500.375    495.290    496.157    495.290
 45.270    531.000    501.269     29.731    495.212    500.374    495.212    496.107    495.212
 45.370    499.318    501.313     -1.995    495.135    500.388    495.135    496.060    495.135
 45.470    495.000    501.375     -6.375    495.060    500.418    495.060    496.017    495.060
 45.570    495.755    501.455     -5.700    494.987    500.464    494.987    495.978    494.987
 45.670    524.561    501.555     23.007    494.916    500.528    494.916    495.943    494.916
 45.770    500.000    501.676     -1.676    494.847    500.609    494.847    495.913    494.847
 45.870    518.217    501.819     16.398    494.779    500.711    494.779    495.887    494.779
 45.970    499.000    501.988     -2.988    494.713    500.834    494.713    495.866    494.713
 46.070    469.409    502.184    -32.775    494.649    500.982    494.649    495.851    494.649
 46.170    503.000    502.412      0.588    494.587    501.157    494.587    495.841    494.587
 46.270    526.000    502.676     23.324    494.526    501.364    494.526    495.837    494.526
 46.370    472.000    502.982    -30.982    494.467    501.608    494.467    495.840    494.467
 46.470    484.000    503.338    -19.338    494.410    501.896    494.410    495.851    494.410
 46.570    484.000    503.754    -19.754    494.355    502.239    494.355    495.869    494.355
 46.670    516.000    504.247     11.753    494.301    502.651    494.301    495.896    494.301
 46.770    477.000    504.843    -27.843    494.250    503.158    494.250    495.933    494.250
 46.870    508.000    505.600      2.400    494.200    503.817    494.200    495.981    494.200
 46.970    479.000    506.643    -27.643    494.151    504.750    494.151    496.041    494.151
 47.070    530.611    508.240     22.371    494.105    506.226    494.105    496.115    494.105
 47.170    538.000    510.907     27.093    494.060    508.756    494.060    496.205    494.060
 47.270    512.000    515.470     -3.470    494.017    513.165    494.017    496.313    494.017
 47.370    532.000    522.960      9.040    493.975    520.479    493.975    496.442    493.975
 47.470    559.000    534.195     24.805    493.935    531.513    493.935    496.595    493.935
 47.570    579.000    549.071     29.929    493.897    546.159    493.897    496.777    493.897
 47.670    531.300    565.797    -34.497    493.861    562.621    493.861    496.993    493.861
 47.770    585.000    580.466      4.534    493.826    576.989    493.826    497.249    493.826
 47.870    589.000    587.855      1.145    493.793    584.037    493.793    497.554    493.793
 47.970    601.305    584.897     16.408    493.762    580.686    493.762    497.920    493.762
 48.070    571.000    573.688     -2.688    493.732    569.016    493.732    498.363    493.732
 48.170    563.000    559.323      3.677    493.705    554.091    493.705    498.906    493.705
 48.270    557.917    546.209     11.709    493.678    540.279    493.678    499.588    493.678
 48.370    522.231    536.739    -14.508    493.654    529.908    493.654    500.471    493.654
 48.470    537.000    531.526      5.474    493.631    523.484    493.631    501.665    493.631
 48.570    537.559    530.148      7.411    493.609    520.404    493.609    503.347    493.609
 48.670    532.000    531.926      0.074    493.590    519.717    493.590    505.794    493.590
 48.770    566.564    536.450     30.114    493.572    520.618    493.572    509.400    493.572
 48.870    539.579    543.743     -4.164    493.555    522.635    493.555    514.660    493.555
 48.970    538.000    554.183    -16.183    493.541    525.620    493.541    522.100    493.541
 49.070    584.000    568.336     15.664    493.527    529.729    493.527    532.129    493.527
 49.170    557.000    586.899    -29.899    493.516    535.591    493.516    544.818    493.516
 49.270    593.123    611.044    -17.920    493.506    544.938    493.506    559.603    493.506
 49.370    632.096    643.568    -11.472    493.498    562.148    493.498    574.904    493.498
 49.470    725.000    691.342     33.658    493.491    596.987    493.491    587.822    493.491
 49.570    786.000    769.004     16.996    493.486    667.791    493.486    594.654    493.486
 49.670    890.015    901.493    -11.478    493.482    801.978    493.482    592.919    493.482
 49.770   1153.000   1118.682     34.318    493.480   1028.714    493.480    583.326    493.480
 49.870   1503.000   1436.426     66.574    493.480   1360.619    493.480    569.122    493.480
 49.970   1866.198   1830.139     36.059    493.481   1769.634    493.481    553.805    493.481
 50.070   2309.106   2218.043     91.063    493.483   2171.637    493.483    539.741    493.483
 50.170   2475.000   2474.141      0.859    493.488   2439.499    493.488    528.074    493.488
 50.270   2492.122   2489.036      3.086    493.493   2463.505    493.493    519.089    493.493
 50.370   2213.568   2251.829    -38.261    493.501   2232.929    493.501    512.558    493.501
 50.470   1799.000   1860.978    -61.978    493.509   1846.672    493.509    508.006    493.509
 50.570   1403.000   1447.290    -44.290    493.520   1436.075    493.520    504.909    493.520
 50.670   1092.610   1104.382    -11.773    493.531   1095.242    493.531    502.806    493.531
 50.770    830.000    868.745    -38.745    493.545    861.033    493.545    501.350    493.545
 50.870    704.000    731.577    -27.577    493.560    724.895    493.560    500.305    493.560
 50.970    625.000    662.476    -37.476    493.576    656.575    493.576    499.524    493.576
 51.070    579.000    629.719    -50.719    493.594    624.435    493.594    498.917    493.594
 51.170    617.000    610.791      6.209    493.613    606.007    493.613    498.432    493.613
 51.270    581.000    594.658    -13.658    493.633    590.282    493.633    498.038    493.633
 51.370    620.691    578.724     41.966    493.655    574.689    493.655    497.715    493.655
 51.470    585.000    563.988     21.012    493.679    560.237    493.679    497.447    493.679
 51.570    559.000    551.803      7.197    493.704    548.293    493.704    497.226    493.704
 51.670    575.000    542.790     32.210    493.730    539.486    493.730    497.043    493.730
 51.770    570.000    536.802     33.198    493.758    533.674    493.758    496.892    493.758
 51.870    508.000    533.246    -25.246    493.787    530.269    493.787    496.768    493.787
 51.970    593.000    531.447     61.553    493.818    528.600    493.818    496.668    493.818
 52.070    539.219    530.884      8.335    493.850    528.148    493.850    496.589    493.850
 52.170    559.085    531.272     27.814    493.884    528.630    493.884    496.527    493.884
 52.270    580.000    532.562     47.438    493.918    530.001    493.918    496.481    493.918
 52.370    558.107    534.980     23.126    493.955    532.487    493.955    496.450    493.955
 52.470    563.000    539.180     23.820    493.992    536.743    493.992    496.431    493.992
 52.570    563.000    546.597     16.403    494.031    544.206    494.031    496.423    494.031
 52.670    593.000    559.978     33.022    494.071    557.624    494.071    496.426    494.071
 52.770    555.095    583.874    -28.780    494.113    581.548    494.113    496.438    494.113
 52.870    672.000    624.569     47.431    494.155    622.263    494.155    496.459    494.155
 52.970    696.000    688.746      7.254    494.200    686.453    494.200    496.489    494.200
 53.070    804.346    780.501     23.845    494.245    778.215    494.245    496.527    494.245
 53.170    843.766    897.185    -53.419    494.292    894.902    494.292    496.572    494.292
 53.270   1045.000   1025.463     19.537    494.340   1023.179    494.340    496.624    494.340
 53.370   1134.000   1139.465     -5.465    494.389   1137.180    494.389    496.684    494.389
 53.470   1191.000   1205.395    -14.395    494.440   1203.107    494.440    496.750    494.440
 53.570   1164.162   1198.466    -34.303    494.492   1196.168    494.492    496.824    494.492
 53.670   1171.634   1121.798     49.836    494.545   1119.481    494.545    496.904    494.545
 53.770   1022.181   1003.516     18.664    494.599   1001.165    494.599    496.991    494.599
 53.870    825.427    876.596    -51.169    494.655    874.202    494.655    497.084    494.655
 53.970    780.905    764.593     16.312    494.712    762.147    494.712    497.185    494.712
 54.070    644.604    678.646    -34.042    494.770    676.142    494.770    497.292    494.770
 54.170    631.000    619.852     11.148    494.829    617.286    494.829    497.407    494.829
 54.270    612.000    583.377     28.623    494.889    580.744    494.889    497.529    494.889
 54.370    597.550    562.462     35.088    494.951    559.759    494.951    497.659    494.951
 54.470    573.000    551.109     21.891    495.013    548.329    495.013    497.797    495.013
 54.570    550.000    545.122      4.878    495.077    542.258    495.077    497.944    495.077
 54.670    563.000    542.032     20.968    495.142    539.077    495.142    498.099    495.142
 54.770    555.000    540.567     14.433    495.209    537.513    495.209    498.264    495.209
 54.870    542.000    540.138      1.862    495.276    536.975    495.276    498.440    495.276
 54.970    539.753    540.493     -0.741    495.344    537.213    495.344    498.626    495.344
 55.070    534.000    541.542     -7.542    495.414    538.133    495.414    498.824    495.414
 55.170    563.830    543.271     20.559    495.485    539.722    495.485    499.035    495.485
 55.270    588.641    545.720     42.921    495.556    542.017    495.556    499.260    495.556
 55.370    586.000    548.980     37.020    495.629    545.110    495.629    499.500    495.629
 55.470    567.000    553.220     13.780    495.703    549.167    495.703    499.756    495.703
 55.570    591.938    558.763     33.175    495.778    554.511    495.778    500.031    495.778
 55.670    559.670    566.281     -6.612    495.854    561.810    495.854    500.326    495.854
 55.770    555.000    577.227    -22.227    495.931    572.514    495.931    500.643    495.931
 55.870    557.000    594.659    -37.659    496.009    589.681    496.009    500.986    496.009
 55.970    655.535    624.552     30.983    496.088    619.279    496.088    501.356    496.088
 56.070    638.000    677.290    -39.290    496.169    671.688    496.169    501.758    496.169
 56.170    739.000    768.417    -29.417    496.250    762.449    496.250    502.196    496.250
 56.270    911.000    916.983     -5.983    496.332    910.604    496.332    502.675    496.332
 56.370   1058.000   1139.888    -81.888    496.415   1133.053    496.415    503.200    496.415
 56.470   1388.000   1442.237    -54.237    496.499   1434.897    496.499    503.778    496.499
 56.570   1780.000   1806.316    -26.316    496.584   1798.425    496.584    504.418    496.584
 56.670   2086.000   2183.599    -97.599    496.670   2175.110    496.670    505.129    496.670
 56.770   2557.420   2494.955     62.466    496.757   2485.814    496.757    505.923    496.757
 56.870   2632.743   2649.830    -17.088    496.844   2639.966    496.844    506.817    496.844
 56.970   2552.000   2593.851    -41.851    496.933   2583.149    496.933    507.827    496.933
 57.070   2408.000   2349.220     58.780    497.023   2337.510    497.023    508.977    497.023
 57.170   2064.374   1996.072     68.302    497.113   1983.139    497.113    510.300    497.113
 57.270   1614.000   1622.154     -8.154    497.205   1607.747    497.205    511.839    497.205
 57.370   1255.000   1291.098    -36.098    497.297   1274.915    497.297    513.660    497.297
 57.470   1037.614   1034.698      2.916    497.390   1016.351    497.390    515.866    497.390
 57.570    898.000    857.715     40.285    497.484    836.656    497.484    518.628    497.484
 57.670    770.000    748.151     21.849    497.579    723.560    497.579    522.220    497.579
 57.770    757.000    688.177     68.823    497.674    658.797    497.674    527.082    497.674
 57.870    712.000    662.043     49.957    497.771    625.952    497.771    533.874    497.771
 57.970    677.000    659.744     17.256    497.868    614.087    497.868    543.527    497.868
 58.070    664.000    677.315    -13.315    497.966    618.042    497.966    557.231    497.966
 58.170    663.000    715.237    -52.237    498.065    636.945    498.065    576.338    498.065
 58.270    774.884    776.075     -1.191    498.164    672.073    498.164    602.136    498.164
 58.370    905.751    861.941     43.809    498.264    724.664    498.264    635.500    498.264
 58.470    969.000    972.131     -3.131    498.365    794.011    498.365    676.435    498.365
 58.570   1121.000   1101.202     19.798    498.467    876.068    498.467    723.546    498.467
 58.670   1218.000   1238.090    -20.090    498.570    963.207    498.570    773.401    498.570
 58.770   1425.270   1367.112     58.157    498.673   1045.876    498.673    819.868    498.673
 58.870   1500.000   1471.121     28.879    498.777   1115.682    498.777    854.191    498.777
 58.970   1490.000   1534.546    -44.546    498.881   1165.966    498.881    867.458    498.881
 59.070   1550.000   1546.668      3.332    498.987   1190.079    498.987    855.593    498.987
 59.170   1472.068   1506.781    -34.713    499.093   1183.561    499.093    822.346    499.093
 59.270   1538.000   1427.207    110.793    499.199   1149.938    499.199    776.504    499.199
 59.370   1371.000   1329.038     41.962    499.306   1101.475    499.306    726.894    499.306
 59.470   1162.000   1233.893    -71.893    499.414   1053.526    499.414    679.781    499.414
 59.570   1131.063   1159.770    -28.707    499.523   1020.536    499.523    638.721    499.523
 59.670   1180.000   1121.658     58.342    499.632   1016.013    499.632    605.196    499.632
 59.770   1194.000   1130.800     63.200    499.741   1051.149    499.741    579.260    499.741
 59.870   1130.469   1190.089    -59.620    499.852   1129.680    499.852    560.070    499.852
 59.970   1343.000   1289.512     53.488    499.962   1242.877    499.962    546.353    499.962
 60.070   1462.000   1404.848     57.152    500.074   1367.884    500.074    536.754    500.074
 60.170   1549.000   1500.409     48.591    500.186   1470.225    500.186    530.072    500.186
 60.270   1607.000   1538.452     68.548    500.298   1513.109    500.298    525.367    500.298
 60.370   1521.450   1497.001     24.449    500.411   1475.226    500.411    521.965    500.411
 60.470   1411.000   1383.196     27.804    500.524   1364.142    500.524    519.422    500.524
 60.570   1312.000   1226.251     85.749    500.638   1209.335    500.638    517.459    500.638
 60.670   1113.253   1059.787     53.466    500.753   1044.580    500.753    515.909    500.753
 60.770    964.000    909.879     54.121    500.868    896.048    500.868    514.677    500.868
 60.870    798.000    791.091      6.909    500.983    778.359    500.983    513.706    500.983
 60.970    659.000    707.366    -48.366    501.099    695.494    501.099    512.967    501.099
 61.070    685.000    655.630     29.370    501.215    644.397    501.215    512.443    501.215
 61.170    643.000    630.272     12.728    501.332    619.470    501.332    512.122    501.332
 61.270    631.000    626.865      4.135    501.449    616.299    501.449    511.994    501.449
 61.370    659.766    644.200     15.566    501.567    633.696    501.567    512.039    501.567
 61.470    629.000    684.445    -55.445    501.685    673.855    501.685    512.225    501.685
 61.570    729.152    751.579    -22.427    501.803    740.812    501.803    512.497    501.803
 61.670    819.000    848.493    -29.493    501.922    837.538    501.922    512.774    501.922
 61.770   1017.000    973.415     43.585    502.041    962.372    502.041    512.948    502.041
 61.870   1143.273   1116.752     26.521    502.160   1105.837    502.160    512.911    502.160
 61.970   1228.000   1259.495    -31.495    502.280   1248.990    502.280    512.603    502.280
 62.070   1334.438   1374.413    -39.975    502.400   1364.582    502.400    512.049    502.400
 62.170   1400.000   1432.518    -32.518    502.520   1423.543    502.520    511.338    502.520
 62.270   1335.000   1416.209    -81.209    502.641   1408.164    502.641    510.570    502.641
 62.370   1304.000   1330.314    -26.314    502.762   1323.179    502.762    509.827    502.762
 62.470   1186.000   1198.630    -12.630    502.883   1192.321    502.883    509.160    502.883
 62.570   1036.000   1050.500    -14.500    503.004   1044.904    503.004    508.594    503.004
 62.670    964.326    910.216     54.110    503.126    905.213    503.126    508.138    503.126
 62.770    784.000    792.862     -8.862    503.248    788.338    503.248    507.785    503.248
 62.870    692.000    704.273    -12.273    503.370    700.131    503.370    507.523    503.370
 62.970    641.000    643.189     -2.189    503.492    639.352    503.492    507.336    503.492
 63.070    602.500    604.364     -1.864    503.615    600.773    503.615    507.208    503.615
 63.170    556.000    581.465    -25.465    503.737    578.077    503.737    507.125    503.737
 63.270    533.429    568.993    -35.565    503.860    565.776    503.860    507.075    503.860
 63.370    571.707    563.133      8.574    503.983    560.063    503.983    507.049    503.983
 63.470    583.000    561.846     21.154    504.107    558.904    504.107    507.042    504.107
 63.570    561.000    564.642     -3.642    504.230    561.813    504.230    507.049    504.230
 63.670    606.948    572.298     34.650    504.353    569.570    504.353    507.067    504.353
 63.770    602.000    586.588     15.412    504.477    583.950    504.477    507.095    504.477
 63.870    644.000    609.918     34.082    504.601    607.357    504.601    507.132    504.601
 63.970    654.425    644.714      9.711    504.724    642.219    504.724    507.176    504.724
 64.070    718.128    692.523     25.605    504.848    690.084    504.848    507.226    504.848
 64.170    771.000    752.921     18.079    504.972    750.529    504.972    507.282    504.972
 64.270    833.000    822.488     10.512    505.096    820.139    505.096    507.343    505.096
 64.370    945.376    894.143     51.233    505.220    891.834    505.220    507.410    505.220
 64.470   1018.896    957.369     61.527    505.344    955.104    505.344    507.480    505.344
 64.570   1015.192   1000.423     14.769    505.468    998.209    505.468    507.555    505.468
 64.670    974.000   1014.921    -40.921    505.592   1012.766    505.592    507.634    505.592
 64.770   1014.000    999.592     14.408    505.716    997.502    505.716    507.716    505.716
 64.870    925.108    959.814    -34.706    505.840    957.792    505.840    507.801    505.840
 64.970    918.912    904.702     14.210    505.964    902.742    505.964    507.890    505.964
 65.070    864.000    844.100     19.900    506.088    842.196    506.088    507.981    506.088
 65.170    737.000    785.930    -48.930    506.212    784.075    506.212    508.075    506.212
 65.270    706.000    734.712    -28.712    506.336    732.896    506.336    508.172    506.336
 65.370    692.000    691.821      0.179    506.459    690.035    506.459    508.271    506.459
 65.470    650.000    656.870     -6.870    506.583    655.107    506.583    508.372    506.583
 65.570    620.998    628.978     -7.979    506.707    627.232    506.707    508.475    506.707
 65.670    613.000    607.236      5.764    506.830    605.503    506.830    508.581    506.830
 65.770    543.000    590.739    -47.739    506.953    589.016    506.953    508.688    506.953
 65.870    560.000    578.626    -18.626    507.076    576.912    507.076    508.798    507.076
 65.970    545.000    570.131    -25.131    507.199    568.425    507.199    508.909    507.199
 66.070    538.648    564.593    -25.945    507.322    562.895    507.322    509.022    507.322
 66.170    543.000    561.452    -18.452    507.445    559.760    507.445    509.137    507.445
 66.270    586.133    560.244     25.888    507.567    558.557    507.567    509.254    507.567
 66.370    550.450    560.627    -10.178    507.689    558.944    507.689    509.373    507.689
 66.470    538.000    562.416    -24.416    507.811    560.735    507.811    509.493    507.811
 66.570    553.359    565.649    -12.290    507.933    563.969    507.933    509.615    507.933
 66.670    614.250    570.697     43.554    508.055    569.014    508.055    509.738    508.055
 66.770    600.000    578.468     21.532    508.176    576.782    508.176    509.863    508.176
 66.870    568.458    590.745    -22.288    508.297    589.053    508.297    509.990    508.297
 66.970    603.000    610.651     -7.651    508.418    608.950    508.418    510.117    508.418
 67.070    632.000    643.153    -11.153    508.538    641.439    508.538    510.248    508.538
 67.170    675.000    695.352    -20.352    508.659    693.622    508.659    510.380    508.659
 67.270    777.000    776.206      0.794    508.778    774.457    508.778    510.514    508.778
 67.370    888.571    895.246     -6.675    508.898    893.476    508.898    510.651    508.898
 67.470   1099.368   1060.070     39.298    509.017   1058.280    509.017    510.789    509.017
 67.570   1266.781   1272.852     -6.071    509.136   1271.046    509.136    510.929    509.136
 67.670   1418.000   1526.635   -108.635    509.255   1524.821    509.255    511.072    509.255
 67.770   1837.000   1802.510     34.490    509.373   1800.701    509.373    511.217    509.373
 67.870   2141.000   2068.713     72.287    509.491   2066.923    509.491    511.364    509.491
 67.970   2276.237   2283.092     -6.856    509.608   2281.332    509.608    511.515    509.608
 68.070   2386.000   2401.963    -15.963    509.725   2400.238    509.725    511.668    509.725
 68.170   2370.006   2396.676    -26.670    509.841   2394.975    509.841    511.824    509.841
 68.270   2276.000   2268.693      7.307    509.958   2266.987    509.958    511.983    509.958
 68.370   2015.000   2048.673    -33.673    510.073   2046.926    510.073    512.146    510.073
 68.470   1767.398   1780.654    -13.255    510.189   1778.832    510.189    512.313    510.189
 68.570   1576.000   1506.093     69.907    510.303   1504.174    510.303    512.484    510.303
 68.670   1327.000   1255.694     71.306    510.418   1253.664    510.418    512.659    510.418
 68.770   1031.000   1047.289    -16.289    510.531   1045.141    510.531    512.839    510.531
 68.870    844.000    886.940    -42.940    510.645    884.674    510.645    513.025    510.645
 68.970    767.000    771.874     -4.874    510.758    769.493    510.758    513.217    510.758
 69.070    739.000    694.214     44.786    510.870    691.721    510.870    513.415    510.870
 69.170    699.000    644.405     54.595    510.982    641.799    510.982    513.621    510.982
 69.270    651.641    613.611     38.030    511.093    610.891    511.093    513.834    511.093
 69.370    628.000    594.902     33.098    511.204    592.063    511.204    514.057    511.204
 69.470    601.000    583.465     17.535    511.314    580.499    511.314    514.289    511.314
 69.570    618.053    576.274     41.779    511.423    573.171    511.423    514.533    511.423
 69.670    551.000    571.577    -20.577    511.532    568.325    511.532    514.789    511.532
 69.770    555.866    568.425    -12.559    511.640    565.010    511.640    515.059    511.640
 69.870    560.000    566.330     -6.330    511.748    562.736    511.748    515.345    511.748
 69.970    561.000    565.048     -4.048    511.855    561.256    511.855    515.649    511.855
 70.070    592.296    564.468     27.829    511.962    560.456    511.962    515.974    511.962
 70.170    566.000    564.554      1.446    512.068    560.300    512.068    516.322    512.068
 70.270    624.000    565.339     58.661    512.173    560.815    512.173    516.696    512.173
 70.370    540.000    566.938    -26.938    512.277    562.112    512.277    517.102    512.277
 70.470    542.623    569.606    -26.983    512.381    564.441    512.381    517.543    512.381
 70.570    617.099    573.842     43.257    512.484    568.295    512.484    518.026    512.484
 70.670    555.000    580.549    -25.549    512.587    574.569    512.587    518.559    512.587
 70.770    578.041    591.266    -13.225    512.688    584.791    512.688    519.151    512.688
 70.870    644.000    608.425     35.575    512.789    601.379    512.789    519.817    512.789
 70.970    596.000    635.563    -39.563    512.890    627.847    512.890    520.578    512.890
 71.070    635.253    677.357    -42.104    512.989    668.841    512.989    521.463    512.989
 71.170    706.777    739.260    -32.482    513.088    729.762    513.088    522.525    513.088
 71.270    804.000    826.623    -22.623    513.186    815.881    513.186    523.843    513.186
 71.370    938.000    943.259     -5.259    513.283    930.886    513.283    525.543    513.283
 71.470   1105.784   1089.631     16.153    513.380   1075.045    513.380    527.821    513.380
 71.570   1205.000   1261.070    -56.070    513.476   1243.411    513.476    530.960    513.476
 71.670   1396.000   1446.514    -50.514    513.570   1424.534    513.570    535.353    513.570
 71.770   1687.000   1628.179     58.821    513.664   1600.125    513.664    541.509    513.664
 71.870   1783.400   1782.746      0.653    513.758   1746.272    513.758    550.027    513.758
 71.970   1914.000   1885.370     28.630    513.850   1837.493    513.850    561.543    513.850
 72.070   1963.000   1917.491     45.509    513.942   1854.659    513.942    576.624    513.942
 72.170   1817.000   1875.444    -58.444    514.032   1793.738    514.032    595.629    514.032
 72.270   1825.372   1772.547     52.825    514.122   1668.062    514.122    618.536    514.122
 72.370   1750.000   1632.238    117.762    514.211   1501.631    514.211    644.777    514.211
 72.470   1511.000   1478.672     32.328    514.299   1319.870    514.299    673.080    514.299
 72.570   1337.391   1330.760      6.631    514.386   1143.795    514.386    701.343    514.386
 72.670   1280.000   1199.940     80.060    514.473    987.812    514.473    726.598    514.473
 72.770   1072.000   1090.242    -18.242    514.558    859.535    514.558    745.265    514.558
 72.870    914.000   1000.079    -86.079    514.642    760.722    514.642    754.000    514.642
 72.970    900.085    925.212    -25.126    514.726    688.920    514.726    751.017    514.726
 73.070    774.000    861.520    -87.520    514.808    639.341    514.808    736.987    514.808
 73.170    772.000    806.289    -34.289    514.890    606.511    514.890    714.666    514.890
 73.270    743.798    758.095    -14.297    514.970    585.420    514.970    687.645    514.970
 73.370    673.000    716.276    -43.276    515.050    572.091    515.050    659.234    515.050
 73.470    630.000    680.539    -50.539    515.129    563.707    515.129    631.962    515.129
 73.570    602.002    650.739    -48.737    515.206    558.456    515.206    607.491    515.206
 73.670    605.000    626.710    -21.710    515.283    555.280    515.283    586.717    515.283
 73.770    655.000    608.149     46.851    515.358    553.606    515.358    569.908    515.358
 73.870    595.147    594.570      0.577    515.433    553.142    515.433    556.871    515.433
 73.970    563.000    585.313    -22.313    515.506    553.712    515.506    547.122    515.506
 74.070    557.000    579.599    -22.599    515.579    555.152    515.579    540.045    515.579
 74.170    590.905    576.580     14.325    515.650    557.240    515.650    535.015    515.650
 74.270    643.000    575.383     67.617    515.721    559.662    515.721    531.473    515.721
 74.370    612.000    575.144     36.856    515.790    561.999    515.790    528.971    515.790
 74.470    559.987    575.039    -15.053    515.858    563.765    515.858    527.174    515.858
 74.570    610.000    574.368     35.632    515.925    564.492    515.925    525.845    515.925
 74.670    634.000    572.679     61.321    515.991    563.887    515.991    524.828    515.991
 74.770    604.043    569.885     34.159    516.056    561.962    516.056    524.021    516.056
 74.870    569.365    566.240      3.125    516.120    559.036    516.120    523.362    516.120
 74.970    628.000    562.206     65.794    516.183    555.611    516.183    522.810    516.183
 75.070    585.000    558.303     26.697    516.244    552.232    516.244    522.341    516.244
 75.170    585.000    555.039     29.961    516.305    549.425    516.305    521.937    516.305
 75.270    578.000    552.893     25.107    516.364    547.683    516.364    521.587    516.364
 75.370    587.641    552.339     35.302    516.422    547.487    516.422    521.282    516.422
 75.470    581.918    553.865     28.054    516.479    549.331    516.479    521.014    516.479
 75.570    603.000    557.983     45.017    516.534    553.734    516.534    520.779    516.534
 75.670    612.661    565.205     47.456    516.589    561.211    516.589    520.573    516.589
 75.770    549.000    575.959    -26.959    516.642    572.194    516.642    520.390    516.642
 75.870    602.000    590.456     11.544    516.694    586.897    516.694    520.229    516.694
 75.970    631.000    608.530     22.470    516.745    605.156    516.745    520.086    516.745
 76.070    610.000    629.474    -19.474    516.795    626.268    516.795    519.959    516.795
 76.170    672.000    651.942     20.058    516.843    648.888    516.843    519.847    516.843
 76.270    692.582    673.916     18.667    516.891    671.002    516.891    519.747    516.891
 76.370    666.000    692.805    -26.805    516.937    690.022    516.937    519.657    516.937
 76.470    724.000    705.774     18.226    516.981    703.114    516.981    519.578    516.981
 76.570    686.758    710.444    -23.686    517.025    707.900    517.025    519.507    517.025
 76.670    704.000    705.821     -1.821    517.067    703.388    517.067    519.443    517.067
 76.770    667.000    692.778    -25.778    517.108    690.452    517.108    519.387    517.108
 76.870    634.000    673.623    -39.623    517.148    671.396    517.148    519.336    517.148
 76.970    644.944    651.168     -6.224    517.186    649.034    517.186    519.290    517.186
 77.070    660.735    628.012     32.723    517.223    625.964    517.223    519.249    517.223
 77.170    589.000    606.183    -17.183    517.259    604.214    517.259    519.212    517.259
 77.270    578.713    587.027     -8.314    517.293    585.130    517.293    519.179    517.293
 77.370    532.000    571.224    -39.224    517.326    569.394    517.326    519.149    517.326
 77.470    540.000    558.890    -18.890    517.358    557.121    517.358    519.122    517.358
 77.570    496.000    549.731    -53.731    517.388    548.019    517.388    519.098    517.388
 77.670    521.000    543.222    -22.222    517.417    541.562    517.417    519.075    517.417
 77.770    507.974    538.762    -30.789    517.445    537.151    517.445    519.055    517.445
 77.870    513.000    535.788    -22.788    517.471    534.222    517.471    519.036    517.471
 77.970    516.000    533.833    -17.833    517.496    532.309    517.496    519.019    517.496
 78.070    556.912    532.547     24.365    517.520    531.062    517.520    519.003    517.520
 78.170    511.569    531.686    -20.117    517.542    530.239    517.542    518.989    517.542
 78.270    543.000    531.080     11.920    517.563    529.668    517.563    518.975    517.563
 78.370    526.695    530.648     -3.954    517.583    529.268    517.583    518.962    517.583
 78.470    533.810    530.371      3.439    517.601    529.021    517.601    518.950    517.601
 78.570    512.000    530.203    -18.203    517.617    528.882    517.617    518.939    517.617
 78.670    514.000    530.138    -16.138    517.633    528.842    517.633    518.928    517.633
 78.770    542.000    530.181     11.819    517.647    528.908    517.647    518.918    517.647
 78.870    552.000    530.353     21.647    517.659    529.102    517.659    518.909    517.659
 78.970    538.000    530.679      7.321    517.670    529.446    517.670    518.902    517.670
 79.070    509.000    531.186    -22.186    517.680    529.969    517.680    518.896    517.680
 79.170    519.000    531.908    -12.908    517.688    530.702    517.688    518.892    517.688
 79.270    547.321    532.872     14.449    517.694    531.673    517.694    518.891    517.694
 79.370    524.000    534.107    -10.107    517.700    532.911    517.700    518.893    517.700
 79.470    515.000    535.640    -20.640    517.703    534.440    517.703    518.901    517.703
 79.570    498.420    537.504    -39.085    517.706    536.292    517.706    518.914    517.706
 79.670    534.000    539.749     -5.749    517.706    538.517    517.706    518.934    517.706
 79.770    555.097    542.461     12.636    517.706    541.200    517.706    518.961    517.706
 79.870    562.000    545.780     16.220    517.704    544.483    517.704    518.996    517.704
 79.970    581.000    549.932     31.068    517.700    548.589    517.700    519.038    517.700
 80.070    544.000    555.247    -11.247    517.695    553.851    517.695    519.087    517.695
 80.170    560.000    562.164     -2.164    517.688    560.709    517.688    519.140    517.688
 80.270    598.977    571.175     27.801    517.680    569.661    517.680    519.194    517.680
 80.370    556.970    582.735    -25.765    517.671    581.163    517.671    519.244    517.671
 80.470    569.000    597.134    -28.134    517.660    595.513    517.660    519.285    517.660
 80.570    612.000    614.387     -2.387    517.647    612.734    517.647    519.309    517.647
 80.670    587.223    634.155    -46.932    517.633    632.490    517.633    519.311    517.633
 80.770    651.000    655.691     -4.691    517.617    654.042    517.617    519.286    517.617
 80.870    684.000    677.873      6.127    517.600    676.264    517.600    519.234    517.600
 80.970    679.000    699.318    -20.318    517.581    697.772    517.581    519.159    517.581
 81.070    711.000    718.589     -7.589    517.561    717.120    517.561    519.068    517.561
 81.170    751.035    734.383     16.651    517.539    733.001    517.539    518.966    517.539
 81.270    736.000    745.656     -9.656    517.516    744.363    517.516    518.861    517.516
 81.370    748.388    751.701     -3.313    517.491    750.493    517.491    518.756    517.491
 81.470    720.946    752.228    -31.282    517.464    751.099    517.464    518.655    517.464
 81.570    782.463    747.382     35.081    517.436    746.324    517.436    518.560    517.436
 81.670    760.000    737.683     22.317    517.406    736.686    517.406    518.472    517.406
 81.770    754.000    723.997     30.003    517.375    723.049    517.375    518.391    517.375
 81.870    694.681    707.496    -12.816    517.343    706.589    517.343    518.317    517.343
 81.970    698.542    689.502      9.040    517.308    688.626    517.308    518.249    517.308
 82.070    698.806    671.206     27.600    517.272    670.355    517.272    518.186    517.272
 82.170    674.000    653.460     20.540    517.235    652.627    517.235    518.126    517.235
 82.270    650.000    636.725     13.275    517.196    635.905    517.196    518.070    517.196
 82.370    630.069    621.185      8.884    517.155    620.374    517.155    518.016    517.155
 82.470    578.000    606.924    -28.924    517.113    606.118    517.113    517.963    517.113
 82.570    612.000    594.051     17.949    517.069    593.249    517.069    517.910    517.069
 82.670    564.518    582.730    -18.211    517.024    581.929    517.024    517.857    517.024
 82.770    572.000    573.136     -1.136    516.977    572.334    516.977    517.804    516.977
 82.870    563.689    565.425     -1.736    516.928    564.621    516.928    517.750    516.928
 82.970    519.100    559.711    -40.612    516.878    558.905    516.878    517.695    516.878
 83.070    524.000    556.060    -32.060    516.826    555.250    516.826    517.640    516.826
 83.170    541.848    554.461    -12.614    516.773    553.648    516.773    517.583    516.773
 83.270    554.000    554.818     -0.818    516.718    554.000    516.718    517.525    516.718
 83.370    581.000    556.921     24.079    516.661    556.098    516.661    517.466    516.661
 83.470    544.000    560.442    -16.442    516.603    559.613    516.603    517.406    516.603
 83.570    540.097    564.930    -24.833    516.543    564.097    516.543    517.344    516.543
 83.670    548.000    569.825    -21.825    516.481    568.987    516.481    517.282    516.481
 83.770    532.000    574.487    -42.487    516.418    573.645    516.418    517.218    516.418
 83.870    606.363    578.240     28.123    516.353    577.396    516.353    517.153    516.353
 83.970    550.000    580.469    -30.469    516.287    579.624    516.287    517.086    516.287
 84.070    550.000    580.741    -30.741    516.219    579.897    516.219    517.018    516.219
 84.170    568.000    578.925    -10.925    516.149    578.082    516.149    516.949    516.149
 84.270    531.000    575.224    -44.224    516.078    574.385    516.078    516.879    516.078
 84.370    573.000    570.095      2.905    516.005    569.260    516.005    516.807    516.005
 84.470    555.000    564.101     -9.101    515.931    563.270    515.931    516.734    515.931
 84.570    571.000    557.796     13.204    515.855    556.968    515.855    516.659    515.855
 84.670    551.000    551.653     -0.653    515.777    550.828    515.777    516.583    515.777
 84.770    562.000    546.027     15.973    515.698    545.204    515.698    516.506    515.698
 84.870    545.000    541.148      3.852    515.617    540.325    515.617    516.428    515.617
 84.970    563.242    537.122     26.120    515.534    536.300    515.534    516.348    515.534
 85.070    535.361    533.958      1.403    515.450    533.134    515.450    516.267    515.450
 85.170    541.000    531.589      9.411    515.364    530.763    515.364    516.184    515.364
 85.270    536.909    529.912      6.997    515.276    529.083    515.276    516.100    515.276
 85.370    552.000    528.809     23.191    515.187    527.976    515.187    516.015    515.187
 85.470    578.000    528.173     49.827    515.096    527.336    515.096    515.929    515.096
 85.570    519.000    527.926     -8.926    515.004    527.084    515.004    515.841    515.004
 85.670    502.000    528.022    -26.022    514.910    527.175    514.910    515.752    514.910
 85.770    531.696    528.458      3.238    514.814    527.605    514.814    515.661    514.814
 85.870    534.000    529.274      4.726    514.717    528.414    514.717    515.570    514.717
 85.970    513.000    530.554    -17.554    514.618    529.685    514.618    515.477    514.618
 86.070    525.000    532.421     -7.421    514.517    531.544    514.517    515.382    514.517
 86.170    539.239    535.039      4.200    514.415    534.151    514.415    515.287    514.415
 86.270    547.000    538.589      8.411    514.311    537.690    514.311    515.190    514.311
 86.370    584.155    543.262     40.893    514.206    542.349    514.206    515.092    514.206
 86.470    527.196    549.220    -22.024    514.099    548.292    514.099    514.993    514.099
 86.570    577.000    556.567     20.433    513.990    555.622    513.990    514.892    513.990
 86.670    578.000    565.305     12.695    513.880    564.342    513.880    514.790    513.880
 86.770    614.000    575.296     38.704    513.768    574.311    513.768    514.687    513.768
 86.870    618.105    586.227     31.878    513.654    585.221    513.654    514.583    513.654
 86.970    639.974    597.600     42.374    513.539    596.572    513.539    514.478    513.539
 87.070    645.572    608.728     36.844    513.422    607.679    513.422    514.372    513.422
 87.170    659.998    618.771     41.227    513.304    617.702    513.304    514.265    513.304
 87.270    667.000    626.798     40.202    513.184    625.713    513.184    514.156    513.184
 87.370    621.867    631.972    -10.105    513.062    630.873    513.062    514.047    513.062
 87.470    700.000    633.707     66.293    512.939    632.597    512.939    513.936    512.939
 87.570    647.000    631.842     15.158    512.814    630.726    512.814    513.825    512.814
 87.670    637.000    626.708     10.292    512.688    625.588    512.688    513.713    512.688
 87.770    608.000    619.017    -11.017    512.560    617.894    512.560    513.599    512.560
 87.870    639.000    609.684     29.316    512.430    608.559    512.430    513.485    512.430
 87.970    583.577    599.675    -16.097    512.299    598.547    512.299    513.370    512.299
 88.070    574.422    589.903    -15.481    512.166    588.771    512.166    513.255    512.166
 88.170    587.000    581.158      5.842    512.032    580.020    512.032    513.138    512.032
 88.270    575.000    574.061      0.939    511.896    572.915    511.896    513.021    511.896
 88.370    602.000    569.045     32.955    511.759    567.889    511.759    512.904    511.759
 88.470    559.000    566.338     -7.338    511.620    565.169    511.620    512.786    511.620
 88.570    592.000    565.974     26.026    511.479    564.791    511.479    512.667    511.479
 88.670    541.000    567.802    -26.802    511.337    566.603    511.337    512.549    511.337
 88.770    591.134    571.505     19.629    511.193    570.289    511.193    512.430    511.193
 88.870    593.000    576.620     16.380    511.048    575.385    511.048    512.310    511.048
 88.970    583.493    582.562      0.931    510.901    581.307    510.901    512.191    510.901
 89.070    625.000    588.654     36.346    510.753    587.378    510.753    512.072    510.753
 89.170    597.000    594.168      2.832    510.603    592.868    510.603    511.954    510.603
 89.270    586.476    598.382    -11.907    510.451    597.054    510.451    511.835    510.451
 89.370    573.000    600.678    -27.678    510.298    599.320    510.298    511.717    510.298
 89.470    572.584    600.660    -28.077    510.144    599.267    510.144    511.600    510.144
 89.570    584.449    598.245    -13.795    509.988    596.811    509.988    511.484    509.988
 89.670    554.000    593.669    -39.669    509.830    592.191    509.830    511.369    509.830
 89.770    562.899    587.407    -24.508    509.671    585.881    509.671    511.255    509.671
 89.870    613.091    580.048     33.043    509.511    578.468    509.511    511.143    509.511
 89.970    516.000    572.182    -56.182    509.348    570.542    509.348    511.033    509.348
 90.070    556.189    564.332     -8.143    509.185    562.629    509.185    510.926    509.185
 90.170    532.000    556.920    -24.920    509.020    555.149    509.020    510.822    509.020
 90.270    534.000    550.249    -16.249    508.853    548.406    508.853    510.722    508.853
 90.370    564.119    544.504     19.615    508.685    542.583    508.685    510.626    508.685
 90.470    578.885    539.762     39.123    508.516    537.757    508.516    510.535    508.516
 90.570    525.000    536.010    -11.010    508.345    533.915    508.345    510.451    508.345
 90.670    523.805    533.177     -9.371    508.173    530.982    508.173    510.375    508.173
 90.770    572.948    531.152     41.797    507.999    528.847    507.999    510.309    507.999
 90.870    488.000    529.816    -41.816    507.824    527.387    507.824    510.256    507.824
 90.970    525.000    529.060     -4.060    507.647    526.488    507.647    510.221    507.647
 91.070    561.000    528.799     32.201    507.469    526.061    507.469    510.208    507.469
 91.170    491.835    528.982    -37.147    507.290    526.046    507.290    510.226    507.290
 91.270    488.454    529.600    -41.146    507.109    526.424    507.109    510.283    507.109
 91.370    506.794    530.684    -23.890    506.927    527.213    506.927    510.394    506.927
 91.470    543.000    532.279     10.721    506.743    528.442    506.743    510.575    506.743
 91.570    543.000    534.583      8.417    506.558    530.290    506.558    510.846    506.558
 91.670    519.543    537.767    -18.224    506.371    532.899    506.371    511.232    506.371
 91.770    548.000    542.026      5.974    506.184    536.440    506.184    511.760    506.184
 91.870    527.000    547.603    -20.603    505.994    541.123    505.994    512.462    505.994
 91.970    523.762    554.754    -30.992    505.804    547.170    505.804    513.371    505.804
 92.070    547.231    563.727    -16.496    505.612    554.798    505.612    514.520    505.612
 92.170    636.000    574.731     61.269    505.419    564.185    505.419    515.938    505.419
 92.270    568.000    587.908    -19.908    505.224    575.453    505.224    517.647    505.224
 92.370    607.000    603.302      3.698    505.029    588.630    505.029    519.661    505.029
 92.470    624.000    620.830      3.170    504.832    603.637    504.832    521.978    504.832
 92.570    633.000    640.258     -7.258    504.633    620.259    504.633    524.579    504.633
 92.670    616.327    661.188    -44.860    504.434    638.139    504.434    527.421    504.434
 92.770    661.658    683.050    -21.392    504.233    656.776    504.233    530.440    504.233
 92.870    695.000    705.124    -10.124    504.030    675.544    504.030    533.539    504.030
 92.970    745.000    726.586     18.414    503.827    693.743    503.827    536.593    503.827
 93.070    770.775    746.618     24.156    503.622    710.717    503.622    539.444    503.622
 93.170    761.129    764.544     -3.415    503.416    725.972    503.416    541.909    503.416
 93.270    758.000    779.925    -21.925    503.209    739.267    503.209    543.788    503.209
 93.370    785.000    792.626     -7.626    503.001    750.648    503.001    544.900    503.001
 93.470    794.000    802.772     -8.772    502.791    760.370    502.791    545.117    502.791
 93.570    833.000    810.671     22.329    502.580    768.783    502.580    544.395    502.580
 93.670    779.771    816.756    -36.985    502.369    776.264    502.369    542.790    502.369
 93.770    845.000    821.564     23.436    502.155    783.210    502.155    540.441    502.155
 93.870    819.000    825.743     -6.743    501.941    790.082    501.941    537.536    501.941
 93.970    803.000    830.026    -27.026    501.726    797.417    501.726    534.271    501.726
 94.070    854.060    835.133     18.927    501.509    805.752    501.509    530.829    501.509
 94.170    894.691    841.596     53.095    501.292    815.466    501.292    527.362    501.292
 94.270    836.000    849.586    -13.586    501.073    826.608    501.073    523.992    501.073
 94.370    909.000    858.797     50.203    500.853    838.783    500.853    520.810    500.853
 94.470    909.000    868.420     40.580    500.632    851.122    500.632    517.877    500.632
 94.570    845.411    877.217    -31.806    500.410    862.345    500.410    515.233    500.410
 94.670    859.427    883.650    -24.223    500.187    870.898    500.187    512.896    500.187
 94.770    903.000    886.111     16.889    499.963    875.174    499.963    510.864    499.963
 94.870    911.000    883.226     27.774    499.738    873.814    499.738    509.123    499.738
 94.970    927.000    874.183     52.817    499.512    866.028    499.512    507.648    499.512
 95.070    914.000    858.945     55.055    499.285    851.809    499.285    506.410    499.285
 95.170    889.717    838.278     51.439    499.057    831.955    499.057    505.377    499.057
 95.270    868.000    813.574     54.426    498.828    807.890    498.828    504.515    498.828
 95.370    822.000    786.602     35.398    498.598    781.413    498.598    503.793    498.598
 95.470    748.000    759.274    -11.274    498.367    754.464    498.367    503.185    498.367
 95.570    797.000    733.483     63.517    498.135    728.960    498.135    502.667    498.135
 95.670    750.000    710.992     39.008    497.902    706.682    497.902    502.219    497.902
 95.770    688.120    693.429     -5.308    497.668    689.276    497.668    501.825    497.668
 95.870    675.095    682.186     -7.091    497.434    678.146    497.434    501.472    497.434
 95.970    696.000    678.448     17.552    497.198    674.485    497.198    501.153    497.198
 96.070    693.000    683.204      9.796    496.962    679.290    496.962    500.859    496.962
 96.170    749.596    697.242     52.353    496.725    693.355    496.725    500.587    496.725
 96.270    757.000    721.140     35.860    496.487    717.260    496.487    500.331    496.487
 96.370    730.000    755.220    -25.220    496.248    751.331    496.248    500.090    496.248
 96.470    782.000    799.481    -17.481    496.008    795.568    496.008    499.863    496.008
 96.570    795.000    853.500    -58.500    495.768    849.552    495.768    499.647    495.768
 96.670    902.000    916.338    -14.338    495.527    912.341    495.527    499.442    495.527
 96.770   1036.699    986.440     50.259    495.285    982.386    495.285    499.249    495.285
 96.870   1033.168   1061.583    -28.416    495.042   1057.462    495.042    499.066    495.042
 96.970   1079.000   1138.857    -59.857    494.799   1134.659    494.799    498.895    494.799
 97.070   1261.220   1214.707     46.513    494.555   1210.425    494.555    498.734    494.555
 97.170   1277.000   1285.037     -8.037    494.310   1280.663    494.310    498.585    494.310
 97.270   1372.000   1345.465     26.535    494.065   1340.992    494.065    498.448    494.065
 97.370   1403.000   1391.736     11.264    493.819   1387.155    493.819    498.324    493.819
 97.470   1471.886   1420.319     51.568    493.573   1415.619    493.573    498.214    493.573
 97.570   1487.145   1429.048     58.097    493.325   1424.217    493.325    498.119    493.325
 97.670   1464.000   1417.563     46.437    493.078   1412.585    493.078    498.040    493.078
 97.770   1344.000   1387.331    -43.331    492.829   1382.184    492.829    497.980    492.829
 97.870   1353.009   1341.254     11.756    492.580   1335.915    492.580    497.942    492.580
 97.970   1348.157   1283.100     65.058    492.331   1277.540    492.331    497.928    492.331
 98.070   1144.000   1216.977    -72.977    492.081   1211.161    492.081    497.944    492.081
 98.170   1184.000   1146.957     37.043    491.831   1140.845    491.831    497.996    491.831
 98.270   1071.977   1076.837     -4.860    491.580   1070.379    491.580    498.093    491.580
 98.370   1048.041   1009.994     38.046    491.328   1003.131    491.328    498.246    491.328
 98.470    954.000    949.315      4.685    491.077    941.970    491.077    498.471    491.077
 98.570    858.480    897.172    -38.692    490.824    889.250    490.824    498.789    490.824
 98.670    866.000    855.445     10.555    490.572    846.826    490.572    499.226    490.572
 98.770    856.412    825.574     30.838    490.319    816.102    490.319    499.816    490.319
 98.870    774.000    808.625    -34.625    490.065    798.103    490.065    500.603    490.065
 98.970    810.000    805.364      4.636    489.812    793.543    489.812    501.639    489.812
 99.070    823.000    816.322      6.678    489.558    802.888    489.558    502.988    489.558
 99.170    806.000    841.823    -35.823    489.304    826.390    489.304    504.724    489.304
 99.270    847.000    881.981    -34.981    489.049    864.080    489.049    506.932    489.049
 99.370    972.607    936.648     35.959    488.794    915.718    488.794    509.701    488.794
 99.470    993.393   1005.387    -11.994    488.539    980.771    488.539    513.129    488.539
 99.570   1121.000   1087.322     33.678    488.284   1058.270    488.284    517.310    488.284
 99.670   1156.742   1181.055    -24.313    488.029   1146.729    488.029    522.332    488.029
 99.770   1294.056   1284.590      9.466    487.773   1244.078    487.773    528.268    487.773
 99.870   1425.116   1395.259     29.857    487.517   1347.603    487.517    535.168    487.517
 99.970   1576.730   1509.714     67.016    487.261   1453.938    487.261    543.047    487.261
100.070   1618.216   1623.991     -5.775    487.005   1559.145    487.005    551.879    487.005
100.170   1762.000   1733.706     28.294    486.749   1658.918    486.749    561.588    486.749
100.270   1879.000   1834.384     44.616    486.493   1748.916    486.493    572.038    486.493
100.370   1906.000   1921.858    -15.858    486.237   1825.172    486.237    583.026    486.237
100.470   1973.307   1992.608    -19.301    485.981   1884.436    485.981    594.283    485.981
100.570   2107.000   2043.925     63.075    485.725   1924.346    485.725    605.459    485.725
100.670   1987.337   2073.891    -86.553    485.469   1943.402    485.469    616.134    485.469
100.770   2052.107   2081.334    -29.226    485.213   1940.923    485.213    625.819    485.213
100.870   2145.320   2065.930     79.389    484.957   1917.117    484.957    633.980    484.957
100.970   1938.787   2028.460    -89.673    484.701   1873.291    484.701    640.089    484.701
101.070   1997.286   1971.061     26.224    484.446   1812.041    484.446    643.688    484.446
101.170   1881.223   1897.253    -16.030    484.190   1737.189    484.190    644.474    484.190
101.270   1870.000   1811.625     58.375    483.935   1653.411    483.935    642.361    483.935
101.370   1794.780   1719.286     75.494    483.680   1565.664    483.680    637.502    483.680
101.470   1607.000   1625.272    -18.272    483.425   1478.631    483.425    630.252    483.425
101.570   1520.528   1534.061    -13.532    483.171   1396.303    483.171    621.098    483.171
101.670   1480.000   1449.258     30.742    482.916   1321.751    482.916    610.577    482.916
101.770   1361.000   1373.432    -12.432    482.662   1257.018    482.662    599.214    482.662
101.870   1280.000   1308.068    -28.068    482.409   1203.120    482.409    587.480    482.409
101.970   1247.000   1253.602     -6.602    482.156   1160.091    482.156    575.775    482.156
102.070   1220.976   1209.508     11.468    481.903   1127.082    481.903    564.426    481.903
102.170   1162.000   1174.436    -12.436    481.650   1102.494    481.650    553.683    481.650
102.270   1135.000   1146.392    -11.392    481.398   1084.149    481.398    543.727    481.398
102.370   1137.257   1122.954     14.303    481.147   1069.507    481.147    534.676    481.147
102.470   1143.000   1101.549     41.451    480.896   1055.934    480.896    526.592    480.896
102.570   1013.000   1079.767    -66.767    480.645   1041.007    480.645    519.487    480.645
102.670   1030.873   1055.673    -24.801    480.396   1022.816    480.396    513.336    480.396
102.770    966.493   1028.041    -61.548    480.146   1000.190    480.146    508.080    480.146
102.870   1052.000    996.429     55.571    479.897    972.769    479.897    503.642    479.897
102.970    971.000    961.103      9.897    479.649    940.904    479.649    499.931    479.649
103.070    906.000    922.831    -16.831    479.402    905.462    479.402    496.851    479.402
103.170    847.000    882.673    -35.673    479.155    867.598    479.155    494.307    479.155
103.270    887.577    841.797     45.780    478.909    828.568    478.909    492.210    478.909
103.370    857.000    801.341     55.659    478.664    789.594    478.664    490.478    478.664
103.470    772.000    762.337      9.663    478.420    751.776    478.420    489.040    478.420
103.570    760.153    725.644     34.509    478.176    716.037    478.176    487.836    478.176
103.670    651.878    691.927    -40.049    477.933    683.090    477.933    486.816    477.933
103.770    701.000    661.631     39.369    477.692    653.423    477.692    485.939    477.692
103.870    634.075    634.993     -0.918    477.451    627.302    477.451    485.174    477.451
103.970    575.050    612.054    -37.004    477.211    604.795    477.211    484.496    477.211
104.070    547.415    592.694    -45.279    476.972    585.801    476.972    483.886    476.972
104.170    586.000    576.671      9.329    476.733    570.092    476.733    483.330    476.733
104.270    553.000    563.661    -10.661    476.496    557.355    476.496    482.816    476.496
104.370    583.000    553.293     29.707    476.260    547.226    476.260    482.337    476.260
104.470    532.000    545.180    -13.180    476.026    539.325    476.026    481.888    476.026
104.570    583.000    538.971     44.029    475.792    533.304    475.792    481.463    475.792
104.670    566.000    534.333     31.667    475.559    528.836    475.559    481.059    475.559
104.770    501.402    530.986    -29.583    475.328    525.640    475.328    480.675    475.328
104.870    533.000    528.701      4.299    475.098    523.491    475.098    480.307    475.098
104.970    507.000    527.308    -20.308    474.869    522.220    474.869    479.954    474.869
105.070    523.000    526.688     -3.688    474.641    521.710    474.641    479.615    474.641
105.170    599.000    526.773     72.227    474.415    521.893    474.415    479.289    474.415
105.270    497.000    527.540    -30.540    474.190    522.748    474.190    478.976    474.190
105.370    519.000    529.008    -10.008    473.966    524.293    473.966    478.673    473.966
105.470    562.707    531.226     31.481    473.744    526.580    473.744    478.381    473.744
105.570    546.000    534.275     11.725    473.523    529.688    473.523    478.099    473.523
105.670    521.487    538.250    -16.763    473.304    533.713    473.304    477.827    473.304
105.770    556.000    543.250     12.750    473.086    538.757    473.086    477.563    473.086
105.870    569.591    549.368     20.223    472.870    544.910    472.870    477.309    472.870
105.970    541.181    556.669    -15.488    472.656    552.239    472.656    477.063    472.656
106.070    538.000    565.180    -27.180    472.443    560.773    472.443    476.825    472.443
106.170    542.784    574.879    -32.095    472.232    570.487    472.232    476.595    472.232
106.270    594.000    585.682      8.318    472.022    581.299    472.022    476.372    472.022
106.370    598.000    597.437      0.563    471.814    593.058    471.814    476.158    471.814
106.470    585.000    609.925    -24.925    471.608    605.544    471.608    475.950    471.608
106.570    579.000    622.856    -43.856    471.404    618.468    471.404    475.750    471.404
106.670    616.557    635.885    -19.328    471.201    631.484    471.201    475.558    471.201
106.770    636.000    648.613    -12.613    471.001    644.196    471.001    475.372    471.001
106.870    638.000    660.614    -22.614    470.802    656.176    470.802    475.193    470.802
106.970    682.179    671.450     10.729    470.606    666.992    470.606    475.017    470.606
107.070    686.000    680.733      5.267    470.411    676.246    470.411    474.853    470.411
107.170    673.000    688.145    -15.145    470.218    683.624    470.218    474.696    470.218
107.270    686.201    693.505     -7.304    470.028    688.946    470.028    474.546    470.028
107.370    672.000    696.811    -24.811    469.839    692.209    469.839    474.404    469.839
107.470    730.493    698.242     32.251    469.653    693.591    469.653    474.270    469.653
107.570    589.000    698.133   -109.133    469.469    693.429    469.469    474.143    469.469
107.670    683.030    696.918    -13.889    469.287    692.157    469.287    474.024    469.287
107.770    648.838    695.067    -46.229    469.107    690.242    469.107    473.913    469.107
107.870    683.128    693.019     -9.891    468.930    688.124    468.930    473.809    468.930
107.970    634.000    691.135    -57.135    468.755    686.174    468.755    473.704    468.755
108.070    688.000    689.700     -1.700    468.582    684.658    468.582    473.616    468.582
108.170    682.000    688.853     -6.853    468.412    683.722    468.412    473.539    468.412
108.270    700.000    688.610     11.390    468.244    683.383    468.244    473.471    468.244
108.370    713.122    688.861     24.261    468.078    683.531    468.078    473.412    468.078
108.470    656.941    689.377    -32.436    467.916    683.936    467.916    473.363    467.916
108.570    706.000    689.826     16.174    467.755    684.268    467.755    473.325    467.755
108.670    708.000    689.812     18.188    467.598    684.127    467.598    473.297    467.598
108.770    699.000    688.913     10.087    467.443    683.093    467.443    473.280    467.443
108.870    673.000    686.741    -13.741    467.291    680.776    467.291    473.275    467.291
108.970    725.056    683.000     42.056    467.141    676.881    467.141    473.281    467.141
109.070    687.000    677.532      9.468    466.994    671.249    466.994    473.301    466.994
109.170    647.562    670.340    -22.778    466.851    663.880    466.851    473.334    466.851
109.270    703.000    661.571     41.429    466.710    654.924    466.710    473.381    466.710
109.370    623.839    651.490    -27.652    466.571    644.643    466.571    473.443    466.571
109.470    659.000    640.429     18.571    466.436    633.368    466.436    473.520    466.436
109.570    642.000    628.751     13.249    466.304    621.463    466.304    473.615    466.304
109.670    626.253    616.818      9.435    466.175    609.286    466.175    473.727    466.175
109.770    588.000    604.968    -16.968    466.049    597.177    466.049    473.858    466.049
109.870    591.000    593.501     -2.501    465.926    585.433    465.926    474.010    465.926
109.970    540.720    582.649    -41.929    465.806    574.286    465.806    474.184    465.806
110.070    579.000    572.646      6.354    465.690    563.966    465.690    474.383    465.690
110.170    542.126    563.661    -21.534    465.577    554.639    465.577    474.608    465.577
110.270    579.000    555.769     23.231    465.467    546.381    465.467    474.863    465.467
110.370    568.000    549.017     18.983    465.360    539.232    465.360    475.151    465.360
110.470    559.000    543.407     15.593    465.257    533.191    465.257    475.477    465.257
110.570    597.000    538.908     58.092    465.157    528.221    465.157    475.847    465.157
110.670    552.000    535.460     16.540    465.061    524.255    465.061    476.266    465.061
110.770    528.000    532.984     -4.984    464.968    521.206    464.968    476.746    464.968
110.870    500.170    531.394    -31.224    464.879    518.976    464.879    477.295    464.879
110.970    523.000    530.599     -7.599    464.793    517.459    464.793    477.930    464.793
111.070    526.258    530.513     -4.255    464.711    516.554    464.711    478.666    464.711
111.170    553.000    531.060     21.940    464.633    516.162    464.633    479.526    464.633
111.270    504.362    532.177    -27.815    464.559    516.192    464.559    480.538    464.559
111.370    558.000    533.816     24.184    464.488    516.565    464.488    481.733    464.488
111.470    551.000    535.947     15.053    464.422    517.210    464.422    483.151    464.422
111.570    533.392    538.558     -5.166    464.359    518.069    464.359    484.840    464.359
111.670    537.921    541.657     -3.737    464.300    519.095    464.300    486.854    464.300
111.770    550.000    545.272      4.728    464.245    520.250    464.245    489.259    464.245
111.870    556.000    549.452      6.548    464.194    521.509    464.194    492.128    464.194
111.970    516.000    554.262    -38.262    464.148    522.858    464.148    495.543    464.148
112.070    577.000    559.792     17.208    464.105    524.292    464.105    499.595    464.105
112.170    581.000    566.143     14.857    464.067    525.819    464.067    504.381    464.067
112.270    584.000    573.435     10.565    464.033    527.452    464.033    510.005    464.033
112.370    524.000    581.795    -57.795    464.003    529.216    464.003    516.571    464.003
112.470    518.000    591.358    -73.358    463.978    531.142    463.978    524.184    463.978
112.570    572.000    602.263    -30.263    463.957    533.269    463.957    532.940    463.957
112.670    591.218    614.646    -23.428    463.940    535.648    463.940    542.927    463.940
112.770    618.000    628.641    -10.641    463.928    538.341    463.928    554.217    463.928
112.870    635.000    644.376     -9.376    463.921    541.428    463.921    566.857    463.921
112.970    641.000    661.976    -20.976    463.918    545.013    463.918    580.868    463.918
113.070    639.181    681.560    -42.379    463.920    549.233    463.920    596.233    463.920
113.170    702.000    703.253     -1.253    463.927    554.266    463.927    612.898    463.927
113.270    753.974    727.187     26.787    463.938    560.347    463.938    630.761    463.938
113.370    721.000    753.520    -32.520    463.954    567.787    463.954    649.669    463.954
113.470    796.698    782.446     14.251    463.975    576.986    463.975    669.415    463.975
113.570    795.000    814.219    -19.219    464.001    588.464    464.001    689.732    464.001
113.670    858.000    849.175      8.825    464.032    602.884    464.032    710.295    464.032
113.770    901.000    887.756     13.244    464.068    621.076    464.068    730.714    464.068
113.870    929.000    930.542     -1.542    464.109    644.071    464.109    750.539    464.109
113.970    994.224    978.280     15.944    464.155    673.124    464.155    769.262    464.155
114.070   1036.000   1031.920      4.080    464.206    709.734    464.206    786.332    464.206
114.170   1158.000   1092.643     65.357    464.263    755.660    464.263    801.172    464.263
114.270   1057.000   1161.905   -104.905    464.325    812.921    464.325    813.218    464.325
114.370   1252.000   1241.462     10.538    464.392    883.783    464.392    821.960    464.392
114.470   1368.000   1333.387     34.613    464.465    970.717    464.465    826.998    464.465
114.570   1491.034   1440.059     50.975    464.543   1076.346    464.543    828.090    464.543
114.670   1655.000   1564.108     90.892    464.627   1203.348    464.627    825.186    464.627
114.770   1676.346   1708.302    -31.956    464.716   1354.346    464.716    818.432    464.716
114.870   1833.231   1875.384    -42.153    464.811   1531.757    464.811    808.154    464.811
114.970   2132.320   2067.854     64.466    464.912   1737.621    464.912    794.813    464.912
115.070   2374.000   2287.735     86.265    465.018   1973.417    465.018    778.951    465.018
115.170   2566.000   2536.318     29.682    465.131   2239.863    465.131    761.146    465.131
115.270   2747.000   2813.932    -66.932    465.249   2536.721    465.249    741.966    465.249
115.370   3149.577   3119.742     29.835    465.373   2862.624    465.373    721.942    465.373
115.470   3365.109   3451.582    -86.473    465.503   3214.929    465.503    701.555    465.503
115.570   3638.000   3805.851   -167.851    465.639   3589.616    465.639    681.225    465.639
115.670   4069.000   4177.460   -108.460    465.781   3981.241    465.781    661.312    465.781
115.770   4470.000   4559.851    -89.851    465.930   4382.951    465.930    642.110    465.930
115.870   5000.236   4945.081     55.155    466.084   4786.570    466.084    623.858    466.084
115.970   5205.357   5323.976   -118.619    466.245   5182.745    466.245    606.734    466.245
116.070   5834.939   5686.366    148.573    466.412   5561.182    466.412    590.866    466.412
116.170   5895.329   6021.402   -126.073    466.586   5910.954    466.586    576.333    466.586
116.270   6262.796   6317.987    -55.190    466.766   6220.929    466.766    563.169    466.766
116.370   6490.204   6565.327    -75.123    466.953   6480.317    466.953    551.371    466.953
116.470   6828.340   6753.628     74.713    467.146   6679.357    467.146    540.906    467.146
116.570   6951.507   6874.872     76.634    467.346   6810.090    467.346    531.712    467.346
116.670   6969.000   6923.594     45.406    467.552   6867.125    467.552    523.711    467.552
116.770   6937.000   6897.467     39.533    467.766   6848.224    467.766    516.809    467.766
116.870   6840.000   6797.571     42.429    467.986   6754.563    467.986    510.904    467.986
116.970   6621.000   6628.240     -7.240    468.213   6590.577    468.213    505.892    468.213
117.070   6563.000   6396.544    166.456    468.447   6363.435    468.447    501.670    468.447
117.170   6190.000   6111.578     78.422    468.688   6082.328    468.688    498.135    468.688
117.270   5672.000   5783.700   -111.700    468.936   5757.709    468.936    495.195    468.936
117.370   5380.000   5423.735    -43.735    469.192   5400.487    469.192    492.762    469.192
117.470   4988.000   5042.456    -54.456    469.454   5021.513    469.454    490.759    469.454
117.570   4583.000   4650.117    -67.117    469.724   4631.110    469.724    489.116    469.724
117.670   4389.000   4256.110    132.890    470.001   4238.732    470.001    487.774    470.001
117.770   4042.000   3868.722    173.278    470.286   3852.719    470.286    486.681    470.286
117.870   3512.515   3494.970     17.545    470.578   3480.132    470.578    485.795    470.578
117.970   3307.000   3140.509    166.491    470.877   3126.665    470.877    485.080    470.877
118.070   2937.000   2809.617    127.383    471.184   2796.627    471.184    484.505    471.184
118.170   2460.686   2505.238    -44.552    471.499   2492.989    471.499    484.046    471.499
118.270   2246.000   2229.081     16.919    471.822   2217.481    471.822    483.685    471.822
118.370   1973.000   1981.757     -8.757    472.152   1970.731    472.152    483.406    472.152
118.470   1750.000   1762.944    -12.944    472.491   1752.433    472.491    483.196    472.491
118.570   1507.267   1571.563    -64.295    472.837   1561.516    472.837    483.045    472.837
118.670   1373.982   1405.953    -31.972    473.191   1396.331    473.191    482.945    473.191
118.770   1231.000   1264.052    -33.052    473.553   1254.818    473.553    482.891    473.553
118.870   1139.129   1143.548     -4.418    473.924   1134.675    473.924    482.878    473.924
118.970   1044.964   1042.027      2.937    474.302   1033.489    474.302    482.901    474.302
119.070   1013.000    957.088     55.912    474.689    948.863    474.689    482.959    474.689
119.170    846.383    886.431    -40.047    475.085    878.499    475.085    483.048    475.085
119.270    811.274    827.925    -16.651    475.488    820.268    475.488    483.167    475.488
119.370    748.000    779.648    -31.648    475.900    772.248    475.900    483.315    475.900
119.470    733.000    739.904     -6.904    476.321    732.745    476.321    483.489    476.321
119.570    725.900    707.230     18.669    476.750    700.296    476.750    483.690    476.750
119.670    653.000    680.384    -27.384    477.188    673.658    477.188    483.917    477.188
119.770    608.000    658.328    -50.328    477.635    651.796    477.635    484.170    477.635
119.870    668.000    640.209     27.791    478.091    633.854    478.091    484.447    478.091
119.970    603.000    625.331    -22.331    478.555    619.137    478.555    484.750    478.555
120.070    623.013    613.135      9.878    479.029    607.085    479.029    485.079    479.029
120.170    597.000    603.172     -6.172    479.512    597.251    479.512    485.434    479.512
120.270    569.000    595.089    -26.089    480.003    589.279    480.003    485.815    480.003
120.370    587.000    588.607     -1.607    480.504    582.890    480.504    486.223    480.504
120.470    515.000    583.506    -68.506    481.014    577.864    481.014    486.658    481.014
120.570    559.000    579.615    -20.615    481.534    574.029    481.534    487.123    481.534
120.670    557.509    576.801    -19.292    482.063    571.251    482.063    487.616    482.063
120.770    577.068    574.959      2.110    482.601    569.424    482.601    488.140    482.601
120.870    606.779    574.006     32.773    483.149    568.466    483.149    488.695    483.149
120.970    571.000    573.878     -2.878    483.707    568.309    483.707    489.281    483.707
121.070    542.771    574.517    -31.745    484.274    568.898    484.274    489.900    484.274
121.170    543.000    575.875    -32.875    484.851    570.182    484.851    490.552    484.851
121.270    584.003    577.906      6.097    485.438    572.116    485.438    491.237    485.438
121.370    571.000    580.562     -9.562    486.035    574.652    486.035    491.956    486.035
121.470    552.424    583.793    -31.369    486.642    577.741    486.642    492.707    486.642
121.570    597.878    587.543     10.335    487.259    581.326    487.259    493.491    487.259
121.670    591.623    591.749     -0.125    487.886    585.347    487.886    494.306    487.886
121.770    600.000    596.338      3.662    488.524    589.732    488.524    495.150    488.524
121.870    572.995    601.230    -28.235    489.171    594.402    489.171    496.022    489.171
121.970    616.000    606.335      9.665    489.829    599.270    489.829    496.919    489.829
122.070    610.000    611.553     -1.553    490.498    604.240    490.498    497.838    490.498
122.170    606.000    616.777    -10.777    491.177    609.209    491.177    498.776    491.177
122.270    634.000    621.896     12.104    491.867    614.069    491.867    499.727    491.867
122.370    610.953    626.790    -15.837    492.567    618.705    492.567    500.688    492.567
122.470    646.602    631.344     15.258    493.279    623.008    493.279    501.653    493.279
122.570    682.000    635.442     46.558    494.001    626.868    494.001    502.616    494.001
122.670    625.000    638.982    -13.982    494.734    630.187    494.734    503.571    494.734
122.770    668.991    641.873     27.118    495.478    632.884    495.478    504.511    495.478
122.870    695.000    644.048     50.952    496.233    634.897    496.233    505.430    496.233
122.970    687.000    645.465     41.535    497.000    636.190    497.000    506.321    497.000
123.070    650.000    646.109      3.891    497.777    636.753    497.777    507.180    497.777
123.170    607.087    645.992    -38.905    498.566    636.606    498.566    508.000    498.566
123.270    664.000    645.155     18.845    499.367    635.788    499.367    508.780    499.367
123.370    631.646    643.655    -12.009    500.179    634.360    500.179    509.518    500.179
123.470    678.000    641.566     36.434    501.002    632.395    501.002    510.216    501.002
123.570    593.848    638.973    -45.125    501.837    629.975    501.837    510.876    501.837
123.670    585.276    635.963    -50.688    502.684    627.185    502.684    511.502    502.684
123.770    685.000    632.628     52.372    503.543    624.108    503.543    512.099    503.543
123.870    641.000    629.052     11.948    504.414    620.827    504.414    512.672    504.414
123.970    605.187    625.322    -20.135    505.297    617.417    505.297    513.231    505.297
124.070    571.266    621.510    -50.244    506.192    613.947    506.192    513.782    506.192
124.170    646.000    617.680     28.320    507.099    610.473    507.099    514.330    507.099
124.270    585.529    613.887    -28.358    508.018    607.045    508.018    514.881    508.018
124.370    663.000    610.171     52.829    508.949    603.698    508.949    515.441    508.949
124.470    601.000    606.564     -5.564    509.893    600.459    509.893    516.015    509.893
124.570    570.000    603.086    -33.086    510.850    597.343    510.850    516.606    510.850
124.670    556.000    599.748    -43.748    511.819    594.359    511.819    517.219    511.819
124.770    604.759    596.552      8.207    512.801    591.506    512.801    517.856    512.801
124.870    530.000    593.498    -63.498    513.796    588.780    513.796    518.521    513.796
124.970    567.000    590.579    -23.579    514.803    586.174    514.803    519.215    514.803
