neutron_powder_diffraction_0176
R_wp: 4.024
Temperature (K): 1074.000
Counts: 84171.00
Wavelength (Ã…): 2.52098
COMMENTS
Test file for demonstrating the .xyy file format in Reel1.0
END OF HEADER
   tth       Y_obs     Y_calc      Y_res    Background    Phase_1_Nuc    Phase_1_Mag    Phase_2_Nuc    Phase_2_Mag
  9.970    607.078    575.547     31.532    574.832    575.480    574.832    574.898    574.832
 10.070    594.000    575.566     18.434    574.795    575.499    574.795    574.861    574.795
 10.170    596.549    575.589     20.960    574.753    575.522    574.753    574.820    574.753
 10.270    591.000    575.617     15.383    574.708    575.549    574.708    574.775    574.708
 10.370    634.000    575.653     58.347    574.658    575.585    574.658    574.725    574.658
 10.470    615.000    575.699     39.301    574.604    575.631    574.604    574.671    574.604
 10.570    605.000    575.760     29.240    574.545    575.691    574.545    574.613    574.545
 10.670    580.000    575.839      4.161    574.483    575.770    574.483    574.551    574.483
 10.770    567.000    575.943     -8.943    574.416    575.874    574.416    574.485    574.416
 10.870    555.000    576.082    -21.082    574.346    576.012    574.346    574.414    574.346
 10.970    539.227    576.266    -37.039    574.271    576.196    574.271    574.340    574.271
 11.070    568.227    576.514     -8.287    574.192    576.443    574.192    574.261    574.192
 11.170    579.000    576.850      2.150    574.109    576.779    574.109    574.179    574.109
 11.270    612.000    577.314     34.686    574.023    577.243    574.023    574.093    574.023
 11.370    620.000    577.973     42.027    573.932    577.901    573.932    574.003    573.932
 11.470    595.000    578.973     16.027    573.838    578.900    573.838    573.909    573.838
 11.570    596.030    580.720     15.310    573.740    580.645    573.740    573.811    573.740
 11.670    576.678    584.389     -7.711    573.638    584.307    573.638    573.714    573.638
 11.770    605.860    592.733     13.128    573.533    592.644    573.533    573.611    573.533
 11.870    617.000    610.264      6.736    573.424    610.166    573.424    573.502    573.424
 11.970    659.000    640.559     18.441    573.311    640.443    573.311    573.389    573.311
 12.070    706.000    679.759     26.241    573.194    679.621    573.194    573.273    573.194
 12.170    747.000    710.648     36.352    573.075    710.492    573.075    573.154    573.075
 12.270    679.000    711.538    -32.538    572.951    711.381    572.951    573.031    572.951
 12.370    707.335    681.512     25.823    572.824    681.372    572.824    572.904    572.824
 12.470    584.000    641.882    -57.882    572.694    641.763    572.694    572.774    572.694
 12.570    563.000    610.641    -47.641    572.560    610.539    572.560    572.641    572.560
 12.670    577.785    592.252    -14.467    572.423    592.160    572.423    572.504    572.423
 12.770    635.000    583.322     51.678    572.283    583.234    572.283    572.364    572.283
 12.870    552.000    579.268    -27.268    572.139    579.182    572.139    572.221    572.139
 12.970    578.000    577.224      0.776    571.993    577.139    571.993    572.075    571.993
 13.070    546.116    575.960    -29.845    571.843    575.876    571.843    571.925    571.843
 13.170    600.000    575.048     24.952    571.689    574.964    571.689    571.772    571.689
 13.270    581.000    574.336      6.664    571.533    574.251    571.533    571.617    571.533
 13.370    560.000    573.755    -13.755    571.374    573.670    571.374    571.458    571.374
 13.470    572.000    573.265     -1.265    571.211    573.179    571.211    571.296    571.211
 13.570    614.197    572.840     41.358    571.046    572.754    571.046    571.131    571.046
 13.670    567.000    572.463     -5.463    570.878    572.377    570.878    570.963    570.878
 13.770    561.000    572.122    -11.122    570.706    572.035    570.706    570.792    570.706
 13.870    593.000    571.807     21.193    570.532    571.721    570.532    570.618    570.532
 13.970    579.000    571.513      7.487    570.355    571.426    570.355    570.442    570.355
 14.070    593.000    571.235     21.765    570.176    571.148    570.176    570.262    570.176
 14.170    559.375    570.969    -11.594    569.993    570.881    569.993    570.080    569.993
 14.270    566.000    570.712     -4.712    569.808    570.624    569.808    569.895    569.808
 14.370    523.000    570.462    -47.462    569.620    570.374    569.620    569.708    569.620
 14.470    584.000    570.218     13.782    569.429    570.129    569.429    569.518    569.429
 14.570    555.000    569.981    -14.981    569.236    569.892    569.236    569.325    569.236
 14.670    525.000    569.746    -44.746    569.040    569.657    569.040    569.129    569.040
 14.770    526.000    569.512    -43.512    568.841    569.422    568.841    568.931    568.841
 14.870    553.000    569.280    -16.280    568.640    569.189    568.640    568.731    568.640
 14.970    563.435    569.048     -5.613    568.437    568.957    568.437    568.528    568.437
 15.070    550.000    568.818    -18.818    568.231    568.726    568.231    568.322    568.231
 15.170    579.917    568.587     11.330    568.022    568.495    568.022    568.114    568.022
 15.270    581.000    568.357     12.643    567.811    568.264    567.811    567.904    567.811
 15.370    585.373    568.126     17.247    567.598    568.033    567.598    567.691    567.598
 15.470    593.290    567.895     25.395    567.383    567.801    567.383    567.476    567.383
 15.570    582.000    567.663     14.337    567.165    567.569    567.165    567.259    567.165
 15.670    599.000    567.431     31.569    566.945    567.336    566.945    567.039    566.945
 15.770    552.000    567.197    -15.197    566.723    567.102    566.723    566.818    566.723
 15.870    560.000    566.963     -6.963    566.498    566.867    566.498    566.594    566.498
 15.970    557.000    566.727     -9.727    566.272    566.631    566.272    566.368    566.272
 16.070    597.527    566.490     31.036    566.043    566.394    566.043    566.140    566.043
 16.170    586.941    566.253     20.688    565.812    566.156    565.812    565.909    565.812
 16.270    528.120    566.016    -37.896    565.579    565.918    565.579    565.677    565.579
 16.370    532.000    565.776    -33.776    565.344    565.677    565.344    565.443    565.344
 16.470    542.000    565.534    -23.534    565.107    565.435    565.107    565.207    565.107
 16.570    559.000    565.291     -6.291    564.869    565.191    564.869    564.968    564.869
 16.670    579.000    565.046     13.954    564.628    564.946    564.628    564.728    564.628
 16.770    550.000    564.800    -14.800    564.385    564.699    564.385    564.486    564.385
 16.870    535.382    564.553    -29.171    564.141    564.452    564.141    564.242    564.141
 16.970    608.448    564.305     44.143    563.894    564.202    563.894    563.996    563.894
 17.070    542.000    564.055    -22.055    563.646    563.952    563.646    563.749    563.646
 17.170    588.358    563.803     24.555    563.396    563.700    563.396    563.500    563.396
 17.270    523.478    563.551    -40.073    563.144    563.447    563.144    563.249    563.144
 17.370    529.517    563.301    -33.784    562.891    563.194    562.891    562.998    562.891
 17.470    578.000    563.047     14.953    562.636    562.939    562.636    562.744    562.636
 17.570    571.000    562.791      8.209    562.379    562.681    562.379    562.489    562.379
 17.670    549.000    562.533    -13.533    562.121    562.423    562.121    562.231    562.121
 17.770    577.226    562.274     14.953    561.861    562.163    561.861    561.972    561.861
 17.870    560.000    562.013     -2.013    561.599    561.901    561.599    561.711    561.599
 17.970    586.510    561.751     24.758    561.336    561.639    561.336    561.449    561.336
 18.070    523.000    561.488    -38.488    561.072    561.375    561.072    561.185    561.072
 18.170    556.000    561.224     -5.224    560.806    561.110    560.806    560.920    560.806
 18.270    539.000    560.960    -21.960    560.538    560.845    560.538    560.653    560.538
 18.370    523.927    560.694    -36.767    560.269    560.578    560.269    560.385    560.269
 18.470    539.000    560.426    -21.426    559.999    560.310    559.999    560.115    559.999
 18.570    604.921    560.158     44.763    559.727    560.041    559.727    559.845    559.727
 18.670    490.000    559.888    -69.888    559.454    559.770    559.454    559.573    559.454
 18.770    559.000    559.618     -0.618    559.180    559.499    559.180    559.299    559.180
 18.870    524.000    559.346    -35.346    558.905    559.226    558.905    559.025    558.905
 18.970    563.000    559.074      3.926    558.628    558.953    558.628    558.749    558.628
 19.070    574.000    558.800     15.200    558.350    558.679    558.350    558.472    558.350
 19.170    563.000    558.526      4.474    558.071    558.403    558.071    558.193    558.071
 19.270    545.000    558.251    -13.251    557.790    558.127    557.790    557.914    557.790
 19.370    567.882    557.975      9.907    557.509    557.850    557.509    557.634    557.509
 19.470    556.000    557.698     -1.698    557.226    557.573    557.226    557.352    557.226
 19.570    532.483    557.422    -24.939    556.943    557.295    556.943    557.069    556.943
 19.670    550.000    557.145     -7.145    556.658    557.017    556.658    556.786    556.658
 19.770    531.000    556.866    -25.866    556.372    556.737    556.372    556.501    556.372
 19.870    526.028    556.587    -30.559    556.085    556.457    556.085    556.215    556.085
 19.970    546.000    556.308    -10.308    555.798    556.177    555.798    555.929    555.798
 20.070    563.000    556.041      6.959    555.509    555.909    555.509    555.641    555.509
 20.170    520.388    555.771    -35.383    555.219    555.637    555.219    555.353    555.219
 20.270    552.000    555.490     -3.490    554.929    555.356    554.929    555.063    554.929
 20.370    582.000    555.209     26.791    554.637    555.073    554.637    554.773    554.637
 20.470    567.731    554.927     12.804    554.345    554.790    554.345    554.482    554.345
 20.570    562.000    554.645      7.355    554.052    554.507    554.052    554.190    554.052
 20.670    531.000    554.363    -23.363    553.758    554.223    553.758    553.898    553.758
 20.770    576.983    554.081     22.902    553.464    553.940    553.464    553.605    553.464
 20.870    563.706    553.799      9.908    553.168    553.656    553.168    553.311    553.168
 20.970    545.000    553.516     -8.516    552.872    553.373    552.872    553.016    552.872
 21.070    594.000    553.235     40.765    552.575    553.089    552.575    552.721    552.575
 21.170    546.089    552.961     -6.872    552.278    552.814    552.278    552.425    552.278
 21.270    543.483    552.765     -9.283    551.980    552.617    551.980    552.128    551.980
 21.370    539.383    552.507    -13.124    551.681    552.357    551.681    551.831    551.681
 21.470    563.425    552.228     11.197    551.382    552.077    551.382    551.533    551.382
 21.570    565.138    551.949     13.189    551.082    551.796    551.082    551.235    551.082
 21.670    599.094    551.671     47.423    550.781    551.516    550.781    550.936    550.781
 21.770    568.000    551.396     16.604    550.480    551.239    550.480    550.637    550.480
 21.870    573.000    551.142     21.858    550.179    550.983    550.179    550.338    550.179
 21.970    522.413    550.897    -28.483    549.877    550.736    549.877    550.037    549.877
 22.070    546.000    550.627     -4.627    549.574    550.465    549.574    549.737    549.574
 22.170    531.000    550.358    -19.358    549.271    550.193    549.271    549.436    549.271
 22.270    532.578    550.096    -17.517    548.968    549.929    548.968    549.135    548.968
 22.370    587.883    549.878     38.005    548.664    549.709    548.664    548.833    548.664
 22.470    553.000    549.637      3.363    548.360    549.466    548.360    548.532    548.360
 22.570    507.420    549.383    -41.963    548.056    549.210    548.056    548.229    548.056
 22.670    547.000    549.135     -2.135    547.751    548.959    547.751    547.927    547.751
 22.770    562.000    548.896     13.104    547.446    548.717    547.446    547.624    547.446
 22.870    534.000    548.660    -14.660    547.140    548.479    547.140    547.322    547.140
 22.970    529.092    548.433    -19.341    546.835    548.250    546.835    547.019    546.835
 23.070    528.415    548.218    -19.803    546.529    548.032    546.529    546.716    546.529
 23.170    593.845    548.016     45.829    546.223    547.827    546.223    546.413    546.223
 23.270    502.000    547.833    -45.833    545.917    547.640    545.917    546.109    545.917
 23.370    571.000    547.671     23.329    545.610    547.476    545.610    545.806    545.610
 23.470    570.668    547.539     23.130    545.303    547.340    545.303    545.503    545.303
 23.570    575.000    547.445     27.555    544.997    547.243    544.997    545.199    544.997
 23.670    560.292    547.404     12.888    544.690    547.199    544.690    544.896    544.690
 23.770    543.535    547.431     -3.895    544.383    547.222    544.383    544.593    544.383
 23.870    549.000    547.557      1.443    544.076    547.345    544.076    544.290    544.076
 23.970    587.531    547.838     39.692    543.769    547.622    543.769    543.986    543.769
 24.070    524.694    548.402    -23.707    543.461    548.182    543.461    543.684    543.461
 24.170    565.000    549.614     15.386    543.154    549.391    543.154    543.381    543.154
 24.270    553.000    552.465      0.535    542.847    552.239    542.847    543.078    542.847
 24.370    562.000    559.053      2.947    542.540    558.828    542.540    542.776    542.540
 24.470    634.000    572.328     61.672    542.233    572.107    542.233    542.474    542.233
 24.570    611.000    593.796     17.204    541.926    593.585    541.926    542.173    541.926
 24.670    614.000    619.282     -5.282    541.619    619.083    541.619    541.872    541.619
 24.770    637.169    636.223      0.946    541.312    636.031    541.312    541.571    541.312
 24.870    625.000    632.094     -7.094    541.005    631.893    541.005    541.271    541.005
 24.970    637.460    610.316     27.144    540.699    610.092    540.699    540.971    540.699
 25.070    596.300    584.876     11.424    540.392    584.627    540.392    540.672    540.392
 25.170    552.552    565.542    -12.990    540.086    565.271    540.086    540.373    540.086
 25.270    554.000    554.200     -0.200    539.780    553.914    539.780    540.075    539.780
 25.370    559.000    548.557     10.443    539.474    548.258    539.474    539.778    539.474
 25.470    556.000    545.863     10.137    539.168    545.553    539.168    539.482    539.168
 25.570    515.000    544.420    -29.420    538.863    544.099    538.863    539.186    538.863
 25.670    543.000    543.483     -0.483    538.557    543.151    538.557    538.892    538.557
 25.770    635.000    542.784     92.216    538.253    542.440    538.253    538.598    538.253
 25.870    585.000    542.229     42.771    537.948    541.872    537.948    538.306    537.948
 25.970    588.000    541.776     46.224    537.644    541.405    537.644    538.015    537.644
 26.070    535.000    541.403     -6.403    537.340    541.018    537.340    537.725    537.340
 26.170    551.871    541.120     10.751    537.036    540.719    537.036    537.437    537.036
 26.270    532.000    540.889     -8.889    536.733    540.471    536.733    537.151    536.733
 26.370    499.419    540.687    -41.269    536.430    540.252    536.430    536.866    536.430
 26.470    500.426    540.536    -40.110    536.128    540.080    536.128    536.583    536.128
 26.570    555.389    540.441     14.948    535.825    539.963    535.825    536.303    535.825
 26.670    525.353    540.408    -15.056    535.524    539.907    535.524    536.025    535.524
 26.770    581.000    540.438     40.562    535.223    539.910    535.223    535.750    535.223
 26.870    564.000    540.547     23.453    534.922    539.991    534.922    535.478    534.922
 26.970    536.000    540.758     -4.758    534.622    540.169    534.622    535.210    534.622
 27.070    557.000    541.113     15.887    534.322    540.488    534.322    534.946    534.322
 27.170    553.000    541.653     11.347    534.023    540.989    534.023    534.686    534.023
 27.270    581.000    542.383     38.617    533.724    541.674    533.724    534.432    533.724
 27.370    582.000    543.423     38.577    533.426    542.663    533.426    534.183    533.426
 27.470    590.000    544.940     45.060    533.128    544.124    533.128    533.942    533.128
 27.570    552.000    547.363      4.637    532.831    546.482    532.831    533.709    532.831
 27.670    555.323    552.166      3.157    532.534    551.210    532.534    533.486    532.534
 27.770    540.361    564.177    -23.816    532.239    563.132    532.239    533.275    532.239
 27.870    595.852    595.184      0.668    531.943    594.031    531.943    533.078    531.943
 27.970    642.000    662.856    -20.856    531.649    661.567    531.649    532.897    531.649
 28.070    763.000    774.236    -11.236    531.355    772.780    531.355    532.738    531.355
 28.170    919.000    897.835     21.165    531.061    896.192    531.061    532.604    531.061
 28.270    975.000    958.801     16.199    530.768    956.967    530.768    532.503    530.768
 28.370    943.135    907.766     35.369    530.476    905.734    530.476    532.445    530.476
 28.470    801.000    797.490      3.510    530.185    795.202    530.185    532.446    530.185
 28.570    751.838    711.953     39.886    529.894    709.305    529.894    532.529    529.894
 28.670    659.169    694.610    -35.440    529.605    691.466    529.605    532.732    529.605
 28.770    722.000    740.851    -18.851    529.315    737.033    529.315    533.113    529.315
 28.870    818.000    810.471      7.529    529.027    805.728    529.027    533.756    529.027
 28.970    842.000    843.342     -1.342    528.739    837.311    528.739    534.770    528.739
 29.070    753.000    803.782    -50.782    528.452    795.962    528.452    536.284    528.452
 29.170    694.000    722.660    -28.660    528.166    712.419    528.166    538.419    528.166
 29.270    570.000    647.711    -77.711    527.881    634.351    527.881    541.248    527.881
 29.370    628.961    600.572     28.389    527.597    583.473    527.597    544.699    527.597
 29.470    585.677    578.719      6.958    527.313    557.645    527.313    548.386    527.313
 29.570    582.000    570.737     11.263    527.030    546.335    527.030    551.430    527.030
 29.670    608.000    567.171     40.829    526.748    541.292    526.748    552.625    526.748
 29.770    601.987    563.406     38.581    526.467    538.584    526.467    551.286    526.467
 29.870    577.000    558.570     18.430    526.187    536.827    526.187    547.928    526.187
 29.970    541.000    553.417    -12.417    525.907    535.595    525.907    543.728    525.907
 30.070    518.000    548.763    -30.763    525.629    534.747    525.629    539.642    525.629
 30.170    505.000    545.042    -40.042    525.352    534.258    525.352    536.132    525.352
 30.270    586.076    542.481     43.594    525.075    534.240    525.075    533.314    525.075
 30.370    544.288    541.474      2.814    524.799    535.134    524.799    531.135    524.799
 30.470    592.000    543.070     48.930    524.524    538.110    524.524    529.478    524.524
 30.570    509.287    549.287    -40.000    524.251    545.310    524.251    528.216    524.251
 30.670    577.000    562.325     14.675    523.978    559.046    523.978    527.233    523.978
 30.770    615.000    581.982     33.018    523.706    579.208    523.706    526.442    523.706
 30.870    583.000    602.373    -19.373    523.435    599.976    523.435    525.780    523.435
 30.970    633.000    611.647     21.353    523.165    609.550    523.165    525.207    523.165
 31.070    625.316    601.963     23.353    522.896    600.117    522.896    524.696    522.896
 31.170    595.000    580.581     14.419    522.629    578.948    522.629    524.232    522.629
 31.270    550.000    559.341     -9.341    522.362    557.885    522.362    523.802    522.362
 31.370    530.977    544.368    -13.391    522.096    543.057    522.096    523.399    522.096
 31.470    543.000    535.986      7.014    521.831    534.794    521.831    523.019    521.831
 31.570    576.000    531.925     44.075    521.568    530.833    521.568    522.656    521.568
 31.670    534.000    529.994      4.006    521.305    528.988    521.305    522.309    521.305
 31.770    594.000    528.949     65.051    521.043    528.017    521.043    521.974    521.043
 31.870    543.000    528.279     14.721    520.783    527.411    520.783    521.650    520.783
 31.970    525.439    527.810     -2.371    520.524    526.998    520.524    521.334    520.524
 32.070    562.000    527.485     34.515    520.265    526.722    520.265    521.027    520.265
 32.170    576.000    527.279     48.721    520.008    526.559    520.008    520.726    520.008
 32.270    568.000    527.184     40.816    519.752    526.503    519.752    520.432    519.752
 32.370    542.000    527.201     14.799    519.497    526.554    519.497    520.143    519.497
 32.470    545.000    527.338     17.662    519.244    526.722    519.244    519.858    519.244
 32.570    569.000    527.612     41.388    518.991    527.023    518.991    519.578    518.991
 32.670    545.371    528.049     17.322    518.740    527.485    518.740    519.302    518.740
 32.770    527.000    528.688     -1.688    518.489    528.146    518.489    519.030    518.489
 32.870    546.000    529.586     16.414    518.240    529.064    518.240    518.761    518.240
 32.970    527.000    530.826     -3.826    517.992    530.322    517.992    518.495    517.992
 33.070    562.000    532.539     29.461    517.746    532.051    517.746    518.231    517.746
 33.170    535.171    534.962      0.209    517.500    534.489    517.500    517.971    517.500
 33.270    512.244    538.643    -26.399    517.256    538.183    517.256    517.713    517.256
 33.370    549.000    545.067      3.933    517.013    544.619    517.013    517.457    517.013
 33.470    576.000    558.126     17.874    516.771    557.686    516.771    517.204    516.771
 33.570    650.000    586.199     63.801    516.530    585.765    516.530    516.953    516.530
 33.670    643.000    642.463      0.537    516.291    642.028    516.291    516.704    516.291
 33.770    727.224    738.758    -11.535    516.053    738.316    516.053    516.457    516.053
 33.870    904.000    871.149     32.851    515.816    870.698    515.816    516.213    515.816
 33.970   1033.937   1003.726     30.211    515.580   1003.272    515.580    515.970    515.580
 34.070   1105.000   1068.650     36.350    515.346   1068.212    515.346    515.729    515.346
 34.170   1048.000   1019.897     28.103    515.112   1019.492    515.112    515.489    515.112
 34.270    950.020    893.525     56.495    514.881    893.149    514.881    515.252    514.881
 34.370    716.000    757.796    -41.796    514.650    757.437    514.650    515.016    514.650
 34.470    666.000    654.307     11.693    514.421    653.954    514.421    514.782    514.421
 34.570    555.354    591.392    -36.038    514.193    591.040    514.193    514.550    514.193
 34.670    551.000    558.869     -7.869    513.966    558.518    513.966    514.320    513.966
 34.770    558.000    543.309     14.691    513.741    542.960    513.741    514.091    513.741
 34.870    555.000    535.504     19.496    513.517    535.157    513.517    513.863    513.517
 34.970    576.525    530.935     45.591    513.294    530.590    513.294    513.638    513.294
 35.070    543.000    527.805     15.195    513.073    527.463    513.073    513.414    513.073
 35.170    481.000    525.451    -44.451    512.853    525.112    512.853    513.191    512.853
 35.270    550.193    523.596     26.597    512.634    523.259    512.634    512.970    512.634
 35.370    523.000    522.093      0.907    512.416    521.758    512.416    512.751    512.416
 35.470    506.000    520.851    -14.851    512.200    520.517    512.200    512.534    512.200
 35.570    489.000    519.805    -30.805    511.986    519.473    511.986    512.317    511.986
 35.670    537.000    518.911     18.089    511.772    518.581    511.772    512.103    511.772
 35.770    507.623    518.137    -10.514    511.561    517.808    511.561    511.890    511.561
 35.870    525.000    517.459      7.541    511.350    517.130    511.350    511.679    511.350
 35.970    496.810    516.858    -20.048    511.141    516.530    511.141    511.469    511.141
 36.070    511.000    516.322     -5.322    510.933    515.994    510.933    511.260    510.933
 36.170    504.000    515.840    -11.840    510.727    515.513    510.727    511.054    510.727
 36.270    487.000    515.405    -28.405    510.522    515.079    510.522    510.848    510.522
 36.370    474.000    515.012    -41.012    510.318    514.686    510.318    510.645    510.318
 36.470    492.000    514.658    -22.658    510.116    514.331    510.116    510.442    510.116
 36.570    482.000    514.340    -32.340    509.915    514.013    509.915    510.242    509.915
 36.670    536.000    514.060     21.940    509.715    513.733    509.715    510.043    509.715
 36.770    489.705    513.823    -24.119    509.517    513.496    509.517    509.845    509.517
 36.870    506.000    513.649     -7.649    509.321    513.320    509.321    509.649    509.321
 36.970    554.124    513.585     40.539    509.126    513.256    509.126    509.455    509.126
 37.070    530.000    513.756     16.244    508.932    513.427    508.932    509.262    508.932
 37.170    517.620    514.403      3.217    508.740    514.073    508.740    509.070    508.740
 37.270    522.000    515.880      6.120    508.549    515.549    508.549    508.880    508.549
 37.370    509.000    518.491     -9.491    508.359    518.159    508.359    508.692    508.359
 37.470    552.724    522.155     30.569    508.171    521.822    508.171    508.505    508.171
 37.570    513.000    526.031    -13.031    507.985    525.698    507.985    508.320    507.985
 37.670    510.000    528.477    -18.477    507.800    528.144    507.800    508.136    507.800
 37.770    531.000    528.116      2.884    507.616    527.784    507.616    507.954    507.616
 37.870    512.000    525.303    -13.303    507.434    524.972    507.434    507.774    507.434
 37.970    487.985    521.542    -33.556    507.253    521.210    507.253    507.595    507.253
 38.070    547.202    518.002     29.200    507.074    517.669    507.074    507.417    507.074
 38.170    541.025    515.139     25.885    506.896    514.803    506.896    507.241    506.896
 38.270    484.000    513.038    -29.038    506.719    512.698    506.719    507.067    506.719
 38.370    510.000    511.602     -1.602    506.544    511.257    506.544    506.894    506.544
 38.470    506.000    510.654     -4.654    506.371    510.305    506.371    506.723    506.371
 38.570    462.000    510.030    -48.030    506.199    509.677    506.199    506.554    506.199
 38.670    551.000    509.602     41.398    506.028    509.246    506.028    506.386    506.028
 38.770    507.963    509.285     -1.321    505.859    508.925    505.859    506.219    505.859
 38.870    550.984    509.026     41.958    505.692    508.664    505.692    506.054    505.692
 38.970    506.334    508.801     -2.467    505.526    508.436    505.526    505.891    505.526
 39.070    512.000    508.596      3.404    505.361    508.229    505.361    505.729    505.361
 39.170    537.000    508.407     28.593    505.198    508.036    505.198    505.569    505.198
 39.270    503.000    508.230     -5.230    505.036    507.856    505.036    505.411    505.036
 39.370    527.000    508.064     18.936    504.876    507.687    504.876    505.254    504.876
 39.470    507.121    507.907     -0.786    504.718    507.527    504.718    505.098    504.718
 39.570    496.781    507.759    -10.978    504.560    507.375    504.560    504.945    504.560
 39.670    514.000    507.619      6.381    504.405    507.231    504.405    504.792    504.405
 39.770    471.000    507.487    -36.487    504.250    507.095    504.250    504.642    504.250
 39.870    477.000    507.362    -30.362    504.098    506.967    504.098    504.493    504.098
 39.970    512.000    507.246      4.754    503.947    506.847    503.947    504.346    503.947
 40.070    531.000    507.138     23.862    503.797    506.735    503.797    504.200    503.797
 40.170    540.854    507.038     33.816    503.649    506.631    503.649    504.056    503.649
 40.270    529.000    506.948     22.052    503.502    506.536    503.502    503.914    503.502
 40.370    509.513    506.867      2.646    503.357    506.451    503.357    503.773    503.357
 40.470    536.000    506.798     29.202    503.213    506.377    503.213    503.634    503.213
 40.570    499.000    506.741     -7.741    503.071    506.315    503.071    503.497    503.071
 40.670    526.812    506.698     20.114    502.930    506.268    502.930    503.361    502.930
 40.770    490.036    506.671    -16.635    502.791    506.236    502.791    503.227    502.791
 40.870    531.238    506.663     24.575    502.653    506.223    502.653    503.094    502.653
 40.970    515.000    506.678      8.322    502.517    506.232    502.517    502.963    502.517
 41.070    481.086    506.720    -25.634    502.382    506.269    502.382    502.834    502.382
 41.170    517.000    506.796     10.204    502.249    506.339    502.249    502.707    502.249
 41.270    513.000    506.913      6.087    502.117    506.450    502.117    502.581    502.117
 41.370    541.842    507.083     34.759    501.987    506.614    501.987    502.457    501.987
 41.470    538.317    507.322     30.994    501.858    506.847    501.858    502.335    501.858
 41.570    556.000    507.656     48.344    501.731    507.174    501.731    502.214    501.731
 41.670    518.000    508.129      9.871    501.605    507.640    501.605    502.095    501.605
 41.770    475.596    508.842    -33.246    501.481    508.347    501.481    501.978    501.481
 41.870    470.000    510.040    -40.040    501.358    509.538    501.358    501.863    501.358
 41.970    480.000    512.286    -32.286    501.237    511.778    501.237    501.749    501.237
 42.070    490.075    516.705    -26.630    501.117    516.191    501.117    501.637    501.117
 42.170    504.000    525.094    -21.094    500.999    524.575    500.999    501.527    500.999
 42.270    541.000    539.514      1.486    500.882    538.993    500.882    501.419    500.882
 42.370    554.637    561.039     -6.401    500.767    560.520    500.767    501.312    500.767
 42.470    580.074    587.889     -7.816    500.653    587.375    500.653    501.207    500.653
 42.570    576.000    613.815    -37.815    500.541    613.306    500.541    501.104    500.541
 42.670    613.000    628.647    -15.647    500.430    628.139    500.430    501.003    500.430
 42.770    613.000    624.627    -11.627    500.321    624.110    500.321    500.904    500.321
 42.870    576.000    604.117    -28.117    500.213    603.581    500.213    500.807    500.213
 42.970    550.158    576.797    -26.640    500.107    576.237    500.107    500.711    500.107
 43.070    520.000    551.515    -31.515    500.002    550.929    500.002    500.618    500.002
 43.170    506.000    532.647    -26.647    499.898    532.038    499.898    500.526    499.898
 43.270    519.000    520.648     -1.648    499.797    520.019    499.797    500.437    499.797
 43.370    498.000    513.887    -15.887    499.696    513.241    499.696    500.349    499.696
 43.470    514.363    510.331      4.031    499.597    509.669    499.597    500.264    499.597
 43.570    497.000    508.445    -11.445    499.500    507.768    499.500    500.180    499.500
 43.670    502.000    507.349     -5.349    499.404    506.656    499.404    500.099    499.404
 43.770    530.000    506.625     23.375    499.309    505.917    499.309    500.019    499.309
 43.870    519.416    506.097     13.318    499.216    505.373    499.216    499.942    499.216
 43.970    483.978    505.691    -21.713    499.125    504.950    499.125    499.867    499.125
 44.070    526.200    505.370     20.830    499.035    504.611    499.035    499.795    499.035
 44.170    548.263    505.114     43.149    498.946    504.337    498.946    499.724    498.946
 44.270    507.000    504.909      2.091    498.859    504.113    498.859    499.656    498.859
 44.370    528.000    504.746     23.254    498.773    503.929    498.773    499.591    498.773
 44.470    548.163    504.617     43.546    498.689    503.779    498.689    499.528    498.689
 44.570    523.734    504.517     19.217    498.607    503.657    498.607    499.467    498.607
 44.670    529.496    504.443     25.053    498.525    503.559    498.525    499.409    498.525
 44.770    538.008    504.392     33.617    498.445    503.483    498.445    499.354    498.445
 44.870    483.043    504.361    -21.317    498.367    503.426    498.367    499.302    498.367
 44.970    514.000    504.349      9.651    498.290    503.386    498.290    499.253    498.290
 45.070    503.000    504.355     -1.355    498.214    503.363    498.214    499.207    498.214
 45.170    464.729    504.379    -39.650    498.140    503.356    498.140    499.164    498.140
 45.270    465.021    504.420    -39.400    498.068    503.364    498.068    499.124    498.068
 45.370    476.000    504.479    -28.479    497.997    503.388    497.997    499.088    497.997
 45.470    497.869    504.557     -6.687    497.927    503.427    497.927    499.056    497.927
 45.570    467.000    504.652    -37.652    497.858    503.483    497.858    499.028    497.858
 45.670    462.974    504.768    -41.794    497.792    503.556    497.792    499.003    497.792
 45.770    486.624    504.905    -18.281    497.726    503.647    497.726    498.984    497.726
 45.870    488.000    505.065    -17.065    497.662    503.758    497.662    498.969    497.662
 45.970    525.918    505.251     20.667    497.599    503.890    497.599    498.959    497.599
 46.070    496.249    505.465     -9.216    497.538    504.047    497.538    498.955    497.538
 46.170    484.000    505.712    -21.712    497.478    504.232    497.478    498.957    497.478
 46.270    543.000    505.995     37.005    497.420    504.448    497.420    498.966    497.420
 46.370    482.452    506.322    -23.869    497.363    504.702    497.363    498.981    497.363
 46.470    491.131    506.699    -15.568    497.307    505.000    497.307    499.005    497.307
 46.570    488.000    507.138    -19.138    497.253    505.353    497.253    499.037    497.253
 46.670    497.000    507.655    -10.655    497.200    505.775    497.200    499.079    497.200
 46.770    495.068    508.277    -13.208    497.148    506.292    497.148    499.131    497.148
 46.870    492.000    509.059    -17.059    497.098    506.960    497.098    499.196    497.098
 46.970    523.000    510.127     12.873    497.049    507.900    497.049    499.274    497.049
 47.070    490.000    511.750    -21.750    497.002    509.381    497.002    499.367    497.002
 47.170    537.000    514.452     22.548    496.956    511.924    496.956    499.479    496.956
 47.270    517.000    519.088     -2.088    496.911    516.381    496.911    499.610    496.911
 47.370    511.000    526.737    -15.737    496.868    523.826    496.868    499.765    496.868
 47.470    571.000    538.272     32.728    496.826    535.128    496.826    499.947    496.826
 47.570    585.000    553.612     31.388    496.785    550.202    496.785    500.162    496.785
 47.670    573.724    570.919      2.805    496.746    567.205    496.746    500.414    496.746
 47.770    588.000    586.137      1.863    496.708    582.077    496.708    500.713    496.708
 47.870    595.000    593.849      1.151    496.672    589.394    496.672    501.068    496.672
 47.970    590.000    590.848     -0.848    496.636    585.937    496.636    501.494    496.636
 48.070    605.221    579.319     25.903    496.603    573.867    496.603    502.010    496.603
 48.170    566.112    564.583      1.529    496.570    558.472    496.570    502.649    496.570
 48.270    611.000    551.218     59.782    496.539    544.278    496.539    503.458    496.539
 48.370    572.773    541.702     31.071    496.509    533.688    496.509    504.510    496.509
 48.470    526.000    536.643    -10.643    496.480    527.199    496.480    505.916    496.480
 48.570    550.000    535.554     14.446    496.453    524.163    496.453    507.838    496.453
 48.670    500.000    537.648    -37.648    496.427    523.580    496.427    510.490    496.427
 48.770    528.228    542.363    -14.135    496.402    524.621    496.402    514.140    496.402
 48.870    530.000    549.512    -19.512    496.378    526.807    496.378    519.079    496.378
 48.970    573.016    559.220     13.796    496.356    529.999    496.356    525.572    496.356
 49.070    543.000    571.820    -28.820    496.335    534.377    496.335    533.772    496.335
 49.170    589.000    587.907      1.093    496.315    540.618    496.315    543.597    496.315
 49.270    616.000    608.817      7.183    496.297    550.551    496.297    554.552    496.297
 49.370    670.587    637.948     32.639    496.280    568.726    496.280    565.486    496.280
 49.470    632.799    683.336    -50.537    496.264    605.128    496.264    574.445    496.264
 49.570    783.000    761.104     21.896    496.249    678.216    496.249    579.090    496.249
 49.670    856.000    896.941    -40.941    496.236    815.180    496.236    577.916    496.236
 49.770   1152.000   1119.695     32.305    496.224   1044.451    496.224    571.343    496.224
 49.870   1374.379   1442.999    -68.620    496.213   1377.675    496.213    561.371    496.213
 49.970   1799.187   1840.573    -41.386    496.203   1786.328    496.203    550.266    496.203
 50.070   2263.000   2230.497     32.503    496.195   2186.876    496.195    539.665    496.195
 50.170   2492.146   2487.762      4.384    496.187   2453.451    496.187    530.440    496.187
 50.270   2506.855   2503.953      2.902    496.181   2477.293    496.181    522.904    496.181
 50.370   2252.362   2268.463    -16.101    496.176   2247.761    496.176    517.033    496.176
 50.470   1873.000   1879.217     -6.217    496.173   1862.958    496.173    512.621    496.173
 50.570   1453.000   1466.041    -13.041    496.170   1453.000    496.170    509.385    496.170
 50.670   1053.000   1122.024    -69.024    496.169   1111.288    496.169    507.039    496.169
 50.770    844.000    884.097    -40.097    496.169    875.024    496.169    505.336    496.169
 50.870    730.000    744.423    -14.423    496.170    736.576    496.170    504.081    496.170
 50.970    649.932    673.292    -23.359    496.172    666.379    496.172    503.133    496.172
 51.070    625.457    639.077    -13.620    496.175    632.895    496.175    502.398    496.175
 51.170    651.395    618.993     32.401    496.180    613.396    496.180    501.813    496.180
 51.270    590.000    601.774    -11.774    496.185    596.653    496.185    501.336    496.185
 51.370    593.000    584.805      8.195    496.192    580.078    496.192    500.943    496.192
 51.470    567.000    569.178     -2.178    496.200    564.780    496.200    500.615    496.200
 51.570    561.000    556.326      4.674    496.209    552.207    496.209    500.339    496.209
 51.670    572.388    546.877     25.511    496.219    542.997    496.219    500.107    496.219
 51.770    568.000    540.628     27.372    496.230    536.952    496.230    499.912    496.230
 51.870    551.000    536.914     14.086    496.243    533.413    496.243    499.747    496.243
 51.970    564.193    535.001     29.191    496.256    531.651    496.256    499.609    496.256
 52.070    519.000    534.337    -15.337    496.271    531.116    496.271    499.494    496.271
 52.170    523.000    534.623    -11.623    496.286    531.512    496.286    499.399    496.286
 52.270    502.011    535.805    -33.794    496.303    532.787    496.303    499.322    496.303
 52.370    554.000    538.098     15.902    496.321    535.160    496.321    499.261    496.321
 52.470    597.000    542.145     54.855    496.340    539.272    496.340    499.213    496.340
 52.570    537.000    549.373    -12.373    496.360    546.554    496.360    499.179    496.360
 52.670    645.000    562.556     82.444    496.381    559.780    496.381    499.156    496.381
 52.770    563.181    586.350    -23.169    496.403    583.607    496.403    499.144    496.403
 52.870    641.000    627.277     13.723    496.426    624.558    496.426    499.142    496.426
 52.970    750.000    692.385     57.615    496.450    689.681    496.450    499.149    496.450
 53.070    796.000    786.129      9.871    496.475    783.433    496.475    499.165    496.475
 53.170    942.000    905.974     36.026    496.501    903.281    496.501    499.190    496.501
 53.270   1059.000   1038.197     20.803    496.528   1035.502    496.528    499.222    496.528
 53.370   1151.000   1155.956     -4.956    496.556   1153.258    496.556    499.263    496.556
 53.470   1197.000   1224.124    -27.124    496.585   1221.420    496.585    499.310    496.585
 53.570   1167.000   1216.920    -49.920    496.615   1214.203    496.615    499.366    496.615
 53.670   1116.000   1137.594    -21.594    496.646   1134.853    496.646    499.429    496.646
 53.770   1075.469   1015.391     60.078    496.678   1012.611    496.678    499.499    496.678
 53.870    932.160    884.576     47.584    496.711    881.746    496.711    499.577    496.711
 53.970    742.000    769.578    -27.578    496.745    766.688    496.745    499.662    496.745
 54.070    640.797    681.814    -41.017    496.780    678.858    496.780    499.755    496.780
 54.170    624.000    622.203      1.797    496.816    619.175    496.816    499.856    496.816
 54.270    599.144    585.533     13.611    496.853    582.427    496.853    499.965    496.853
 54.370    571.000    564.704      6.296    496.890    561.515    496.890    500.084    496.890
 54.470    599.000    553.505     45.495    496.929    550.226    496.929    500.211    496.929
 54.570    579.000    547.654     31.346    496.969    544.277    496.969    500.347    496.969
 54.670    510.763    544.665    -33.903    497.009    541.182    497.009    500.494    497.009
 54.770    553.000    543.277      9.723    497.050    539.677    497.050    500.652    497.050
 54.870    519.503    542.911    -23.408    497.092    539.184    497.092    500.821    497.092
 54.970    502.844    543.328    -40.484    497.135    539.462    497.135    501.002    497.135
 55.070    566.000    544.439     21.561    497.179    540.423    497.179    501.197    497.179
 55.170    577.000    546.237     30.763    497.224    542.056    497.224    501.406    497.224
 55.270    580.401    548.764     31.637    497.270    544.403    497.270    501.631    497.270
 55.370    526.795    552.113    -25.318    497.316    547.557    497.316    501.873    497.316
 55.470    568.000    556.459     11.541    497.364    551.688    497.364    502.135    497.364
 55.570    573.000    562.132     10.868    497.412    557.127    497.412    502.417    497.412
 55.670    609.455    569.817     39.638    497.461    564.556    497.461    502.722    497.461
 55.770    553.445    580.993    -27.548    497.511    575.450    497.511    503.053    497.511
 55.870    559.161    598.770    -39.609    497.561    592.916    497.561    503.413    497.561
 55.970    586.000    629.206    -43.206    497.613    623.008    497.613    503.805    497.613
 56.070    650.000    682.815    -32.815    497.665    676.235    497.665    504.233    497.665
 56.170    751.000    775.311    -24.311    497.718    768.304    497.718    504.702    497.718
 56.270    946.543    925.914     20.629    497.771    918.431    497.771    505.218    497.771
 56.370   1088.000   1151.644    -63.644    497.826   1143.631    497.826    505.787    497.826
 56.470   1393.000   1457.584    -64.584    497.881   1448.986    497.881    506.416    497.881
 56.570   1715.000   1825.797   -110.797    497.937   1816.557    497.937    507.117    497.937
 56.670   2274.622   2207.258     67.365    497.994   2197.320    497.994    507.899    497.994
 56.770   2428.000   2522.046    -94.046    498.051   2511.344    498.051    508.777    498.051
 56.870   2632.349   2678.686    -46.337    498.110   2667.134    498.110    509.767    498.110
 56.970   2640.000   2622.242     17.758    498.169   2609.708    498.169    510.893    498.169
 57.070   2344.256   2375.156    -30.900    498.228   2361.446    498.228    512.183    498.228
 57.170   2072.000   2018.396     53.604    498.289   2003.262    498.289    513.677    498.289
 57.270   1692.007   1640.611     51.395    498.350   1623.754    498.350    515.434    498.350
 57.370   1333.000   1306.092     26.908    498.411   1287.143    498.411    517.542    498.411
 57.470   1105.000   1047.016     57.984    498.474   1025.490    498.474    520.130    498.474
 57.570    860.054    868.292     -8.238    498.537    843.515    498.537    523.398    498.537
 57.670    785.000    757.887     27.113    498.600    728.901    498.600    527.637    498.600
 57.770    720.000    697.812     22.188    498.665    663.247    498.665    533.256    498.665
 57.870    654.000    672.051    -18.051    498.730    629.990    498.730    540.801    498.730
 57.970    645.000    670.222    -25.222    498.795    618.069    498.795    550.947    498.795
 58.070    694.000    687.839      6.161    498.861    622.233    498.861    564.456    498.861
 58.170    765.308    724.726     40.582    498.928    641.543    498.928    582.089    498.928
 58.270    777.000    782.728     -5.728    498.996    677.228    498.996    604.462    498.996
 58.370    872.000    863.341      8.659    499.064    730.501    499.064    631.859    499.064
 58.470    894.000    965.558    -71.558    499.132    800.652    499.132    663.984    499.132
 58.570   1037.000   1084.198    -47.198    499.201    883.704    499.201    699.637    499.201
 58.670   1218.000   1209.042      8.958    499.271    971.984    499.271    736.273    499.271
 58.770   1322.000   1326.199     -4.199    499.341   1055.913    499.341    769.581    499.341
 58.870   1401.000   1421.358    -20.358    499.412   1127.053    499.412    793.688    499.412
 58.970   1475.181   1482.089     -6.908    499.484   1178.670    499.484    802.892    499.484
 59.070   1563.000   1499.079     63.921    499.556   1203.976    499.556    794.670    499.556
 59.170   1461.000   1470.024     -9.024    499.628   1198.340    499.628    771.339    499.628
 59.270   1432.000   1403.991     28.009    499.701   1165.210    499.701    738.511    499.701
 59.370   1267.996   1319.169    -51.173    499.774   1116.867    499.774    702.096    499.774
 59.470   1260.000   1235.306     24.694    499.848   1068.661    499.848    666.488    499.848
 59.570   1130.589   1169.420    -38.831    499.923   1034.990    499.923    634.312    499.923
 59.670   1134.000   1136.304     -2.304    499.998   1029.389    499.998    606.827    499.998
 59.770   1157.000   1147.641      9.359    500.073   1063.211    500.073    584.366    500.073
 59.870   1283.000   1207.122     75.878    500.149   1140.408    500.149    566.670    500.149
 59.970   1352.000   1305.589     46.411    500.225   1252.433    500.225    553.134    500.225
 60.070   1496.155   1419.540     76.615    500.302   1376.553    500.302    543.003    500.302
 60.170   1536.000   1513.752     22.248    500.379   1478.319    500.379    535.513    500.379
 60.270   1589.688   1550.668     39.021    500.457   1520.862    500.457    529.985    500.457
 60.370   1574.000   1508.308     65.692    500.535   1482.749    500.535    525.870    500.535
 60.470   1435.674   1393.745     41.929    500.613   1371.445    500.613    522.755    500.613
 60.570   1299.674   1236.096     63.577    500.692   1216.344    500.692    520.346    500.692
 60.670   1121.493   1068.874     52.619    500.772   1051.145    500.772    518.447    500.772
 60.770    877.572    918.079    -40.507    500.851    901.973    500.851    516.932    500.851
 60.870    785.000    798.290    -13.290    500.931    783.493    500.931    515.719    500.931
 60.970    714.000    713.560      0.440    501.011    699.810    501.011    514.756    501.011
 61.070    634.000    660.946    -26.946    501.092    648.020    501.092    514.011    501.092
 61.170    664.255    634.942     29.313    501.173    622.644    501.173    513.458    501.173
 61.270    649.000    631.181     17.819    501.255    619.338    501.255    513.077    501.255
 61.370    645.141    648.475     -3.334    501.336    636.933    501.336    512.845    501.336
 61.470    698.393    688.980      9.414    501.418    677.617    501.418    512.730    501.418
 61.570    776.114    756.647     19.467    501.501    745.380    501.501    512.692    501.501
 61.670    805.000    854.319    -49.319    501.583    843.127    501.583    512.670    501.583
 61.770    966.094    980.169    -14.075    501.666    969.104    501.666    512.593    501.666
 61.870   1117.000   1124.537     -7.537    501.749   1113.729    501.749    512.391    501.749
 61.970   1258.000   1268.317    -10.317    501.833   1257.938    501.833    512.027    501.833
 62.070   1341.640   1384.111    -42.471    501.917   1374.331    501.917    511.512    501.917
 62.170   1383.860   1442.717    -58.857    502.001   1433.659    502.001    510.898    502.001
 62.270   1399.000   1426.379    -27.379    502.085   1418.098    502.085    510.247    502.085
 62.370   1377.968   1339.928     38.040    502.169   1332.414    502.169    509.612    502.169
 62.470   1128.000   1207.294    -79.294    502.254   1200.488    502.254    509.026    502.254
 62.570   1049.000   1057.980     -8.980    502.339   1051.803    502.339    508.508    502.339
 62.670    894.133    916.412    -22.279    502.424    910.778    502.424    508.066    502.424
 62.770    826.667    797.786     28.881    502.509    792.611    502.509    507.697    502.509
 62.870    705.000    708.030     -3.030    502.595    703.238    502.595    507.397    502.595
 62.970    661.000    645.955     15.045    502.680    641.485    502.680    507.158    502.680
 63.070    634.543    606.349     28.194    502.766    602.149    502.766    506.969    502.766
 63.170    585.000    582.870      2.130    502.852    578.899    502.852    506.822    502.852
 63.270    593.000    569.985     23.015    502.938    566.211    502.938    506.708    502.938
 63.370    511.000    563.838    -52.838    503.025    560.236    503.025    506.621    503.025
 63.470    576.000    562.357     13.643    503.111    558.906    503.111    506.555    503.111
 63.570    591.736    565.033     26.703    503.198    561.715    503.198    506.505    503.198
 63.670    623.000    572.646     50.354    503.284    569.448    503.284    506.469    503.284
 63.770    548.259    586.994    -38.734    503.371    583.900    503.371    506.444    503.371
 63.870    634.000    610.511     23.489    503.458    607.509    503.458    506.429    503.458
 63.970    626.017    645.657    -19.640    503.545    642.734    503.545    506.423    503.545
 64.070    675.019    693.986    -18.967    503.632    691.131    503.632    506.424    503.632
 64.170    795.000    755.041     39.959    503.719    752.245    503.719    506.432    503.719
 64.270    854.000    825.310     28.690    503.806    822.566    503.806    506.446    503.806
 64.370    905.000    897.568      7.432    503.893    894.873    503.893    506.466    503.893
 64.470    954.000    961.125     -7.125    503.980    958.484    503.980    506.491    503.980
 64.570   1031.728   1004.101     27.627    504.068   1001.519    504.068    506.520    504.068
 64.670   1053.374   1018.089     35.285    504.155   1015.575    504.155    506.554    504.155
 64.770   1055.388   1001.967     53.421    504.242    999.525    504.242    506.592    504.242
 64.870    949.476    961.349    -11.873    504.330    958.982    504.330    506.634    504.330
 64.970    958.000    905.549     52.451    504.417    903.251    504.417    506.680    504.417
 65.070    893.822    844.499     49.322    504.504    842.264    504.504    506.729    504.504
 65.170    836.450    786.100     50.350    504.592    783.918    504.592    506.781    504.592
 65.270    769.551    734.771     34.780    504.679    732.634    504.679    506.836    504.679
 65.370    685.000    691.774     -6.774    504.766    689.671    504.766    506.894    504.766
 65.470    583.000    656.644    -73.644    504.853    654.568    504.853    506.955    504.853
 65.570    590.000    628.493    -38.493    504.940    626.438    504.940    507.018    504.940
 65.670    621.000    606.453     14.547    505.027    604.414    505.027    507.084    505.027
 65.770    617.131    589.675     27.457    505.114    587.649    505.114    507.152    505.114
 65.870    571.237    577.342     -6.104    505.201    575.327    505.201    507.223    505.201
 65.970    627.000    568.706     58.294    505.288    566.702    505.288    507.296    505.288
 66.070    561.000    563.102     -2.102    505.375    561.106    505.375    507.371    505.375
 66.170    549.130    559.944    -10.814    505.461    557.956    505.461    507.448    505.461
 66.270    549.000    558.747     -9.747    505.548    556.766    505.548    507.528    505.548
 66.370    546.000    559.150    -13.150    505.634    557.174    505.634    507.609    505.634
 66.470    556.000    560.961     -4.961    505.720    558.988    505.720    507.693    505.720
 66.570    587.000    564.216     22.784    505.806    562.243    505.806    507.779    505.806
 66.670    571.637    569.292      2.345    505.892    567.317    505.892    507.867    505.892
 66.770    590.000    577.106     12.894    505.977    575.127    505.977    507.957    505.977
 66.870    583.000    589.456     -6.456    506.063    587.470    506.063    508.049    506.063
 66.970    579.000    609.485    -30.485    506.148    607.488    506.148    508.144    506.148
 67.070    630.000    642.183    -12.183    506.233    640.172    506.233    508.240    506.233
 67.170    731.082    694.689     36.392    506.318    692.660    506.318    508.339    506.318
 67.270    728.521    775.998    -47.477    506.403    773.948    506.403    508.440    506.403
 67.370    905.000    895.674      9.326    506.488    893.600    506.488    508.544    506.488
 67.470   1125.850   1061.337     64.513    506.572   1059.240    506.572    508.650    506.572
 67.570   1277.000   1275.156      1.844    506.656   1273.039    506.656    508.759    506.656
 67.670   1501.000   1530.134    -29.134    506.740   1528.005    506.740    508.871    506.740
 67.770   1764.000   1807.280    -43.280    506.823   1805.152    506.823    508.985    506.823
 67.870   2009.000   2074.694    -65.694    506.906   2072.580    506.906    509.103    506.906
 67.970   2370.000   2290.041     79.959    506.989   2287.953    506.989    509.224    506.989
 68.070   2493.000   2409.436     83.564    507.072   2407.377    507.072    509.348    507.072
 68.170   2362.000   2404.096    -42.096    507.154   2402.054    507.154    509.477    507.154
 68.270   2277.000   2275.488      1.512    507.236   2273.435    507.236    509.609    507.236
 68.370   2088.000   2054.415     33.585    507.318   2052.314    507.318    509.745    507.318
 68.470   1741.000   1785.118    -44.118    507.400   1782.934    507.400    509.887    507.400
 68.570   1584.000   1509.233     74.767    507.481   1506.943    507.481    510.033    507.481
 68.670   1175.000   1257.595    -82.595    507.562   1255.184    507.562    510.184    507.562
 68.770   1030.568   1048.115    -17.547    507.642   1045.575    507.642    510.342    507.642
 68.870    895.000    886.891      8.109    507.722    884.222    507.722    510.506    507.722
 68.970    812.000    771.153     40.847    507.802    768.356    507.802    510.677    507.802
 69.070    733.000    693.002     39.998    507.881    690.078    507.881    510.856    507.881
 69.170    688.517    642.846     45.671    507.960    639.796    507.960    511.044    507.960
 69.270    662.339    611.816     50.523    508.039    608.635    508.039    511.241    508.039
 69.370    576.906    592.946    -16.039    508.117    589.628    508.117    511.449    508.117
 69.470    598.000    581.398     16.602    508.195    577.934    508.195    511.669    508.195
 69.570    547.626    574.128    -26.503    508.272    570.507    508.272    511.901    508.272
 69.670    625.000    569.374     55.626    508.349    565.580    508.349    512.148    508.349
 69.770    546.765    566.180    -19.415    508.426    562.198    508.426    512.412    508.426
 69.870    608.000    564.052     43.948    508.502    559.863    508.502    512.694    508.502
 69.970    591.412    562.747     28.665    508.578    558.329    508.578    512.997    508.578
 70.070    524.000    562.150    -38.150    508.653    557.480    508.653    513.324    508.653
 70.170    575.000    562.228     12.772    508.728    557.278    508.728    513.678    508.728
 70.270    594.626    563.012     31.614    508.802    557.750    508.802    514.063    508.802
 70.370    606.694    564.618     42.076    508.876    559.008    508.876    514.483    508.876
 70.470    577.949    567.301     10.649    508.949    561.301    508.949    514.946    508.949
 70.570    635.000    571.562     63.438    509.022    565.122    509.022    515.456    509.022
 70.670    539.000    578.309    -39.309    509.094    571.369    509.094    516.026    509.094
 70.770    602.000    589.088     12.912    509.166    581.575    509.166    516.666    509.166
 70.870    616.835    606.342     10.493    509.237    598.165    509.237    517.396    509.237
 70.970    604.538    633.641    -29.103    509.308    624.679    509.308    518.242    509.308
 71.070    674.000    675.692     -1.692    509.378    665.784    509.378    519.244    509.378
 71.170    706.000    737.995    -31.995    509.448    726.918    509.448    520.463    509.448
 71.270    878.791    825.955     52.836    509.517    813.395    509.517    521.990    509.517
 71.370    904.000    943.426    -39.426    509.586    928.939    509.586    523.957    509.586
 71.470   1033.450   1090.880    -57.430    509.654   1073.837    509.654    526.549    509.654
 71.570   1238.000   1263.597    -25.597    509.721   1243.123    509.721    530.018    509.721
 71.670   1441.492   1450.374     -8.882    509.788   1425.279    509.788    534.681    509.788
 71.770   1705.000   1633.179     71.821    509.854   1601.903    509.854    540.917    509.854
 71.870   1807.264   1788.347     18.917    509.920   1748.922    509.920    549.134    509.920
 71.970   1903.000   1890.617     12.383    509.985   1840.684    509.985    559.729    509.985
 72.070   1966.000   1921.046     44.954    510.049   1857.930    510.049    573.012    510.049
 72.170   1975.000   1875.720     99.280    510.113   1796.600    510.113    589.120    510.113
 72.270   1792.000   1767.939     24.061    510.176   1670.117    510.176    607.922    510.176
 72.370   1696.000   1621.366     74.634    510.239   1502.644    510.239    628.915    510.239
 72.470   1467.029   1460.615      6.414    510.300   1319.776    510.300    651.115    510.300
 72.570   1342.000   1305.270     36.730    510.362   1142.663    510.362    672.956    510.362
 72.670   1165.000   1167.636     -2.636    510.422    985.801    510.422    692.252    510.422
 72.770   1041.000   1052.753    -11.753    510.482    856.838    510.482    706.393    510.482
 72.870    921.000    959.967    -38.967    510.541    757.530    510.541    712.974    510.541
 72.970    867.562    885.523    -17.961    510.600    685.394    510.600    710.724    510.600
 73.070    838.983    825.066     13.917    510.658    635.599    510.658    700.118    510.658
 73.170    706.000    775.055    -69.055    510.715    602.635    510.715    683.129    510.715
 73.270    757.062    733.049     24.013    510.771    581.458    510.771    662.357    510.771
 73.370    670.170    697.480    -27.309    510.827    568.072    510.827    640.230    510.827
 73.470    662.830    667.386     -4.557    510.882    559.648    510.882    618.618    510.882
 73.570    615.000    642.211    -27.211    510.936    554.370    510.936    598.776    510.936
 73.670    622.000    621.617      0.383    510.990    551.178    510.990    581.431    510.990
 73.770    628.000    605.337     22.663    511.043    549.502    511.043    566.882    511.043
 73.870    633.000    593.062     39.938    511.095    549.052    511.095    555.114    511.095
 73.970    632.017    584.383     47.634    511.146    549.654    511.146    545.888    511.146
 74.070    594.619    578.771     15.848    511.196    551.144    511.196    538.842    511.196
 74.170    625.000    575.593     49.407    511.246    553.298    511.246    533.566    511.246
 74.270    537.086    574.128    -37.043    511.295    555.791    511.295    529.663    511.295
 74.370    624.000    573.600     50.400    511.343    558.197    511.343    526.783    511.343
 74.470    566.289    573.224     -6.935    511.391    560.012    511.391    524.644    511.391
 74.570    658.000    572.304     85.696    511.437    560.757    511.437    523.028    511.437
 74.670    580.195    570.380      9.815    511.483    560.129    511.483    521.779    511.483
 74.770    524.725    567.358    -42.633    511.528    558.142    511.528    520.787    511.528
 74.870    609.874    563.489     46.385    511.572    555.122    511.572    519.978    511.572
 74.970    583.640    559.240     24.400    511.616    551.585    511.616    519.303    511.616
 75.070    565.983    555.136     10.847    511.658    548.092    511.658    518.729    511.658
 75.170    549.884    551.694     -1.810    511.700    545.181    511.700    518.233    511.700
 75.270    593.000    549.400     43.600    511.741    543.353    511.741    517.801    511.741
 75.370    524.413    548.731    -24.318    511.780    543.097    511.780    517.422    511.780
 75.470    542.000    550.180     -8.180    511.820    544.914    511.820    517.088    511.820
 75.570    518.683    554.266    -35.583    511.858    549.328    511.858    516.791    511.858
 75.670    558.000    561.505     -3.505    511.895    556.863    511.895    516.527    511.895
 75.770    531.466    572.333    -40.868    511.932    567.957    511.932    516.291    511.932
 75.870    527.000    586.968    -59.968    511.967    582.830    511.967    516.080    511.967
 75.970    584.106    605.241    -21.135    512.002    601.319    512.002    515.891    512.002
 76.070    674.491    626.440     48.051    512.036    622.713    512.036    515.721    512.036
 76.170    625.000    649.196    -24.196    512.069    645.647    512.069    515.567    512.069
 76.270    661.000    671.462    -10.462    512.101    668.076    512.101    515.428    512.101
 76.370    722.039    690.603     31.436    512.132    687.369    512.132    515.303    512.132
 76.470    683.000    703.738    -20.738    512.162    700.646    512.162    515.189    512.162
 76.570    724.000    708.451     15.549    512.191    705.494    512.191    515.085    512.191
 76.670    687.000    703.730    -16.730    512.220    700.902    512.220    514.991    512.220
 76.770    646.000    690.466    -44.466    512.247    687.759    512.247    514.905    512.247
 76.870    640.621    670.999    -30.378    512.274    668.406    512.274    514.826    512.274
 76.970    637.000    648.190    -11.190    512.299    645.704    512.299    514.754    512.299
 77.070    602.000    624.678    -22.678    512.324    622.291    512.324    514.688    512.324
 77.170    564.062    602.523    -38.462    512.347    600.227    512.347    514.628    512.347
 77.270    586.000    583.093      2.907    512.370    580.881    512.370    514.572    512.370
 77.370    537.430    567.075    -29.645    512.391    564.939    512.391    514.520    512.391
 77.470    539.000    554.581    -15.581    512.412    552.516    512.412    514.472    512.412
 77.570    538.694    545.309     -6.615    512.432    543.310    512.432    514.428    512.432
 77.670    553.245    538.724     14.521    512.451    536.785    512.451    514.387    512.451
 77.770    575.524    534.213     41.311    512.468    532.331    512.468    514.348    512.468
 77.870    566.360    531.205     35.155    512.485    529.375    512.485    514.313    512.485
 77.970    488.000    529.225    -41.225    512.501    527.445    512.501    514.279    512.501
 78.070    516.910    527.920    -11.010    512.515    526.186    512.515    514.248    512.515
 78.170    550.000    527.045     22.955    512.529    525.355    512.529    514.219    512.529
 78.270    560.054    526.446     33.608    512.542    524.796    512.542    514.191    512.542
 78.370    489.274    526.028    -36.754    512.553    524.415    512.553    514.165    512.553
 78.470    528.000    525.737      2.263    512.564    524.159    512.564    514.141    512.564
 78.570    512.000    525.535    -13.535    512.574    523.990    512.574    514.118    512.574
 78.670    525.337    525.431     -0.094    512.582    523.916    512.582    514.096    512.582
 78.770    543.000    525.464     17.536    512.590    523.976    512.590    514.076    512.590
 78.870    508.000    525.629    -17.629    512.596    524.166    512.596    514.058    512.596
 78.970    494.000    525.950    -31.950    512.601    524.508    512.601    514.042    512.601
 79.070    528.000    526.457      1.543    512.606    525.033    512.606    514.028    512.606
 79.170    510.000    527.183    -17.183    512.609    525.774    512.609    514.017    512.609
 79.270    532.000    528.161      3.839    512.611    526.761    512.611    514.009    512.611
 79.370    482.000    529.419    -47.419    512.612    528.024    512.612    514.005    512.612
 79.470    501.000    530.987    -29.987    512.612    529.591    512.612    514.005    512.612
 79.570    532.468    532.896     -0.429    512.611    531.494    512.611    514.010    512.611
 79.670    521.143    535.200    -14.057    512.609    533.784    512.609    514.020    512.609
 79.770    559.000    537.981     21.019    512.606    536.545    512.606    514.037    512.606
 79.870    531.000    541.382    -10.382    512.602    539.919    512.602    514.058    512.602
 79.970    532.000    545.624    -13.624    512.597    544.130    512.597    514.085    512.597
 80.070    570.000    551.040     18.960    512.590    549.509    512.590    514.117    512.590
 80.170    515.638    558.068    -42.430    512.583    556.496    512.583    514.151    512.583
 80.270    549.228    567.202    -17.974    512.574    565.590    512.574    514.185    512.574
 80.370    550.000    578.897    -28.897    512.564    577.247    512.564    514.216    512.564
 80.470    551.000    593.445    -42.445    512.553    591.764    512.553    514.239    512.553
 80.570    574.000    610.864    -36.864    512.541    609.164    512.541    514.250    512.541
 80.670    596.620    630.813    -34.193    512.528    629.111    512.528    514.244    512.528
 80.770    674.379    652.548     21.832    512.514    650.862    512.514    514.219    512.514
 80.870    709.221    674.939     34.282    512.498    673.289    512.498    514.174    512.498
 80.970    693.877    696.598     -2.722    512.482    695.000    512.482    514.112    512.482
 81.070    666.594    716.077    -49.484    512.464    714.543    512.464    514.037    512.464
 81.170    752.000    732.062     19.938    512.445    730.599    512.445    513.955    512.445
 81.270    706.000    743.493    -37.493    512.425    742.102    512.425    513.869    512.425
 81.370    721.000    749.647    -28.647    512.404    748.327    512.404    513.783    512.404
 81.470    757.000    750.221      6.779    512.382    748.968    512.382    513.699    512.382
 81.570    792.000    745.349     46.651    512.359    744.156    512.359    513.618    512.359
 81.670    787.000    735.549     51.451    512.334    734.408    512.334    513.543    512.334
 81.770    720.045    721.688     -1.642    512.309    720.593    512.309    513.472    512.309
 81.870    755.000    704.954     50.046    512.282    703.896    512.282    513.407    512.282
 81.970    675.222    686.686    -11.464    512.254    685.659    512.254    513.346    512.254
 82.070    625.746    668.102    -42.356    512.224    667.099    512.224    513.289    512.224
 82.170    618.711    650.074    -31.363    512.194    649.090    512.194    513.236    512.194
 82.270    585.530    633.083    -47.553    512.163    632.115    512.163    513.186    512.163
 82.370    630.000    617.329     12.671    512.130    616.371    512.130    513.137    512.130
 82.470    587.000    602.901    -15.901    512.096    601.951    512.096    513.091    512.096
 82.570    575.765    589.912    -14.147    512.061    588.967    512.061    513.045    512.061
 82.670    585.123    578.520      6.603    512.025    577.576    512.025    513.000    512.025
 82.770    559.000    568.895     -9.895    511.987    567.953    511.987    512.955    511.987
 82.870    559.000    561.188     -2.188    511.949    560.245    511.949    512.910    511.949
 82.970    540.000    555.507    -15.507    511.909    554.561    511.909    512.865    511.909
 83.070    510.871    551.908    -41.037    511.868    550.960    511.868    512.820    511.868
 83.170    532.000    550.382    -18.382    511.826    549.431    511.826    512.774    511.826
 83.270    518.000    550.828    -32.828    511.783    549.872    511.783    512.727    511.783
 83.370    536.000    553.034    -17.034    511.738    552.074    511.738    512.680    511.738
 83.470    544.000    556.669    -12.669    511.692    555.704    511.692    512.632    511.692
 83.570    566.000    561.276      4.724    511.645    560.307    511.645    512.583    511.645
 83.670    613.560    566.291     47.269    511.597    565.316    511.597    512.533    511.597
 83.770    581.000    571.061      9.939    511.548    570.083    511.548    512.483    511.548
 83.870    533.000    574.903    -41.903    511.497    573.923    511.497    512.432    511.497
 83.970    548.000    577.190    -29.190    511.446    576.209    511.446    512.380    511.446
 84.070    552.885    577.481    -24.596    511.393    576.500    511.393    512.327    511.393
 84.170    573.000    575.642     -2.642    511.339    574.664    511.339    512.274    511.339
 84.270    560.000    571.882    -11.882    511.283    570.907    511.283    512.219    511.283
 84.370    526.120    566.664    -40.544    511.227    565.693    511.227    512.164    511.227
 84.470    546.000    560.563    -14.563    511.169    559.596    511.169    512.108    511.169
 84.570    506.000    554.144    -48.144    511.110    553.179    511.110    512.051    511.110
 84.670    556.000    547.885      8.115    511.050    546.923    511.050    511.993    511.050
 84.770    557.850    542.152     15.698    510.989    541.191    510.989    511.934    510.989
 84.870    553.000    537.175     15.825    510.926    536.215    510.926    511.875    510.926
 84.970    560.000    533.066     26.934    510.862    532.106    510.862    511.814    510.862
 85.070    547.034    529.835     17.200    510.797    528.872    510.797    511.753    510.797
 85.170    547.000    527.415     19.585    510.731    526.450    510.731    511.691    510.731
 85.270    534.000    525.701      8.299    510.664    524.732    510.664    511.627    510.664
 85.370    521.000    524.574     -3.574    510.595    523.601    510.595    511.564    510.595
 85.470    536.000    523.925     12.075    510.525    522.948    510.525    511.499    510.525
 85.570    492.000    523.673    -31.673    510.454    522.689    510.454    511.433    510.454
 85.670    547.000    523.769     23.231    510.382    522.779    510.382    511.367    510.382
 85.770    547.000    524.208     22.792    510.309    523.211    510.309    511.299    510.309
 85.870    519.000    525.028     -6.028    510.234    524.023    510.234    511.231    510.234
 85.970    581.000    526.311     54.689    510.158    525.298    510.158    511.162    510.158
 86.070    523.000    528.182     -5.182    510.081    527.159    510.081    511.092    510.081
 86.170    491.967    530.802    -38.835    510.003    529.767    510.003    511.022    510.003
 86.270    484.000    534.356    -50.356    509.923    533.309    509.923    510.951    509.923
 86.370    482.000    539.036    -57.036    509.842    537.974    509.842    510.879    509.842
 86.470    516.044    545.008    -28.964    509.761    543.929    509.761    510.806    509.761
 86.570    545.308    552.381     -7.073    509.677    551.283    509.677    510.732    509.677
 86.670    575.000    561.159     13.841    509.593    560.041    509.593    510.658    509.593
 86.770    589.322    571.207     18.115    509.508    570.067    509.508    510.583    509.508
 86.870    595.000    582.213     12.787    509.421    581.050    509.421    510.507    509.421
 86.970    592.000    593.665     -1.665    509.333    592.478    509.333    510.431    509.333
 87.070    649.590    604.889     44.701    509.244    603.679    509.244    510.354    509.244
 87.170    647.000    615.043     31.957    509.154    613.812    509.154    510.277    509.154
 87.270    655.655    623.194     32.461    509.062    621.943    509.062    510.199    509.062
 87.370    625.000    628.476     -3.476    508.969    627.210    508.969    510.120    508.969
 87.470    649.200    630.293     18.907    508.875    629.015    508.875    510.041    508.875
 87.570    624.000    628.487     -4.487    508.780    627.200    508.780    509.962    508.780
 87.670    661.000    623.389     37.611    508.684    622.096    508.684    509.882    508.684
 87.770    647.000    615.713     31.287    508.587    614.415    508.587    509.801    508.587
 87.870    650.716    606.381     44.335    508.488    605.078    508.488    509.721    508.488
 87.970    603.000    596.366      6.634    508.388    595.058    508.388    509.640    508.388
 88.070    591.383    586.591      4.792    508.287    585.276    508.287    509.559    508.287
 88.170    556.000    577.856    -21.856    508.185    576.532    508.185    509.478    508.185
 88.270    623.000    570.790     52.210    508.082    569.455    508.082    509.396    508.082
 88.370    574.000    565.830      8.170    507.977    564.481    507.977    509.315    507.977
 88.470    594.000    563.207     30.793    507.871    561.842    507.871    509.234    507.871
 88.570    561.493    562.953     -1.460    507.764    561.571    507.764    509.153    507.764
 88.670    513.000    564.916    -51.916    507.656    563.514    507.656    509.072    507.656
 88.770    572.000    568.771      3.229    507.547    567.348    507.547    508.992    507.547
 88.870    533.829    574.049    -40.221    507.437    572.603    507.437    508.912    507.437
 88.970    539.621    580.159    -40.537    507.325    578.688    507.325    508.832    507.325
 89.070    560.132    586.414    -26.282    507.213    584.917    507.213    508.754    507.213
 89.170    582.000    592.076    -10.076    507.099    590.549    507.099    508.676    507.099
 89.270    566.135    596.414    -30.279    506.984    594.855    506.984    508.599    506.984
 89.370    597.000    598.803     -1.803    506.868    597.208    506.868    508.524    506.868
 89.470    647.000    598.842     48.158    506.750    597.206    506.750    508.450    506.750
 89.570    574.000    596.446    -22.446    506.632    594.764    506.632    508.378    506.632
 89.670    566.000    591.857    -25.857    506.513    590.123    506.513    508.308    506.513
 89.770    614.000    585.559     28.441    506.392    583.768    506.392    508.240    506.392
 89.870    564.720    578.145    -13.425    506.270    576.292    506.270    508.175    506.270
 89.970    571.000    570.215      0.785    506.147    568.295    506.147    508.113    506.147
 90.070    495.000    562.301    -67.301    506.023    560.308    506.023    508.055    506.023
 90.170    552.850    554.829     -1.979    505.898    552.758    505.898    508.001    505.898
 90.270    586.000    548.108     37.892    505.772    545.954    505.772    507.952    505.772
 90.370    546.000    542.326      3.674    505.645    540.082    505.645    507.909    505.645
 90.470    543.317    537.560      5.757    505.516    535.219    505.516    507.872    505.516
 90.570    543.000    533.801      9.199    505.387    531.354    505.387    507.845    505.387
 90.670    536.222    530.976      5.246    505.256    528.411    505.256    507.828    505.256
 90.770    513.000    528.974    -15.974    505.124    526.278    505.124    507.825    505.124
 90.870    528.000    527.677      0.323    504.992    524.832    504.992    507.839    504.992
 90.970    498.594    526.973    -28.380    504.858    523.958    504.858    507.875    504.858
 91.070    517.000    526.777     -9.777    504.723    523.562    504.723    507.939    504.723
 91.170    510.000    527.037    -17.037    504.587    523.585    504.587    508.038    504.587
 91.270    495.000    527.744    -32.744    504.450    524.009    504.450    508.182    504.450
 91.370    501.000    528.926    -27.926    504.312    524.850    504.312    508.384    504.312
 91.470    547.000    530.627     16.373    504.173    526.139    504.173    508.657    504.173
 91.570    545.000    533.044     11.956    504.032    528.054    504.032    509.017    504.032
 91.670    477.000    536.337    -59.337    503.891    530.737    503.891    509.483    503.891
 91.770    547.800    540.696      7.104    503.749    534.358    503.749    510.076    503.749
 91.870    525.886    546.354    -20.468    503.606    539.130    503.606    510.816    503.606
 91.970    597.916    553.556     44.360    503.461    545.276    503.461    511.724    503.461
 92.070    519.024    562.542    -43.518    503.316    553.018    503.316    512.818    503.316
 92.170    572.000    573.506     -1.506    503.170    562.534    503.170    514.114    503.170
 92.270    552.121    586.578    -34.457    503.023    573.945    503.023    515.623    503.023
 92.370    561.000    601.793    -40.793    502.874    587.283    502.874    517.345    502.874
 92.470    654.088    619.063     35.025    502.725    602.467    502.725    519.274    502.725
 92.570    669.093    638.156     30.937    502.575    619.286    502.575    521.391    502.575
 92.670    629.903    658.682    -28.779    502.424    637.382    502.424    523.662    502.424
 92.770    668.724    680.087    -11.363    502.271    656.255    502.271    526.036    502.271
 92.870    683.000    701.675    -18.675    502.118    675.277    502.118    528.443    502.118
 92.970    715.000    722.654     -7.654    501.964    693.751    501.964    530.790    501.964
 93.070    743.000    742.243      0.757    501.809    711.009    501.809    532.963    501.809
 93.170    722.716    759.800    -37.084    501.653    726.545    501.653    534.827    501.653
 93.270    770.000    774.937     -4.937    501.496    740.111    501.496    536.242    501.496
 93.370    792.000    787.568      4.432    501.339    751.750    501.339    537.078    501.339
 93.470    774.000    797.854    -23.854    501.180    761.711    501.180    537.245    501.180
 93.570    800.000    806.098     -6.098    501.020    770.328    501.020    536.715    501.020
 93.670    869.000    812.701     56.299    500.860    777.962    500.860    535.526    500.860
 93.770    815.333    818.144     -2.810    500.698    784.997    500.698    533.775    500.698
 93.870    765.302    823.007    -57.706    500.536    791.882    500.536    531.593    500.536
 93.970    843.000    827.966     15.034    500.373    799.149    500.373    529.124    500.373
 94.070    841.000    833.692      7.308    500.209    807.339    500.209    526.498    500.209
 94.170    853.099    840.689     12.411    500.044    816.842    500.044    523.829    500.044
 94.270    884.000    849.114     34.886    499.878    827.729    499.878    521.204    499.878
 94.370    854.000    858.662     -4.662    499.712    839.624    499.712    518.692    499.712
 94.470    893.000    868.539     24.461    499.545    851.688    499.545    516.341    499.545
 94.570    964.000    877.520     86.480    499.376    862.664    499.376    514.183    499.376
 94.670    898.724    884.088     14.636    499.207    871.018    499.207    512.234    499.207
 94.770    907.000    886.654     20.346    499.038    875.154    499.038    510.501    499.038
 94.870    889.353    883.863      5.490    498.867    873.721    498.867    508.981    498.867
 94.970   1002.000    874.912    127.088    498.696    865.926    498.696    507.663    498.696
 95.070    907.000    859.777     47.223    498.524    851.760    498.524    506.530    498.524
 95.170    925.000    839.228     85.772    498.351    832.012    498.351    505.564    498.351
 95.270    831.000    814.662     16.338    498.177    808.097    498.177    504.744    498.177
 95.370    840.888    787.841     53.046    498.003    781.800    498.003    504.051    498.003
 95.470    771.291    760.672     10.619    497.828    755.044    497.828    503.464    497.828
 95.570    795.000    735.038     59.962    497.652    729.733    497.652    502.965    497.652
 95.670    762.000    712.706     49.294    497.475    707.650    497.475    502.538    497.475
 95.770    723.208    695.271     27.938    497.298    690.402    497.298    502.170    497.298
 95.870    666.469    684.114    -17.645    497.120    679.383    497.120    501.849    497.120
 95.970    679.000    680.461     -1.461    496.941    675.828    496.941    501.566    496.941
 96.070    649.112    685.302    -36.190    496.762    680.734    496.762    501.314    496.762
 96.170    687.000    699.434    -12.434    496.582    694.901    496.582    501.089    496.582
 96.270    688.497    723.442    -34.945    496.402    718.923    496.402    500.884    496.402
 96.370    769.000    757.659     11.341    496.220    753.134    496.220    500.698    496.220
 96.470    762.404    802.091    -39.687    496.039    797.542    496.039    500.529    496.039
 96.570    910.000    856.325     53.675    495.856    851.737    495.856    500.374    495.856
 96.670    890.000    919.417    -29.417    495.673    914.776    495.673    500.232    495.673
 96.770   1008.000    989.810     18.190    495.489    985.103    495.489    500.104    495.489
 96.870   1075.000   1065.273      9.727    495.305   1060.490    495.305    499.989    495.305
 96.970   1150.272   1142.884      7.387    495.120   1138.014    495.120    499.887    495.120
 97.070   1154.000   1219.069    -65.069    494.935   1214.102    494.935    499.798    494.935
 97.170   1235.502   1289.720    -54.217    494.749   1284.646    494.749    499.723    494.749
 97.270   1358.000   1350.436      7.564    494.563   1345.246    494.563    499.661    494.563
 97.370   1431.922   1396.946     34.976    494.376   1391.629    494.376    499.616    494.376
 97.470   1386.000   1425.706    -39.706    494.189   1420.249    494.189    499.586    494.189
 97.570   1405.000   1434.543    -29.543    494.001   1428.930    494.001    499.575    494.001
 97.670   1432.000   1423.099      8.901    493.812   1417.310    493.812    499.583    493.812
 97.770   1441.415   1392.848     48.568    493.623   1386.860    493.623    499.615    493.623
 97.870   1380.000   1346.707     33.293    493.434   1340.490    493.434    499.673    493.434
 97.970   1306.095   1288.460     17.635    493.244   1281.979    493.244    499.762    493.244
 98.070   1272.499   1222.229     50.270    493.054   1215.442    493.054    499.887    493.054
 98.170   1182.026   1152.099     29.927    492.864   1144.957    492.864    500.058    492.864
 98.270   1137.491   1081.876     55.615    492.673   1074.319    492.673    500.284    492.673
 98.370   1042.000   1014.946     27.054    492.481   1006.902    492.481    500.578    492.481
 98.470    943.000    954.200    -11.200    492.290    945.581    492.290    500.957    492.290
 98.570    883.000    902.015    -19.015    492.098    892.712    492.098    501.443    492.098
 98.670    820.000    860.276    -40.276    491.905    850.155    491.905    502.061    491.905
 98.770    804.000    830.422    -26.422    491.713    819.315    491.713    502.843    491.713
 98.870    803.120    813.514    -10.393    491.520    801.219    491.520    503.829    491.520
 98.970    756.748    810.313    -53.565    491.326    796.581    491.326    505.063    491.326
 99.070    837.406    821.338     16.068    491.133    805.871    491.133    506.596    491.133
 99.170    853.000    846.898      6.102    490.939    829.340    490.939    508.484    490.939
 99.270    908.119    887.091     21.029    490.745    867.025    490.745    510.790    490.745
 99.370    900.000    941.759    -41.759    490.550    918.707    490.550    513.577    490.550
 99.470    955.000   1010.408    -55.408    490.356    983.829    490.356    516.907    490.356
 99.570   1073.991   1092.165    -18.174    490.161   1061.457    490.161    520.841    490.161
 99.670   1188.000   1185.619      2.381    489.966   1150.133    489.966    525.427    489.966
 99.770   1294.000   1288.750      5.250    489.771   1247.799    489.771    530.703    489.771
 99.870   1447.000   1398.876     48.124    489.575   1351.757    489.575    536.687    489.575
 99.970   1552.000   1512.634     39.366    489.380   1458.648    489.380    543.373    489.380
100.070   1628.000   1626.050      1.950    489.184   1564.534    489.184    550.726    489.184
100.170   1786.000   1734.733     51.267    488.989   1665.093    488.989    558.676    488.989
100.270   1799.127   1834.203    -35.076    488.793   1755.955    488.793    567.114    488.793
100.370   1932.000   1920.299     11.701    488.597   1833.112    488.597    575.884    488.597
100.470   2045.021   1989.521     55.500    488.401   1893.267    488.401    584.781    488.401
100.570   2084.251   2039.190     45.061    488.205   1934.001    488.205    593.545    488.205
100.670   2128.000   2067.442     60.558    488.009   1953.762    488.009    601.862    488.009
100.770   2042.954   2073.177    -30.223    487.813   1951.816    487.813    609.366    487.813
100.870   2079.000   2056.166     22.834    487.617   1928.327    487.617    615.661    487.617
100.970   2069.000   2017.300     51.700    487.421   1884.579    487.421    620.356    487.421
101.070   2021.156   1958.833     62.323    487.225   1823.160    487.225    623.116    487.225
101.170   1917.000   1884.388     32.612    487.029   1747.912    487.029    623.720    487.029
101.270   1831.000   1798.618     32.382    486.833   1663.553    486.833    622.106    486.833
101.370   1636.042   1706.646    -70.604    486.637   1575.095    486.637    618.385    486.637
101.470   1580.000   1613.474    -33.474    486.442   1487.285    486.442    612.814    486.442
101.570   1496.000   1523.518    -27.518    486.246   1404.178    486.246    605.753    486.246
101.670   1473.000   1440.299     32.701    486.051   1328.900    486.051    597.600    486.051
101.770   1387.000   1366.299     20.701    485.856   1263.544    485.856    588.745    485.856
101.870   1276.000   1302.917    -26.917    485.661   1209.158    485.661    579.539    485.661
101.970   1304.416   1250.501     53.915    485.466   1165.789    485.466    570.284    485.466
102.070   1230.000   1208.442     21.558    485.271   1132.589    485.271    561.221    485.271
102.170   1122.919   1175.315    -52.397    485.077   1107.940    485.077    552.541    485.077
102.270   1200.000   1149.056     50.944    484.883   1089.637    484.883    544.385    484.883
102.370   1121.000   1127.190     -6.190    484.689   1075.109    484.689    536.851    484.689
102.470   1060.000   1107.105    -47.105    484.496   1061.683    484.496    529.998    484.496
102.570   1053.115   1086.372    -33.257    484.303   1046.902    484.303    523.853    484.303
102.670   1037.000   1063.052    -26.052    484.110   1028.831    484.110    518.413    484.110
102.770   1052.000   1035.934     16.066    483.917   1006.280    483.917    513.655    483.917
102.870    957.000   1004.607    -47.607    483.725    978.880    483.725    509.537    483.725
102.970   1030.198    969.371     60.827    483.534    946.983    483.534    506.005    483.534
103.070    933.159    931.039      2.120    483.342    911.462    483.342    503.000    483.342
103.170    834.000    890.712    -56.712    483.152    873.483    483.152    500.458    483.152
103.270    872.000    849.596     22.404    482.961    834.314    482.961    498.315    482.961
103.370    801.403    808.864     -7.462    482.771    795.190    482.771    496.512    482.771
103.470    830.000    769.573     60.427    482.582    757.221    482.582    494.993    482.582
103.570    780.000    732.605     47.395    482.393    721.342    482.393    493.708    482.393
103.670    657.124    698.637    -41.512    482.205    688.272    482.205    492.616    482.205
103.770    718.000    668.124     49.876    482.017    658.502    482.017    491.678    482.017
103.870    628.000    641.306    -13.306    481.830    632.303    481.830    490.866    481.830
103.970    613.749    618.227     -4.478    481.644    609.743    481.644    490.154    481.644
104.070    611.000    598.764     12.236    481.458    590.721    481.458    489.522    481.458
104.170    588.000    582.670      5.330    481.272    575.004    481.272    488.955    481.272
104.270    535.747    569.615    -33.868    481.088    562.277    481.088    488.440    481.088
104.370    587.000    559.229     27.771    480.904    552.175    480.904    487.967    480.904
104.470    560.000    551.117      8.883    480.721    544.314    480.721    487.531    480.721
104.570    523.000    544.925    -21.925    480.538    538.344    480.538    487.124    480.538
104.670    580.000    540.318     39.682    480.357    533.935    480.357    486.742    480.357
104.770    555.000    537.011     17.989    480.176    530.805    480.176    486.383    480.176
104.870    556.000    534.776     21.224    479.996    528.728    479.996    486.043    479.996
104.970    599.000    533.438     65.562    479.817    527.533    479.817    485.720    479.817
105.070    568.000    532.880     35.120    479.638    527.101    479.638    485.413    479.638
105.170    580.000    533.032     46.968    479.461    527.367    479.461    485.121    479.461
105.270    558.000    533.870     24.130    479.284    528.306    479.284    484.842    479.284
105.370    530.000    535.412     -5.412    479.109    529.938    479.109    484.575    479.109
105.470    497.334    537.712    -40.378    478.934    532.316    478.934    484.319    478.934
105.570    554.000    540.847     13.153    478.761    535.521    478.761    484.075    478.761
105.670    563.000    544.914     18.086    478.588    539.647    478.588    483.841    478.588
105.770    543.000    550.014     -7.014    478.416    544.797    478.416    483.616    478.416
105.870    569.000    556.238     12.762    478.246    551.063    478.246    483.401    478.246
105.970    580.969    563.653     17.316    478.076    558.511    478.076    483.195    478.076
106.070    616.387    572.286     44.101    477.908    567.171    477.908    482.997    477.908
106.170    551.000    582.114    -31.114    477.741    577.017    477.741    482.808    477.741
106.270    611.899    593.052     18.847    477.574    587.967    477.574    482.627    477.574
106.370    602.000    604.946     -2.946    477.409    599.866    477.409    482.454    477.409
106.470    555.000    617.575    -62.575    477.246    612.493    477.246    482.288    477.246
106.570    678.694    630.648     48.046    477.083    625.558    477.083    482.130    477.083
106.670    608.147    643.815    -35.667    476.922    638.712    476.922    481.980    476.922
106.770    617.000    656.676    -39.676    476.762    651.555    476.762    481.837    476.762
106.870    636.243    668.800    -32.557    476.603    663.655    476.603    481.701    476.603
106.970    662.000    679.753    -17.753    476.446    674.579    476.446    481.573    476.446
107.070    709.000    689.132     19.868    476.290    683.924    476.290    481.452    476.290
107.170    650.000    696.622    -46.622    476.136    691.375    476.136    481.339    476.136
107.270    706.000    702.044      3.956    475.982    696.752    475.982    481.233    475.982
107.370    659.000    705.395    -46.395    475.831    700.054    475.831    481.134    475.831
107.470    716.000    706.860      9.140    475.680    701.463    475.680    481.043    475.680
107.570    744.000    706.778     37.222    475.532    701.321    475.532    480.960    475.532
107.670    664.476    705.591    -41.116    475.385    700.066    475.385    480.885    475.385
107.770    730.788    703.772     27.016    475.239    698.172    475.239    480.818    475.239
107.870    724.861    701.767     23.095    475.095    696.086    475.095    480.759    475.095
107.970    665.133    699.947    -34.814    474.952    694.179    474.952    480.708    474.952
108.070    684.000    698.583    -14.583    474.812    692.719    474.812    480.667    474.812
108.170    701.000    697.818      3.182    474.672    691.852    474.672    480.634    474.672
108.270    683.000    697.669    -14.669    474.535    691.593    474.535    480.611    474.535
108.370    656.213    698.020    -41.808    474.399    691.826    474.399    480.598    474.399
108.470    695.000    698.637     -3.637    474.265    692.315    474.265    480.594    474.265
108.570    643.000    699.183    -56.183    474.133    692.725    474.133    480.601    474.133
108.670    668.638    699.253    -30.615    474.003    692.650    474.003    480.619    474.003
108.770    702.000    698.421      3.579    473.874    691.662    473.874    480.649    473.874
108.870    703.000    696.292      6.708    473.747    689.368    473.747    480.691    473.747
108.970    740.362    692.567     47.794    473.623    685.466    473.623    480.745    473.623
109.070    649.000    687.089    -38.089    473.500    679.799    473.500    480.812    473.500
109.170    645.000    679.859    -34.859    473.379    672.368    473.379    480.894    473.379
109.270    634.000    671.031    -37.031    473.260    663.324    473.260    480.991    473.260
109.370    687.000    660.872     26.128    473.143    652.936    473.143    481.103    473.143
109.470    661.000    649.723     11.277    473.028    641.542    473.028    481.232    473.028
109.570    606.000    637.953    -31.953    472.915    629.511    472.915    481.379    472.915
109.670    698.000    625.930     72.070    472.805    617.210    472.805    481.546    472.805
109.770    595.669    614.001    -18.332    472.696    604.983    472.696    481.733    472.696
109.870    608.000    602.472      5.528    472.590    593.135    472.590    481.943    472.590
109.970    643.000    591.601     51.399    472.486    581.923    472.486    482.178    472.486
110.070    608.000    581.574     26.426    472.384    571.529    472.384    482.441    472.384
110.170    557.000    572.571    -15.571    472.284    562.131    472.284    482.734    472.284
110.270    560.000    564.708     -4.708    472.187    553.841    472.187    483.062    472.187
110.370    553.000    558.012     -5.012    472.092    546.682    472.092    483.429    472.092
110.470    530.000    552.485    -22.485    472.000    540.648    472.000    483.840    472.000
110.570    540.000    548.091     -8.091    471.909    535.699    471.909    484.303    471.909
110.670    545.000    544.770      0.230    471.822    531.766    471.822    484.826    471.822
110.770    550.000    542.443      7.557    471.736    528.758    471.736    485.420    471.736
110.870    588.181    541.021     47.161    471.654    526.575    471.654    486.097    471.654
110.970    571.609    540.413     31.196    471.573    525.110    471.573    486.873    471.573
111.070    567.000    540.533     26.467    471.496    524.258    471.496    487.766    471.496
111.170    518.585    541.305    -22.720    471.421    523.920    471.421    488.800    471.421
111.270    560.000    542.663     17.337    471.348    524.005    471.348    489.999    471.348
111.370    545.200    544.558      0.642    471.278    524.432    471.278    491.397    471.278
111.470    531.000    546.957    -15.957    471.211    525.132    471.211    493.029    471.211
111.570    547.107    549.843     -2.736    471.147    526.046    471.147    494.936    471.147
111.670    536.270    553.217    -16.947    471.086    527.127    471.086    497.167    471.086
111.770    528.000    557.095    -29.095    471.027    528.339    471.027    499.773    471.027
111.870    523.011    561.511    -38.500    470.971    529.657    470.971    502.815    470.971
111.970    597.310    566.514     30.796    470.918    531.067    470.918    506.354    470.918
112.070    605.000    572.167     32.833    470.868    532.567    470.868    510.458    470.868
112.170    587.396    578.547      8.849    470.821    534.161    470.821    515.195    470.821
112.270    580.000    585.739     -5.739    470.776    535.867    470.776    520.637    470.776
112.370    586.000    593.837     -7.837    470.735    537.708    470.735    526.852    470.735
112.470    609.000    602.937      6.063    470.697    539.716    470.697    533.906    470.697
112.570    572.441    613.138    -40.697    470.662    541.932    470.662    541.855    470.662
112.670    576.002    624.538    -48.536    470.630    544.406    470.630    550.749    470.630
112.770    614.000    637.236    -23.236    470.601    547.203    470.601    560.621    470.601
112.870    604.547    651.332    -46.784    470.576    550.405    470.576    571.488    470.576
112.970    647.000    666.926    -19.926    470.554    554.117    470.554    583.347    470.554
113.070    679.000    684.129     -5.129    470.535    558.478    470.535    596.168    470.535
113.170    697.897    703.066     -5.169    470.519    563.671    470.519    609.896    470.519
113.270    705.000    723.890    -18.890    470.507    569.934    470.507    624.443    470.507
113.370    758.000    746.789     11.211    470.498    577.580    470.498    639.684    470.498
113.470    790.882    772.006     18.875    470.492    587.016    470.492    655.457    470.492
113.570    788.000    799.873    -11.873    470.490    598.766    470.490    671.568    470.490
113.670    823.087    830.805     -7.718    470.491    613.495    470.491    687.768    470.491
113.770    873.000    865.345      7.655    470.496    632.037    470.496    703.765    470.496
113.870    882.000    904.188    -22.188    470.505    655.424    470.505    719.222    470.505
113.970    931.000    948.206    -17.206    470.517    684.907    470.517    733.760    470.517
114.070   1000.432    998.480      1.952    470.533    721.980    470.533    746.965    470.533
114.170   1013.665   1056.328    -42.663    470.552    768.392    470.552    758.407    470.552
114.270   1107.000   1123.333    -16.333    470.576    826.143    470.576    767.665    470.576
114.370   1201.570   1201.357      0.213    470.603    897.475    470.603    774.363    470.603
114.470   1276.805   1292.548    -15.743    470.634    984.827    470.634    778.207    470.634
114.570   1349.467   1399.308    -49.841    470.668   1090.780    470.668    779.019    470.668
114.670   1471.183   1524.231    -53.048    470.707   1217.965    470.707    776.761    470.707
114.770   1637.174   1669.983    -32.809    470.749   1368.949    470.749    771.533    470.749
114.870   1822.000   1839.179    -17.179    470.796   1546.090    470.796    763.591    470.796
114.970   2066.000   2034.132     31.868    470.846   1751.369    470.846    753.267    470.846
115.070   2203.450   2256.665    -53.215    470.901   1986.208    470.901    740.965    470.901
115.170   2434.068   2507.875    -73.807    470.960   2251.276    470.960    727.112    470.960
115.270   2799.054   2787.915     11.139    471.023   2546.301    471.023    712.134    471.023
115.370   3177.000   3095.798     81.202    471.090   2869.902    471.090    696.430    471.090
115.470   3505.000   3429.249     75.751    471.161   3219.443    471.161    680.360    471.161
115.570   3746.512   3784.594    -38.082    471.236   3590.941    471.236    664.237    471.236
115.670   4098.000   4156.721    -58.721    471.316   3979.016    471.316    648.330    471.316
115.770   4441.000   4539.094    -98.094    471.400   4376.909    471.400    632.864    471.400
115.870   4687.000   4923.829   -236.829    471.489   4776.561    471.489    618.018    471.489
115.970   5171.000   5301.852   -130.852    471.582   5168.757    471.582    603.934    471.582
116.070   5606.000   5663.118    -57.118    471.679   5543.348    471.679    590.718    471.679
116.170   5925.000   5996.918    -71.918    471.781   5889.556    471.781    578.441    471.781
116.270   6212.000   6292.301    -80.301    471.888   6196.387    471.888    567.146    471.888
116.370   6562.000   6538.615     23.385    471.999   6453.174    471.999    556.848    471.999
116.470   6840.732   6726.192    114.540    472.115   6650.253    472.115    547.541    472.115
116.570   6968.000   6847.122    120.878    472.235   6779.740    472.235    539.200    472.235
116.670   6913.383   6896.022     17.360    472.361   6836.288    472.361    531.781    472.361
116.770   7097.000   6870.626    226.374    472.491   6817.678    472.491    525.233    472.491
116.870   7024.000   6772.038    251.962    472.625   6725.075    472.625    519.494    472.625
116.970   6613.000   6604.585      8.415    472.765   6562.864    472.765    514.496    472.765
117.070   6267.000   6375.311   -108.311    472.910   6338.158    472.910    510.170    472.910
117.170   6052.000   6093.284    -41.284    473.060   6060.089    473.060    506.445    473.060
117.270   5776.925   5768.717      8.208    473.214   5738.937    473.214    503.253    473.214
117.370   5389.576   5412.336    -22.760    473.374   5385.493    473.374    500.529    473.374
117.470   4936.935   5034.783    -97.848    473.539   5010.461    473.539    498.213    473.539
117.570   4617.000   4646.176    -29.176    473.709   4624.013    473.709    496.248    473.709
117.670   4292.000   4255.775     36.225    473.884   4235.459    473.884    494.585    473.884
117.770   3946.873   3871.744     75.129    474.064   3853.014    474.064    493.179    474.064
117.870   3388.921   3501.003   -112.082    474.250   3483.634    474.250    491.990    474.250
117.970   3295.000   3149.133    145.867    474.441   3132.937    474.441    490.987    474.441
118.070   3053.000   2820.366    232.634    474.637   2805.189    474.637    490.138    474.637
118.170   2631.000   2517.631    113.369    474.839   2503.341    474.839    489.422    474.839
118.270   2205.000   2242.644    -37.644    475.046   2229.133    475.046    488.815    475.046
118.370   2012.000   1996.047     15.953    475.259   1983.227    475.259    488.303    475.259
118.470   1822.675   1777.565     45.110    475.477   1765.362    475.477    487.871    475.477
118.570   1579.000   1586.173     -7.173    475.701   1574.525    475.701    487.508    475.701
118.670   1407.000   1420.274    -13.274    475.931   1409.131    475.931    487.204    475.931
118.770   1291.338   1277.867     13.471    476.166   1267.185    476.166    486.951    476.166
118.870   1085.000   1156.701    -71.701    476.408   1146.444    476.408    486.745    476.408
118.970   1100.803   1054.416     46.388    476.654   1044.552    476.654    486.579    476.654
119.070    970.000    968.655      1.345    476.907    959.156    476.907    486.451    476.907
119.170    891.000    897.157     -6.157    477.166    887.999    477.166    486.356    477.166
119.270    827.344    837.820    -10.477    477.431    828.981    477.431    486.293    477.431
119.370    849.000    788.743     60.257    477.701    780.201    477.701    486.259    477.701
119.470    759.000    748.245     10.755    477.978    739.980    477.978    486.252    477.978
119.570    702.000    714.870    -12.870    478.261    706.864    478.261    486.273    478.261
119.670    702.704    687.379     15.325    478.550    679.613    478.550    486.319    478.550
119.770    640.727    664.734    -24.007    478.845    657.191    478.845    486.390    478.845
119.870    676.924    646.079     30.845    479.147    638.741    479.147    486.485    479.147
119.970    609.000    630.714    -21.714    479.454    623.564    479.454    486.605    479.454
120.070    615.000    618.073     -3.073    479.769    611.093    479.769    486.749    479.769
120.170    590.000    607.703    -17.703    480.089    600.876    480.089    486.917    480.089
120.270    559.000    599.243    -40.243    480.416    592.552    480.416    487.109    480.416
120.370    580.000    592.409    -12.409    480.750    585.836    480.750    487.325    480.750
120.470    573.000    586.977    -13.977    481.090    580.503    481.090    487.566    481.090
120.570    613.000    582.771     30.229    481.437    576.378    481.437    487.832    481.437
120.670    627.289    579.653     47.636    481.790    573.323    481.790    488.123    481.790
120.770    574.000    577.516     -3.516    482.150    571.230    482.150    488.440    482.150
120.870    596.000    576.275     19.725    482.517    570.014    482.517    488.783    482.517
120.970    572.000    575.860     -3.860    482.891    569.605    482.891    489.152    482.891
121.070    619.690    576.215     43.476    483.272    569.946    483.272    489.547    483.272
121.170    566.000    577.288    -11.288    483.659    570.987    483.659    489.969    483.659
121.270    557.000    579.032    -22.032    484.054    572.679    484.054    490.417    484.054
121.370    596.073    581.399     14.674    484.455    574.975    484.455    490.890    484.455
121.470    555.823    584.337    -28.514    484.864    577.825    484.864    491.389    484.864
121.570    593.000    587.790      5.210    485.280    581.172    485.280    491.913    485.280
121.670    637.000    591.693     45.307    485.703    584.953    485.703    492.460    485.703
121.770    590.000    595.976     -5.976    486.133    589.100    486.133    493.030    486.133
121.870    563.000    600.557    -37.557    486.571    593.531    486.571    493.620    486.571
121.970    555.000    605.347    -50.347    487.016    598.159    487.016    494.228    487.016
122.070    650.277    610.246     40.031    487.469    602.889    487.469    494.853    487.469
122.170    622.813    615.150      7.664    487.929    607.617    487.929    495.491    487.929
122.270    611.000    619.944     -8.944    488.396    612.234    488.396    496.139    488.396
122.370    623.000    624.513     -1.513    488.871    616.627    488.871    496.793    488.871
122.470    625.000    628.741     -3.741    489.354    620.683    489.354    497.450    489.354
122.570    678.396    632.515     45.881    489.845    624.295    489.845    498.105    489.845
122.670    666.770    635.731     31.039    490.343    627.365    490.343    498.752    490.343
122.770    638.154    638.302     -0.149    490.849    629.808    490.849    499.388    490.849
122.870    658.441    640.162     18.279    491.363    631.564    491.363    500.006    491.363
122.970    667.000    641.268     25.732    491.885    632.596    491.885    500.603    491.885
123.070    654.520    641.609     12.911    492.415    632.896    492.415    501.174    492.415
123.170    648.000    641.198      6.802    492.953    632.482    492.953    501.716    492.953
123.270    619.438    640.076    -20.638    493.499    631.393    493.499    502.226    493.499
123.370    675.000    638.300     36.700    494.053    629.692    494.053    502.705    494.053
123.470    650.143    635.944     14.199    494.615    627.451    494.615    503.151    494.615
123.570    659.000    633.093     25.907    495.186    624.752    495.186    503.568    495.186
123.670    638.000    629.834      8.166    495.765    621.679    495.765    503.959    495.765
123.770    674.000    626.256     47.744    496.353    618.318    496.353    504.327    496.353
123.870    626.000    622.445      3.555    496.949    614.749    496.949    504.677    496.949
123.970    583.431    618.480    -35.048    497.553    611.049    497.553    505.014    497.553
124.070    570.140    614.434    -44.294    498.166    607.284    498.166    505.343    498.166
124.170    626.000    610.370     15.630    498.788    603.513    498.788    505.669    498.788
124.270    642.043    606.340     35.703    499.419    599.784    499.419    505.995    499.419
124.370    587.464    602.383    -14.919    500.058    596.132    500.058    506.327    500.058
124.470    550.555    598.530    -47.975    500.706    592.583    500.706    506.668    500.706
124.570    561.000    594.799    -33.799    501.363    589.154    501.363    507.021    501.363
124.670    600.072    591.199      8.873    502.029    585.850    502.029    507.389    502.029
124.770    567.000    587.733    -20.733    502.704    582.673    502.704    507.773    502.704
124.870    546.313    584.399    -38.086    503.388    579.617    503.388    508.177    503.388
124.970    553.000    581.190    -28.190    504.081    576.675    504.081    508.602    504.081
