neutron_powder_diffraction_0202
R_wp: 3.943
Temperature (K): 1074.000
Counts: 83703.00
Wavelength (Ã…): 2.52098
COMMENTS
Test file for demonstrating the .xyy file format in Reel1.0
END OF HEADER
   tth       Y_obs     Y_calc      Y_res    Background    Phase_1_Nuc    Phase_1_Mag    Phase_2_Nuc    Phase_2_Mag
  9.970    573.449    566.724      6.726    566.052    566.704    566.052    566.072    566.052
 10.070    547.000    566.905    -19.905    566.173    566.885    566.173    566.193    566.173
 10.170    577.485    567.086     10.399    566.289    567.065    566.289    566.309    566.289
 10.270    589.770    567.270     22.499    566.399    567.250    566.399    566.419    566.399
 10.370    543.200    567.462    -24.262    566.503    567.441    566.503    566.523    566.503
 10.470    526.043    567.662    -41.619    566.601    567.642    566.601    566.622    566.601
 10.570    570.000    567.876      2.124    566.694    567.855    566.694    566.715    566.694
 10.670    600.000    568.107     31.893    566.782    568.086    566.782    566.802    566.782
 10.770    598.000    568.363     29.637    566.864    568.342    566.864    566.884    566.864
 10.870    569.000    568.652      0.348    566.941    568.631    566.941    566.961    566.941
 10.970    602.000    568.987     33.013    567.012    568.965    567.012    567.033    567.012
 11.070    552.000    569.385    -17.385    567.078    569.362    567.078    567.099    567.078
 11.170    551.000    569.871    -18.871    567.139    569.849    567.139    567.160    567.139
 11.270    587.000    570.486     16.514    567.194    570.463    567.194    567.215    567.194
 11.370    595.370    571.298     24.073    567.245    571.274    567.245    567.266    567.245
 11.470    559.000    572.456    -13.456    567.290    572.431    567.290    567.311    567.290
 11.570    578.964    574.375      4.589    567.330    574.349    567.330    567.351    567.330
 11.670    603.000    578.225     24.775    567.365    578.198    567.365    567.387    567.365
 11.770    583.681    586.707     -3.026    567.395    586.675    567.395    567.417    567.395
 11.870    653.000    604.140     48.860    567.421    604.096    567.421    567.444    567.421
 11.970    675.000    633.840     41.160    567.441    633.777    567.441    567.467    567.441
 12.070    705.356    671.962     33.394    567.457    671.877    567.457    567.483    567.457
 12.170    737.000    701.920     35.080    567.468    701.818    567.468    567.494    567.468
 12.270    680.000    702.904    -22.904    567.474    702.801    567.474    567.500    567.474
 12.370    676.038    674.034      2.005    567.475    673.947    567.475    567.502    567.475
 12.470    648.647    635.757     12.890    567.472    635.692    567.472    567.499    567.472
 12.570    568.000    605.404    -37.404    567.464    605.356    567.464    567.491    567.464
 12.670    640.000    587.394     52.606    567.452    587.355    567.452    567.480    567.452
 12.770    538.903    578.590    -39.687    567.435    578.554    567.435    567.464    567.435
 12.870    594.000    574.608     19.392    567.414    574.575    567.414    567.443    567.414
 12.970    502.000    572.649    -70.649    567.388    572.617    567.388    567.418    567.388
 13.070    573.000    571.484      1.516    567.359    571.453    567.359    567.388    567.359
 13.170    547.000    570.678    -23.678    567.324    570.647    567.324    567.354    567.324
 13.270    550.000    570.074    -20.074    567.286    570.043    567.286    567.315    567.286
 13.370    608.327    569.602     38.724    567.243    569.571    567.243    567.273    567.243
 13.470    563.000    569.222     -6.222    567.196    569.191    567.196    567.226    567.196
 13.570    536.792    568.907    -32.114    567.145    568.876    567.145    567.175    567.145
 13.670    533.000    568.639    -35.639    567.090    568.608    567.090    567.120    567.090
 13.770    527.000    568.407    -41.407    567.031    568.375    567.031    567.061    567.031
 13.870    612.143    568.202     43.941    566.967    568.169    566.967    566.999    566.967
 13.970    562.000    568.025     -6.025    566.900    567.983    566.900    566.943    566.900
 14.070    538.000    567.855    -29.855    566.829    567.811    566.829    566.873    566.829
 14.170    542.000    567.695    -25.695    566.754    567.650    566.754    566.798    566.754
 14.270    580.000    567.543     12.457    566.676    567.498    566.676    566.720    566.676
 14.370    561.000    567.397     -6.397    566.593    567.352    566.593    566.638    566.593
 14.470    562.000    567.257     -5.257    566.507    567.211    566.507    566.552    566.507
 14.570    580.072    567.119     12.953    566.417    567.074    566.417    566.462    566.417
 14.670    549.000    566.984    -17.984    566.323    566.938    566.323    566.369    566.323
 14.770    562.000    566.854     -4.854    566.226    566.807    566.226    566.272    566.226
 14.870    528.429    566.728    -38.299    566.125    566.675    566.125    566.177    566.125
 14.970    566.000    566.596     -0.596    566.021    566.542    566.021    566.074    566.021
 15.070    570.000    566.462      3.538    565.913    566.408    565.913    565.967    565.913
 15.170    524.722    566.328    -41.606    565.802    566.274    565.802    565.856    565.802
 15.270    579.267    566.193     13.074    565.687    566.139    565.687    565.741    565.687
 15.370    543.000    566.057    -23.057    565.569    566.002    565.569    565.624    565.569
 15.470    525.072    565.920    -40.848    565.448    565.865    565.448    565.503    565.448
 15.570    545.000    565.780    -20.780    565.323    565.725    565.323    565.378    565.323
 15.670    564.000    565.639     -1.639    565.195    565.584    565.195    565.251    565.195
 15.770    525.161    565.496    -40.335    565.064    565.440    565.064    565.120    565.064
 15.870    521.585    565.352    -43.766    564.930    565.295    564.930    564.986    564.930
 15.970    570.074    565.205      4.869    564.792    565.148    564.792    564.849    564.792
 16.070    555.732    565.056     -9.324    564.652    564.999    564.652    564.709    564.652
 16.170    537.000    564.904    -27.904    564.508    564.847    564.508    564.566    564.508
 16.270    569.000    564.751      4.249    564.362    564.693    564.362    564.420    564.362
 16.370    601.000    564.595     36.405    564.212    564.537    564.212    564.270    564.212
 16.470    592.000    564.439     27.561    564.060    564.380    564.060    564.118    564.060
 16.570    525.000    564.280    -39.280    563.905    564.221    563.905    563.963    563.905
 16.670    569.000    564.118      4.882    563.746    564.059    563.746    563.806    563.746
 16.770    534.000    563.953    -29.953    563.585    563.894    563.585    563.645    563.585
 16.870    531.000    563.786    -32.786    563.422    563.726    563.422    563.482    563.422
 16.970    568.000    563.617      4.383    563.255    563.556    563.255    563.315    563.255
 17.070    585.000    563.445     21.555    563.086    563.385    563.086    563.147    563.086
 17.170    529.972    563.272    -33.299    562.914    563.210    562.914    562.975    562.914
 17.270    561.000    563.096     -2.096    562.739    563.034    562.739    562.801    562.739
 17.370    530.000    562.918    -32.918    562.562    562.856    562.562    562.624    562.562
 17.470    555.000    562.740     -7.740    562.382    562.677    562.382    562.445    562.382
 17.570    592.291    562.558     29.733    562.200    562.495    562.200    562.264    562.200
 17.670    552.000    562.376    -10.376    562.015    562.309    562.015    562.082    562.015
 17.770    591.420    562.189     29.231    561.828    562.122    561.828    561.896    561.828
 17.870    582.000    562.000     20.000    561.639    561.932    561.639    561.707    561.639
 17.970    545.000    561.810    -16.810    561.447    561.741    561.447    561.516    561.447
 18.070    592.000    561.617     30.383    561.252    561.547    561.252    561.322    561.252
 18.170    609.000    561.422     47.578    561.056    561.352    561.056    561.126    561.056
 18.270    590.000    561.225     28.775    560.857    561.154    560.857    560.928    560.857
 18.370    535.728    561.026    -25.298    560.656    560.954    560.656    560.728    560.656
 18.470    608.000    560.825     47.175    560.452    560.753    560.452    560.525    560.452
 18.570    517.347    560.622    -43.275    560.247    560.549    560.247    560.320    560.247
 18.670    516.396    560.417    -44.022    560.039    560.344    560.039    560.113    560.039
 18.770    516.000    560.211    -44.211    559.829    560.137    559.829    559.904    559.829
 18.870    522.000    560.002    -38.002    559.618    559.928    559.618    559.692    559.618
 18.970    551.000    559.793     -8.793    559.404    559.717    559.404    559.479    559.404
 19.070    548.231    559.581    -11.351    559.188    559.505    559.188    559.264    559.188
 19.170    591.000    559.368     31.632    558.970    559.291    558.970    559.047    558.970
 19.270    573.000    559.153     13.847    558.750    559.076    558.750    558.827    558.750
 19.370    573.334    558.937     14.397    558.528    558.859    558.528    558.606    558.528
 19.470    570.336    558.720     11.616    558.305    558.641    558.305    558.384    558.305
 19.570    575.000    558.500     16.500    558.079    558.421    558.079    558.159    558.079
 19.670    532.000    558.279    -26.279    557.852    558.199    557.852    557.932    557.852
 19.770    582.555    558.057     24.498    557.623    557.975    557.623    557.704    557.623
 19.870    563.000    557.834      5.166    557.392    557.751    557.392    557.476    557.392
 19.970    532.556    557.609    -25.052    557.160    557.525    557.160    557.244    557.160
 20.070    585.000    557.383     27.617    556.926    557.299    556.926    557.011    556.926
 20.170    564.000    557.169      6.831    556.690    557.084    556.690    556.776    556.690
 20.270    539.000    556.950    -17.950    556.453    556.864    556.453    556.539    556.453
 20.370    573.340    556.721     16.618    556.214    556.634    556.214    556.301    556.214
 20.470    525.000    556.491    -31.491    555.973    556.403    555.973    556.061    555.973
 20.570    576.000    556.259     19.741    555.731    556.170    555.731    555.820    555.731
 20.670    562.000    556.026      5.974    555.488    555.936    555.488    555.577    555.488
 20.770    574.000    555.793     18.207    555.242    555.702    555.242    555.333    555.242
 20.870    554.000    555.559     -1.559    554.996    555.467    554.996    555.088    554.996
 20.970    541.000    555.324    -14.324    554.748    555.231    554.748    554.841    554.748
 21.070    555.000    555.088     -0.088    554.499    554.995    554.499    554.593    554.499
 21.170    513.709    554.853    -41.144    554.248    554.758    554.248    554.343    554.248
 21.270    537.000    554.621    -17.621    553.996    554.521    553.996    554.097    553.996
 21.370    543.000    554.387    -11.387    553.743    554.284    553.743    553.846    553.743
 21.470    534.045    554.151    -20.106    553.489    554.046    553.489    553.593    553.489
 21.570    561.000    553.915      7.085    553.233    553.809    553.233    553.339    553.233
 21.670    594.000    553.679     40.321    552.976    553.572    552.976    553.083    552.976
 21.770    574.244    553.443     20.801    552.718    553.335    552.718    552.826    552.718
 21.870    516.174    553.209    -37.035    552.459    553.099    552.459    552.568    552.459
 21.970    556.000    552.983      3.017    552.198    552.873    552.198    552.309    552.198
 22.070    556.000    552.833      3.167    551.937    552.721    551.937    552.049    551.937
 22.170    576.258    552.623     23.635    551.674    552.510    551.674    551.788    551.674
 22.270    553.000    552.398      0.602    551.411    552.283    551.411    551.526    551.411
 22.370    568.000    552.192     15.808    551.146    552.076    551.146    551.263    551.146
 22.470    540.000    551.996    -11.996    550.881    551.878    550.881    550.999    550.881
 22.570    574.000    551.784     22.216    550.614    551.665    550.614    550.734    550.614
 22.670    524.000    551.617    -27.617    550.347    551.496    550.347    550.468    550.347
 22.770    555.000    551.431      3.569    550.079    551.308    550.079    550.202    550.079
 22.870    515.378    551.231    -35.853    549.809    551.107    549.809    549.934    549.809
 22.970    526.780    551.039    -24.259    549.539    550.913    549.539    549.666    549.539
 23.070    507.849    550.858    -43.009    549.269    550.730    549.269    549.397    549.269
 23.170    547.000    550.690     -3.690    548.997    550.560    548.997    549.128    548.997
 23.270    557.000    550.539      6.461    548.725    550.407    548.725    548.857    548.725
 23.370    578.000    550.410     27.590    548.451    550.276    548.451    548.586    548.451
 23.470    577.271    550.310     26.961    548.177    550.174    548.177    548.315    548.177
 23.570    562.000    550.248     11.752    547.903    550.109    547.903    548.042    547.903
 23.670    555.000    550.237      4.763    547.628    550.096    547.628    547.770    547.628
 23.770    530.000    550.296    -20.296    547.352    550.153    547.352    547.496    547.352
 23.870    524.000    550.459    -26.459    547.075    550.313    547.075    547.223    547.075
 23.970    507.494    550.775    -43.281    546.798    550.627    546.798    546.948    546.798
 24.070    589.000    551.379     37.621    546.520    551.228    546.520    546.674    546.520
 24.170    585.000    552.640     32.360    546.242    552.487    546.242    546.399    546.242
 24.270    571.631    555.541     16.090    545.963    555.387    545.963    546.123    545.963
 24.370    546.000    562.129    -16.129    545.684    561.976    545.684    545.847    545.684
 24.470    592.000    575.220     16.780    545.404    575.073    545.404    545.571    545.404
 24.570    591.919    596.194     -4.275    545.124    596.058    545.124    545.295    545.124
 24.670    598.000    620.962    -22.962    544.844    620.838    544.844    545.020    544.844
 24.770    651.594    637.365     14.229    544.563    637.248    544.563    544.745    544.563
 24.870    672.046    633.366     38.680    544.281    633.242    544.281    544.468    544.281
 24.970    661.000    612.241     48.759    544.000    612.098    544.000    544.191    544.000
 25.070    618.000    587.501     30.499    543.717    587.335    543.717    543.914    543.717
 25.170    570.000    568.592      1.408    543.435    568.407    543.435    543.637    543.435
 25.270    549.255    557.419     -8.164    543.152    557.220    543.152    543.360    543.152
 25.370    581.000    551.814     29.186    542.869    551.605    542.869    543.083    542.869
 25.470    540.742    549.120     -8.378    542.586    548.903    542.586    542.806    542.586
 25.570    611.000    547.670     63.330    542.303    547.445    542.303    542.530    542.303
 25.670    564.471    546.729     17.742    542.019    546.496    542.019    542.254    542.019
 25.770    513.905    546.033    -32.128    541.735    545.792    541.735    541.978    541.735
 25.870    545.000    545.482     -0.482    541.451    545.232    541.451    541.702    541.451
 25.970    551.753    545.030      6.723    541.167    544.770    541.167    541.428    541.167
 26.070    553.836    544.655      9.182    540.883    544.385    540.883    541.153    540.883
 26.170    604.000    544.343     59.657    540.599    544.062    540.599    540.880    540.599
 26.270    542.000    544.087     -2.087    540.314    543.794    540.314    540.607    540.314
 26.370    539.000    543.879     -4.879    540.030    543.574    540.030    540.336    540.030
 26.470    534.137    543.744     -9.607    539.745    543.424    539.745    540.065    539.745
 26.570    563.000    543.655     19.345    539.461    543.320    539.461    539.796    539.461
 26.670    522.285    543.599    -21.314    539.176    543.246    539.176    539.528    539.176
 26.770    551.000    543.602      7.398    538.892    543.231    538.892    539.262    538.892
 26.870    530.000    543.681    -13.681    538.607    543.290    538.607    538.998    538.607
 26.970    576.000    543.854     32.146    538.323    543.440    538.323    538.736    538.323
 27.070    509.555    544.134    -34.579    538.038    543.695    538.038    538.477    538.038
 27.170    567.059    544.564     22.495    537.754    544.097    537.754    538.221    537.754
 27.270    525.000    545.202    -20.202    537.470    544.703    537.470    537.969    537.470
 27.370    575.000    546.141     28.859    537.186    545.605    537.186    537.720    537.186
 27.470    561.000    547.507     13.493    536.902    546.931    536.902    537.477    536.902
 27.570    581.820    549.655     32.165    536.619    549.033    536.619    537.239    536.619
 27.670    550.000    553.946     -3.946    536.335    553.270    536.335    537.008    536.335
 27.770    573.000    564.982      8.018    536.052    564.241    536.052    536.786    536.052
 27.870    664.000    594.548     69.452    535.769    593.726    535.769    536.574    535.769
 27.970    664.390    661.174      3.216    535.486    660.247    535.486    536.374    535.486
 28.070    819.000    773.296     45.704    535.204    772.238    535.204    536.189    535.204
 28.170    876.000    899.140    -23.140    534.922    897.936    534.922    536.024    534.922
 28.270    990.000    961.255     28.745    534.640    959.913    534.640    535.883    534.640
 28.370    929.136    908.490     20.646    534.359    907.012    534.359    535.773    534.359
 28.470    802.000    795.132      6.868    534.077    793.479    534.077    535.705    534.077
 28.570    703.000    707.801     -4.801    533.796    705.892    533.796    535.693    533.796
 28.670    681.057    690.757     -9.700    533.516    688.494    533.516    535.764    533.516
 28.770    748.563    738.612      9.951    533.236    735.861    533.236    535.966    533.236
 28.870    796.000    810.055    -14.055    532.956    806.603    532.956    536.392    532.956
 28.970    782.000    843.832    -61.832    532.677    839.293    532.677    537.216    532.677
 29.070    759.000    803.878    -44.878    532.398    797.566    532.398    538.721    532.398
 29.170    681.346    722.254    -40.908    532.120    713.094    532.120    541.290    532.120
 29.270    635.000    648.217    -13.217    531.842    634.759    531.842    545.307    531.842
 29.370    604.941    603.845      1.096    531.565    584.485    531.565    550.926    531.565
 29.470    600.089    585.925     14.164    531.288    559.529    531.288    557.683    531.288
 29.570    595.000    581.774     13.226    531.012    548.871    531.012    563.912    531.012
 29.670    599.000    580.183     18.817    530.736    544.200    530.736    566.716    530.736
 29.770    569.000    575.445     -6.445    530.460    541.698    530.460    564.204    530.460
 29.870    549.093    567.715    -18.622    530.186    540.071    530.186    557.828    530.186
 29.970    568.000    559.504      8.496    529.912    538.928    529.912    550.485    529.912
 30.070    548.000    552.575     -4.575    529.638    538.143    529.638    544.069    529.638
 30.170    529.000    547.545    -18.545    529.365    537.690    529.365    539.219    529.365
 30.270    512.913    544.449    -31.536    529.093    537.676    529.093    535.863    529.093
 30.370    545.337    543.358      1.978    528.821    538.532    528.821    533.644    528.821
 30.470    529.509    545.035    -15.525    528.550    541.411    528.550    532.168    528.550
 30.570    508.205    551.353    -43.148    528.280    548.487    528.280    531.134    528.280
 30.670    566.000    564.540      1.460    528.010    562.178    528.010    530.350    528.010
 30.770    582.000    584.477     -2.477    527.741    582.470    527.741    529.710    527.741
 30.870    648.000    605.224     42.776    527.473    603.485    527.473    529.161    527.473
 30.970    589.228    614.726    -25.497    527.206    613.202    527.206    528.673    527.206
 31.070    603.000    604.996     -1.996    526.939    603.660    526.939    528.229    526.939
 31.170    565.000    583.445    -18.445    526.673    582.270    526.673    527.818    526.673
 31.270    564.709    562.138      2.571    526.408    561.096    526.408    527.434    526.408
 31.370    531.849    547.271    -15.422    526.143    546.336    526.143    527.070    526.143
 31.470    521.000    539.073    -18.073    525.880    538.227    525.880    526.722    525.880
 31.570    531.000    535.175     -4.175    525.617    534.401    525.617    526.388    525.617
 31.670    564.000    533.348     30.652    525.355    532.636    525.355    526.065    525.355
 31.770    561.000    532.365     28.635    525.094    531.706    525.094    525.751    525.094
 31.870    528.000    531.736     -3.736    524.833    531.123    524.833    525.445    524.833
 31.970    558.676    531.296     27.380    524.574    530.723    524.574    525.145    524.574
 32.070    545.000    530.990     14.010    524.315    530.453    524.315    524.851    524.315
 32.170    563.000    530.797     32.203    524.057    530.291    524.057    524.563    524.057
 32.270    556.000    530.710     25.290    523.800    530.231    523.800    524.279    523.800
 32.370    554.821    530.731     24.090    523.544    530.276    523.544    523.998    523.544
 32.470    568.718    530.865     37.853    523.289    530.432    523.289    523.722    523.289
 32.570    497.725    531.127    -33.403    523.035    530.714    523.035    523.448    523.035
 32.670    555.000    531.545     23.455    522.782    531.149    522.782    523.178    522.782
 32.770    557.000    532.157     24.843    522.530    531.776    522.530    522.910    522.530
 32.870    523.917    533.016     -9.099    522.279    532.649    522.279    522.644    522.279
 32.970    519.122    534.204    -15.082    522.028    533.850    522.028    522.381    522.028
 33.070    571.040    535.847     35.193    521.779    535.504    521.779    522.120    521.779
 33.170    542.874    538.170      4.704    521.531    537.837    521.531    521.861    521.531
 33.270    552.000    541.695     10.305    521.283    541.371    521.283    521.604    521.283
 33.370    541.774    547.850     -6.076    521.037    547.534    521.037    521.349    521.037
 33.470    619.000    560.436     58.564    520.792    560.125    520.792    521.096    520.792
 33.570    589.000    587.784      1.216    520.547    587.475    520.547    520.845    520.547
 33.670    631.000    643.227    -12.227    520.304    642.915    520.304    520.595    520.304
 33.770    795.000    739.019     55.981    520.062    738.696    520.062    520.347    520.062
 33.870    858.538    871.572    -13.034    519.821    871.236    519.821    520.100    519.821
 33.970    999.000   1004.784     -5.784    519.581   1004.443    519.581    519.855    519.581
 34.070   1129.000   1070.120     58.880    519.342   1069.792    519.342    519.611    519.342
 34.170    976.646   1021.042    -44.396    519.104   1020.746    519.104    519.369    519.104
 34.270    871.000    894.017    -23.017    518.867    893.749    518.867    519.129    518.867
 34.370    813.000    758.026     54.974    518.632    757.774    518.632    518.889    518.632
 34.470    612.000    654.946    -42.946    518.397    654.700    518.397    518.652    518.397
 34.570    590.000    592.826     -2.826    518.164    592.579    518.164    518.415    518.164
 34.670    599.968    561.054     38.914    517.932    560.808    517.932    518.180    517.932
 34.770    559.000    546.007     12.993    517.701    545.761    517.701    517.947    517.701
 34.870    568.000    538.498     29.502    517.471    538.254    517.471    517.715    517.471
 34.970    573.085    534.100     38.986    517.242    533.857    517.242    517.484    517.242
 35.070    510.000    531.078    -21.078    517.014    530.837    517.014    517.254    517.014
 35.170    560.142    528.799     31.343    516.788    528.560    516.788    517.026    516.788
 35.270    498.000    527.000    -29.000    516.563    526.763    516.563    516.800    516.563
 35.370    495.000    525.540    -30.540    516.339    525.304    516.339    516.574    516.339
 35.470    530.000    524.331      5.669    516.116    524.096    516.116    516.350    516.116
 35.570    486.000    523.311    -37.311    515.894    523.077    515.894    516.128    515.894
 35.670    535.000    522.437     12.563    515.674    522.204    515.674    515.906    515.674
 35.770    518.000    521.678     -3.678    515.455    521.446    515.455    515.687    515.455
 35.870    503.000    521.011    -18.011    515.237    520.780    515.237    515.468    515.237
 35.970    496.978    520.419    -23.441    515.020    520.188    515.020    515.251    515.020
 36.070    562.324    519.889     42.435    514.805    519.659    514.805    515.035    514.805
 36.170    547.135    519.412     27.723    514.590    519.181    514.590    514.821    514.590
 36.270    516.000    518.979     -2.979    514.377    518.749    514.377    514.608    514.377
 36.370    538.000    518.587     19.413    514.166    518.357    514.166    514.396    514.166
 36.470    506.000    518.233    -12.233    513.955    518.003    513.955    514.186    513.955
 36.570    536.000    517.914     18.086    513.746    517.684    513.746    513.977    513.746
 36.670    554.889    517.632     37.257    513.538    517.402    513.538    513.769    513.538
 36.770    548.000    517.393     30.607    513.332    517.163    513.332    513.563    513.332
 36.870    536.318    517.216     19.102    513.127    516.985    513.127    513.358    513.127
 36.970    494.000    517.151    -23.151    512.923    516.919    512.923    513.155    512.923
 37.070    493.000    517.319    -24.319    512.720    517.087    512.720    512.953    512.720
 37.170    564.000    517.958     46.042    512.519    517.725    512.519    512.752    512.519
 37.270    542.000    519.409     22.591    512.319    519.176    512.319    512.553    512.319
 37.370    523.891    521.963      1.927    512.120    521.730    512.120    512.355    512.120
 37.470    544.927    525.535     19.392    511.923    525.301    511.923    512.159    511.923
 37.570    521.000    529.306     -8.306    511.727    529.072    511.727    511.964    511.727
 37.670    508.371    531.682    -23.311    511.533    531.449    511.533    511.770    511.533
 37.770    537.000    531.326      5.674    511.339    531.093    511.339    511.578    511.339
 37.870    523.000    528.580     -5.580    511.148    528.349    511.148    511.387    511.148
 37.970    563.878    524.903     38.975    510.957    524.673    510.957    511.198    510.957
 38.070    513.000    521.424     -8.424    510.768    521.193    510.768    511.010    510.768
 38.170    548.945    518.588     30.357    510.580    518.354    510.580    510.824    510.580
 38.270    475.000    516.488    -41.488    510.394    516.250    510.394    510.639    510.394
 38.370    517.000    515.042      1.958    510.209    514.800    510.209    510.456    510.209
 38.470    553.000    514.084     38.916    510.025    513.838    510.025    510.274    510.025
 38.570    492.000    513.450    -21.450    509.843    513.201    509.843    510.093    509.843
 38.670    553.132    513.012     40.120    509.662    512.761    509.662    509.914    509.662
 38.770    515.321    512.684      2.637    509.483    512.431    509.483    509.736    509.483
 38.870    524.000    512.415     11.585    509.305    512.160    509.305    509.560    509.305
 38.970    535.938    512.178     23.760    509.128    511.921    509.128    509.385    509.128
 39.070    505.000    511.962     -6.962    508.953    511.702    508.953    509.212    508.953
 39.170    517.000    511.760      5.240    508.779    511.499    508.779    509.041    508.779
 39.270    526.320    511.571     14.749    508.607    511.308    508.607    508.870    508.607
 39.370    547.673    511.392     36.280    508.436    511.127    508.436    508.702    508.436
 39.470    509.000    511.223     -2.223    508.266    510.955    508.266    508.535    508.266
 39.570    499.000    511.062    -12.062    508.098    510.791    508.098    508.369    508.098
 39.670    504.000    510.909     -6.909    507.931    510.636    507.931    508.205    507.931
 39.770    529.341    510.763     18.578    507.766    510.487    507.766    508.042    507.766
 39.870    531.000    510.625     20.375    507.602    510.347    507.602    507.881    507.602
 39.970    519.069    510.495      8.573    507.440    510.214    507.440    507.721    507.440
 40.070    524.109    510.373     13.736    507.279    510.089    507.279    507.563    507.279
 40.170    535.000    510.259     24.741    507.119    509.972    507.119    507.407    507.119
 40.270    468.028    510.154    -42.126    506.961    509.864    506.961    507.252    506.961
 40.370    523.404    510.059     13.344    506.805    509.766    506.805    507.098    506.805
 40.470    521.985    509.975     12.010    506.650    509.678    506.650    506.946    506.650
 40.570    485.000    509.902    -24.902    506.496    509.603    506.496    506.796    506.496
 40.670    489.804    509.844    -20.039    506.344    509.540    506.344    506.647    506.344
 40.770    533.000    509.801     23.199    506.193    509.494    506.193    506.500    506.193
 40.870    527.413    509.776     17.637    506.044    509.466    506.044    506.355    506.044
 40.970    513.000    509.774      3.226    505.896    509.460    505.896    506.211    505.896
 41.070    468.023    509.798    -41.776    505.749    509.480    505.749    506.068    505.749
 41.170    489.372    509.855    -20.483    505.604    509.533    505.604    505.927    505.604
 41.270    523.000    509.952     13.048    505.461    509.626    505.461    505.788    505.461
 41.370    469.000    510.102    -41.102    505.319    509.771    505.319    505.651    505.319
 41.470    520.000    510.318      9.682    505.178    509.983    505.178    505.515    505.178
 41.570    502.000    510.627     -8.627    505.039    510.287    505.039    505.380    505.039
 41.670    484.000    511.071    -27.071    504.902    510.728    504.902    505.247    504.902
 41.770    526.846    511.751     15.095    504.766    511.402    504.766    505.116    504.766
 41.870    541.385    512.903     28.483    504.631    512.549    504.631    504.987    504.631
 41.970    499.809    515.082    -15.273    504.498    514.724    504.498    504.859    504.498
 42.070    546.000    519.403     26.597    504.366    519.042    504.366    504.733    504.366
 42.170    521.991    527.662     -5.671    504.236    527.298    504.236    504.608    504.236
 42.270    543.275    541.931      1.345    504.107    541.568    504.107    504.485    504.107
 42.370    576.000    563.311     12.689    503.980    562.952    503.980    504.364    503.980
 42.470    535.000    590.049    -55.049    503.854    589.697    503.854    504.245    503.854
 42.570    604.229    615.901    -11.671    503.730    615.557    503.730    504.127    503.730
 42.670    658.835    630.694     28.141    503.607    630.354    503.607    504.011    503.607
 42.770    595.736    626.661    -30.925    503.486    626.315    503.486    503.897    503.486
 42.870    567.000    606.167    -39.167    503.366    605.805    503.366    503.785    503.366
 42.970    620.276    578.901     41.375    503.248    578.518    503.248    503.674    503.248
 43.070    534.000    553.712    -19.712    503.131    553.306    503.131    503.565    503.131
 43.170    524.000    534.959    -10.959    503.015    534.535    503.015    503.458    503.015
 43.270    526.000    523.071      2.929    502.901    522.630    502.901    503.353    502.901
 43.370    486.000    516.392    -30.392    502.789    515.938    502.789    503.249    502.789
 43.470    499.000    512.886    -13.886    502.678    512.420    502.678    503.147    502.678
 43.570    476.486    511.022    -34.536    502.568    510.545    502.568    503.048    502.568
 43.670    525.963    509.931     16.032    502.460    509.443    502.460    502.950    502.460
 43.770    500.000    509.203     -9.203    502.354    508.704    502.354    502.854    502.354
 43.870    510.000    508.666      1.334    502.249    508.155    502.249    502.760    502.249
 43.970    481.000    508.247    -27.247    502.145    507.725    502.145    502.668    502.145
 44.070    532.000    507.911     24.089    502.043    507.377    502.043    502.578    502.043
 44.170    532.116    507.639     24.478    501.942    507.091    501.942    502.491    501.942
 44.270    525.103    507.416     17.687    501.843    506.855    501.843    502.405    501.843
 44.370    509.946    507.234      2.712    501.745    506.658    501.745    502.321    501.745
 44.470    447.000    507.085    -60.085    501.649    506.494    501.649    502.240    501.649
 44.570    470.117    506.964    -36.847    501.554    506.357    501.554    502.161    501.554
 44.670    548.415    506.867     41.548    501.461    506.244    501.461    502.084    501.461
 44.770    470.987    506.792    -35.805    501.369    506.152    501.369    502.010    501.369
 44.870    502.000    506.737     -4.737    501.279    506.078    501.279    501.938    501.279
 44.970    518.000    506.700     11.300    501.190    506.021    501.190    501.868    501.190
 45.070    540.000    506.680     33.320    501.102    505.980    501.102    501.802    501.102
 45.170    469.838    506.676    -36.839    501.016    505.955    501.016    501.738    501.016
 45.270    479.000    506.689    -27.689    500.932    505.944    500.932    501.676    500.932
 45.370    527.000    506.718     20.282    500.849    505.949    500.849    501.618    500.849
 45.470    491.000    506.764    -15.764    500.767    505.968    500.767    501.563    500.767
 45.570    484.869    506.828    -21.959    500.687    506.003    500.687    501.511    500.687
 45.670    463.373    506.909    -43.536    500.608    506.054    500.608    501.463    500.608
 45.770    498.266    507.011     -8.745    500.531    506.123    500.531    501.418    500.531
 45.870    507.000    507.134     -0.134    500.455    506.211    500.455    501.377    500.455
 45.970    493.880    507.280    -13.400    500.380    506.320    500.380    501.340    500.380
 46.070    484.000    507.453    -23.453    500.307    506.452    500.307    501.307    500.307
 46.170    501.000    507.655     -6.655    500.236    506.611    500.236    501.279    500.236
 46.270    494.000    507.892    -13.892    500.165    506.800    500.165    501.257    500.165
 46.370    522.000    508.169     13.831    500.097    507.025    500.097    501.240    500.097
 46.470    526.000    508.493     17.507    500.029    507.293    500.029    501.229    500.029
 46.570    473.743    508.875    -35.133    499.963    507.613    499.963    501.224    499.963
 46.670    551.953    509.330     42.623    499.899    508.001    499.899    501.227    499.899
 46.770    474.196    509.885    -35.688    499.836    508.481    499.836    501.238    499.836
 46.870    538.826    510.592     28.234    499.774    509.106    499.774    501.258    499.774
 46.970    522.424    511.575     10.848    499.714    509.998    499.714    501.289    499.714
 47.070    519.000    513.099      5.901    499.655    511.420    499.655    501.331    499.655
 47.170    522.000    515.682      6.318    499.598    513.888    499.598    501.386    499.598
 47.270    535.598    520.171     15.427    499.542    518.247    499.542    501.457    499.542
 47.370    504.000    527.641    -23.641    499.487    525.568    499.487    501.545    499.487
 47.470    538.000    538.972     -0.972    499.434    536.730    499.434    501.654    499.434
 47.570    576.000    554.095     21.905    499.382    551.657    499.382    501.786    499.382
 47.670    577.000    571.170      5.830    499.331    568.508    499.331    501.948    499.331
 47.770    623.000    586.172     36.828    499.282    583.255    499.282    502.144    499.282
 47.870    582.000    593.682    -11.682    499.234    590.477    499.234    502.381    499.234
 47.970    594.513    590.495      4.018    499.188    586.959    499.188    502.669    499.188
 48.070    618.000    578.790     39.210    499.143    574.868    499.143    503.022    499.143
 48.170    554.000    563.846     -9.846    499.099    559.457    499.099    503.456    499.099
 48.270    541.000    550.213     -9.213    499.057    545.246    499.057    504.003    499.057
 48.370    520.000    540.332    -20.332    499.016    534.624    499.016    504.711    499.016
 48.470    553.857    534.776     19.080    498.977    528.073    498.977    505.672    498.977
 48.570    494.667    533.046    -38.379    498.938    524.932    498.938    507.047    498.938
 48.670    565.350    534.416     30.934    498.902    524.197    498.902    509.115    498.902
 48.770    539.000    538.492      0.508    498.866    525.034    498.866    512.320    498.866
 48.870    559.000    545.408     13.592    498.832    526.958    498.832    517.277    498.832
 48.970    512.818    555.737    -42.919    498.799    529.818    498.799    524.713    498.799
 49.070    575.000    570.280      4.720    498.767    533.761    498.767    535.280    498.767
 49.170    606.844    589.902     16.942    498.737    539.389    498.737    549.242    498.737
 49.270    639.000    615.742     23.258    498.708    548.377    498.708    566.061    498.708
 49.370    671.443    650.246     21.197    498.681    565.006    498.681    583.904    498.681
 49.470    672.934    699.546    -26.611    498.654    598.924    498.654    599.247    498.654
 49.570    750.000    777.312    -27.312    498.629    668.446    498.629    607.446    498.629
 49.670    913.000    908.039      4.961    498.605    801.240    498.605    605.323    498.605
 49.770   1128.000   1122.433      5.567    498.583   1027.095    498.583    593.794    498.583
 49.870   1454.931   1437.975     16.955    498.562   1359.379    498.562    576.988    498.562
 49.970   1849.000   1831.165     17.835    498.542   1770.280    498.542    559.237    498.542
 50.070   2235.705   2219.977     15.727    498.523   2174.963    498.523    543.381    498.523
 50.170   2543.000   2477.102     65.898    498.506   2444.846    498.506    530.696    498.506
 50.270   2497.000   2491.797      5.203    498.490   2468.978    498.490    521.366    498.490
 50.370   2264.000   2252.832     11.168    498.475   2236.523    498.475    514.935    498.475
 50.470   1811.028   1859.528    -48.501    498.461   1847.479    498.461    510.696    498.461
 50.570   1422.718   1444.039    -21.321    498.449   1434.704    498.449    507.955    498.449
 50.670   1018.000   1100.838    -82.838    498.438   1093.247    498.438    506.160    498.438
 50.770    810.903    866.313    -55.409    498.428    859.894    498.428    504.938    498.428
 50.870    751.892    730.939     20.953    498.420    725.362    498.420    504.058    498.420
 50.970    659.415    663.574     -4.158    498.412    658.641    498.412    503.390    498.412
 51.070    628.000    632.066     -4.066    498.406    627.647    498.406    502.863    498.406
 51.170    624.000    613.790     10.210    498.401    609.790    498.401    502.435    498.401
 51.270    618.000    597.828     20.172    498.397    594.172    498.397    502.082    498.397
 51.370    590.000    581.807      8.193    498.395    578.437    498.395    501.787    498.395
 51.470    524.117    566.923    -42.806    498.393    563.792    498.393    501.541    498.393
 51.570    587.000    554.641     32.359    498.393    551.713    498.393    501.333    498.393
 51.670    521.000    545.613    -24.613    498.394    542.857    498.394    501.158    498.394
 51.770    556.000    539.667     16.333    498.396    537.059    498.396    501.009    498.396
 51.870    581.339    536.171     45.169    498.399    533.689    498.399    500.884    498.399
 51.970    521.605    534.420    -12.815    498.404    532.047    498.404    500.779    498.404
 52.070    534.339    533.880      0.459    498.409    531.600    498.409    500.691    498.409
 52.170    494.049    534.259    -40.210    498.416    532.058    498.416    500.618    498.416
 52.270    547.000    535.506     11.494    498.424    533.372    498.424    500.559    498.424
 52.370    562.000    537.832     24.168    498.433    535.756    498.433    500.511    498.433
 52.470    498.074    541.871    -43.797    498.443    539.841    498.443    500.473    498.443
 52.570    600.000    549.030     50.970    498.455    547.039    498.455    500.446    498.455
 52.670    578.000    562.050     15.950    498.467    560.090    498.467    500.427    498.467
 52.770    577.000    585.552     -8.552    498.480    583.614    498.480    500.416    498.480
 52.870    656.421    626.022     30.399    498.495    624.100    498.495    500.412    498.495
 52.970    723.300    690.496     32.804    498.511    688.585    498.511    500.416    498.511
 53.070    771.699    783.458    -11.758    498.528    781.551    498.528    500.426    498.528
 53.170    910.000    902.439      7.561    498.545    900.534    498.545    500.442    498.545
 53.270   1017.337   1033.818    -16.481    498.564   1031.912    498.564    500.465    498.564
 53.370   1148.000   1150.888     -2.888    498.584   1148.982    498.584    500.494    498.584
 53.470   1223.000   1218.673      4.327    498.605   1216.766    498.605    500.528    498.605
 53.570   1227.000   1211.489     15.511    498.627   1209.577    498.627    500.568    498.627
 53.670   1046.000   1132.579    -86.579    498.651   1130.652    498.651    500.613    498.651
 53.770   1011.593   1011.070      0.523    498.675   1009.117    498.675    500.664    498.675
 53.870    862.000    881.081    -19.081    498.700    879.092    498.700    500.721    498.700
 53.970    760.000    766.907     -6.907    498.726    764.874    498.726    500.784    498.726
 54.070    649.890    679.869    -29.980    498.753    677.788    498.753    500.852    498.753
 54.170    616.605    620.828     -4.223    498.782    618.694    498.782    500.927    498.782
 54.270    566.000    584.553    -18.553    498.811    582.363    498.811    501.008    498.811
 54.370    569.000    563.962      5.038    498.841    561.712    498.841    501.095    498.841
 54.470    564.000    552.878     11.122    498.872    550.564    498.872    501.189    498.872
 54.570    516.551    547.059    -30.508    498.905    544.675    498.905    501.290    498.905
 54.670    584.000    544.047     39.953    498.938    541.587    498.938    501.398    498.938
 54.770    576.589    542.598     33.991    498.972    540.056    498.972    501.515    498.972
 54.870    610.000    542.145     67.855    499.007    539.513    499.007    501.640    499.007
 54.970    574.574    542.450     32.124    499.043    539.719    499.043    501.774    499.043
 55.070    579.000    543.426     35.574    499.080    540.588    499.080    501.919    499.080
 55.170    584.243    545.061     39.182    499.118    542.106    499.118    502.073    499.118
 55.270    567.000    547.396     19.604    499.157    544.313    499.157    502.240    499.157
 55.370    591.000    550.516     40.484    499.196    547.294    499.196    502.419    499.196
 55.470    533.000    554.586    -21.586    499.237    551.211    499.237    502.612    499.237
 55.570    549.936    559.917     -9.981    499.278    556.375    499.278    502.820    499.278
 55.670    585.157    567.155     18.002    499.321    563.430    499.321    503.046    499.321
 55.770    605.789    577.711     28.079    499.364    573.784    499.364    503.290    499.364
 55.870    605.000    594.584     10.416    499.408    590.435    499.408    503.555    499.408
 55.970    599.000    623.695    -24.695    499.453    619.298    499.453    503.843    499.453
 56.070    646.000    675.444    -29.444    499.499    670.772    499.499    504.158    499.499
 56.170    725.000    765.566    -40.566    499.546    760.585    499.546    504.504    499.546
 56.270    893.000    913.550    -20.550    499.594    908.222    499.594    504.883    499.594
 56.370   1040.000   1136.938    -96.938    499.642   1131.223    499.642    505.301    499.642
 56.470   1432.000   1441.395     -9.395    499.691   1435.253    499.691    505.765    499.691
 56.570   1834.517   1809.274     25.243    499.741   1802.667    499.741    506.280    499.741
 56.670   2164.000   2191.313    -27.313    499.792   2184.206    499.792    506.855    499.792
 56.770   2470.481   2506.927    -36.446    499.844   2499.280    499.844    507.501    499.844
 56.870   2570.140   2663.894    -93.754    499.896   2655.652    499.896    508.231    499.896
 56.970   2700.827   2606.848     93.979    499.950   2597.917    499.950    509.059    499.950
 57.070   2424.000   2358.389     65.611    500.004   2348.620    500.004    510.006    500.004
 57.170   2095.000   2000.106     94.894    500.058   1989.314    500.058    511.096    500.058
 57.270   1640.808   1621.370     19.439    500.114   1609.339    500.114    512.365    500.114
 57.370   1314.000   1286.893     27.107    500.170   1273.375    500.170    513.864    500.170
 57.470   1061.000   1028.730     32.270    500.227   1013.413    500.227    515.670    500.227
 57.570    864.028    851.217     12.811    500.285    833.667    500.285    517.917    500.285
 57.670    766.000    741.655     24.345    500.343    721.213    500.343    520.833    500.343
 57.770    732.025    681.608     50.418    500.403    657.223    500.403    524.813    500.403
 57.870    701.000    654.992     46.008    500.462    624.962    500.462    530.503    500.462
 57.970    640.000    651.766    -11.766    500.523    613.389    500.523    538.900    500.523
 58.070    675.000    668.188      6.812    500.584    617.363    500.584    551.399    500.584
 58.170    688.000    705.188    -17.188    500.646    636.078    500.646    569.734    500.646
 58.270    732.000    765.929    -33.929    500.709    670.873    500.709    595.731    500.709
 58.370    819.000    853.193    -34.193    500.772    723.075    500.772    630.843    500.772
 58.470    960.000    966.731     -6.731    500.836    792.013    500.836    675.495    500.836
 58.570   1122.874   1101.189     21.685    500.901    873.695    500.901    728.330    500.901
 58.670   1251.000   1245.021      5.979    500.966    960.514    500.966    785.408    500.966
 58.770   1344.000   1381.462    -37.462    501.032   1042.994    501.032    839.444    501.032
 58.870   1511.000   1491.558     19.442    501.098   1112.790    501.098    879.825    501.098
 58.970   1492.538   1557.635    -65.096    501.165   1163.269    501.165    895.509    501.165
 59.070   1666.000   1567.924     98.076    501.233   1187.793    501.233    881.364    501.233
 59.170   1674.000   1522.673    151.327    501.301   1181.877    501.301    842.116    501.301
 59.270   1490.000   1436.226     53.774    501.370   1148.959    501.370    788.660    501.370
 59.370   1365.000   1331.400     33.600    501.439   1101.150    501.439    731.704    501.439
 59.470   1296.000   1230.854     65.146    501.509   1053.651    501.509    678.703    501.509
 59.570   1167.000   1153.076     13.924    501.580   1020.865    501.580    633.748    501.580
 59.670   1141.000   1113.218     27.782    501.651   1016.474    501.651    598.308    501.651
 59.770   1106.391   1122.487    -16.096    501.722   1052.039    501.722    572.031    501.722
 59.870   1167.000   1183.546    -16.546    501.794   1131.644    501.794    553.500    501.794
 59.970   1218.855   1285.918    -67.062    501.867   1246.636    501.867    540.897    501.867
 60.070   1492.000   1404.675     87.325    501.940   1373.844    501.940    532.479    501.940
 60.170   1550.000   1503.271     46.729    502.014   1478.149    502.014    526.831    502.014
 60.270   1635.000   1543.167     91.833    502.088   1522.033    502.088    522.939    502.088
 60.370   1519.000   1501.961     17.039    502.162   1483.753    502.162    520.143    502.162
 60.470   1382.000   1386.967     -4.967    502.237   1371.004    502.237    518.040    502.237
 60.570   1200.996   1228.021    -27.025    502.313   1213.836    502.313    516.398    502.313
 60.670   1044.000   1059.474    -15.474    502.389   1046.720    502.389    515.090    502.389
 60.770    879.237    907.949    -28.712    502.465    896.348    502.465    514.043    502.465
 60.870    744.477    788.225    -43.747    502.542    777.537    502.542    513.221    502.542
 60.970    680.595    704.160    -23.565    502.619    694.166    502.619    512.607    502.619
 61.070    596.000    652.431    -56.431    502.697    642.922    502.697    512.199    502.697
 61.170    597.708    627.170    -29.462    502.775    617.938    502.775    511.995    502.775
 61.270    621.000    623.779     -2.779    502.853    614.618    502.853    511.994    502.853
 61.370    649.000    640.997      8.003    502.932    631.712    502.932    512.184    502.932
 61.470    652.000    681.043    -29.043    503.011    671.473    503.011    512.531    503.011
 61.570    776.637    748.039     28.598    503.091    738.081    503.091    512.975    503.091
 61.670    817.877    845.047    -27.170    503.171    834.697    503.171    513.416    503.171
 61.770    939.000    970.411    -31.411    503.251    959.803    503.251    513.721    503.251
 61.870   1092.151   1114.517    -22.366    503.332   1103.928    503.332    513.753    503.332
 61.970   1142.000   1258.170   -116.170    503.413   1247.960    503.413    513.435    503.413
 62.070   1312.000   1373.855    -61.855    503.494   1364.359    503.494    512.802    503.494
 62.170   1372.542   1432.308    -59.766    503.576   1423.749    503.576    511.971    503.576
 62.270   1431.000   1415.779     15.221    503.657   1408.242    503.657    511.073    503.657
 62.370   1394.342   1329.166     65.175    503.740   1322.620    503.740    510.210    503.740
 62.470   1159.969   1196.522    -36.553    503.822   1190.863    503.822    509.446    503.822
 62.570    996.494   1047.513    -51.019    503.905   1042.598    503.905    508.811    503.905
 62.670    929.000    906.687     22.313    503.988    902.370    503.988    508.311    503.988
 62.770    784.449    789.228     -4.779    504.071    785.377    504.071    507.933    504.071
 62.870    721.000    700.905     20.095    504.154    697.410    504.154    507.659    504.154
 62.970    640.000    640.294     -0.294    504.238    637.074    504.238    507.465    504.238
 63.070    642.045    601.981     40.064    504.322    598.976    504.322    507.329    504.322
 63.170    576.000    579.520     -3.520    504.406    576.687    504.406    507.238    504.406
 63.270    575.000    567.361      7.639    504.490    564.672    504.490    507.176    504.490
 63.370    549.000    561.688    -12.688    504.575    559.121    504.575    507.136    504.575
 63.470    514.959    560.482    -45.523    504.660    558.023    504.660    507.111    504.660
 63.570    585.000    563.282     21.718    504.745    560.918    504.745    507.098    504.745
 63.670    614.954    570.904     44.050    504.830    568.624    504.830    507.095    504.830
 63.770    614.000    585.181     28.819    504.915    582.975    504.915    507.101    504.915
 63.870    625.000    608.603     16.397    505.000    606.460    505.000    507.113    505.000
 63.970    618.000    643.706    -25.706    505.086    641.615    505.086    507.131    505.086
 64.070    727.000    692.142     34.858    505.171    690.095    505.171    507.155    505.171
 64.170    701.407    753.550    -52.143    505.257    751.539    505.257    507.184    505.257
 64.270    819.000    824.476     -5.476    505.343    822.496    505.343    507.217    505.343
 64.370    917.000    897.686     19.314    505.429    895.736    505.429    507.255    505.429
 64.470   1010.000    962.404     47.596    505.515    960.489    505.515    507.296    505.515
 64.570   1033.000   1006.581     26.419    505.601   1004.708    505.601    507.341    505.601
 64.670   1012.000   1021.595     -9.595    505.687   1019.774    505.687    507.389    505.687
 64.770    991.786   1006.111    -14.325    505.773   1004.349    505.773    507.440    505.773
 64.870    976.658    965.621     11.037    505.860    963.921    505.860    507.495    505.860
 64.970    864.324    909.466    -45.141    505.946    907.823    505.946    507.551    505.946
 65.070    863.425    847.748     15.677    506.032    846.157    506.032    507.610    506.032
 65.170    787.000    788.578     -1.578    506.119    787.032    506.119    507.672    506.119
 65.270    763.000    736.541     26.459    506.205    735.030    506.205    507.735    506.205
 65.370    655.000    692.978    -37.978    506.291    691.493    506.291    507.801    506.291
 65.470    632.000    657.438    -25.438    506.378    655.972    506.378    507.869    506.378
 65.570    603.000    629.011    -26.011    506.464    627.559    506.464    507.939    506.464
 65.670    588.000    606.789    -18.789    506.550    605.347    506.550    508.010    506.550
 65.770    618.000    589.886     28.114    506.637    588.451    506.637    508.083    506.637
 65.870    550.904    577.452    -26.549    506.723    576.024    506.723    508.158    506.723
 65.970    613.000    568.725     44.275    506.809    567.302    506.809    508.235    506.809
 66.070    527.000    563.029    -36.029    506.895    561.612    506.895    508.313    506.895
 66.170    586.000    559.780     26.220    506.981    558.368    506.981    508.393    506.981
 66.270    564.000    558.491      5.509    507.067    557.083    507.067    508.474    507.067
 66.370    583.699    558.796     24.904    507.153    557.391    507.153    508.557    507.153
 66.470    574.000    560.495     13.505    507.239    559.092    507.239    508.641    507.239
 66.570    581.000    563.613     17.387    507.324    562.211    507.324    508.727    507.324
 66.670    580.000    568.507     11.493    507.410    567.103    507.410    508.814    507.410
 66.770    545.000    576.068    -31.068    507.495    574.660    507.495    508.903    507.495
 66.870    616.506    588.063     28.443    507.581    586.649    507.581    508.994    507.581
 66.970    621.000    607.613     13.387    507.666    606.191    507.666    509.086    507.666
 67.070    624.000    639.719    -15.719    507.751    638.286    507.751    509.179    507.751
 67.170    680.000    691.593    -11.593    507.835    690.144    507.835    509.274    507.835
 67.270    719.000    772.399    -53.399    507.920    770.933    507.920    509.371    507.920
 67.370    893.000    891.979      1.021    508.004    890.493    508.004    509.470    508.004
 67.470   1067.000   1058.281      8.719    508.088   1056.775    508.088    509.570    508.088
 67.570   1256.000   1273.748    -17.748    508.172   1272.229    508.172    509.672    508.172
 67.670   1510.000   1531.456    -21.456    508.256   1529.931    508.256    509.776    508.256
 67.770   1790.569   1812.159    -21.590    508.340   1810.640    508.340    509.882    508.340
 67.870   2094.389   2083.367     11.022    508.423   2081.870    508.423    509.991    508.423
 67.970   2298.000   2301.929     -3.929    508.506   2300.467    508.506    510.102    508.506
 68.070   2387.000   2423.143    -36.143    508.589   2421.722    508.589    510.215    508.589
 68.170   2471.000   2417.705     53.295    508.671   2416.315    508.671    510.331    508.671
 68.270   2318.254   2287.108     31.146    508.754   2285.722    508.754    510.449    508.754
 68.370   2027.000   2062.714    -35.714    508.836   2061.296    508.836    510.571    508.836
 68.470   1863.060   1789.589     73.471    508.917   1788.108    508.917    510.696    508.917
 68.570   1560.000   1510.175     49.825    508.999   1508.605    508.999    510.825    508.999
 68.670   1193.744   1255.868    -62.124    509.080   1254.197    509.080    510.957    509.080
 68.770    989.000   1044.803    -55.803    509.161   1043.026    509.161    511.094    509.161
 68.870    912.929    882.984     29.944    509.241    881.102    509.241    511.236    509.241
 68.970    751.000    767.358    -16.358    509.321    765.373    509.321    511.382    509.321
 69.070    737.828    689.695     48.133    509.401    687.611    509.401    511.534    509.401
 69.170    710.000    640.138     69.862    509.480    637.957    509.480    511.693    509.480
 69.270    647.000    609.653     37.347    509.559    607.375    509.559    511.858    509.559
 69.370    620.000    591.209     28.791    509.638    588.829    509.638    512.031    509.638
 69.470    593.000    579.960     13.040    509.716    577.472    509.716    512.212    509.716
 69.570    606.000    572.885     33.115    509.794    570.282    509.794    512.403    509.794
 69.670    577.000    568.249      8.751    509.871    565.520    509.871    512.605    509.871
 69.770    607.000    565.119     41.881    509.949    562.252    509.949    512.818    509.949
 69.870    581.766    563.018     18.748    510.025    560.000    510.025    513.045    510.025
 69.970    590.000    561.709     28.291    510.101    558.524    510.101    513.288    510.101
 70.070    606.533    561.085     45.448    510.177    557.715    510.177    513.548    510.177
 70.170    602.247    561.112     41.136    510.252    557.536    510.252    513.827    510.252
 70.270    551.000    561.818    -10.818    510.327    558.014    510.327    514.130    510.327
 70.370    602.718    563.316     39.402    510.402    559.257    510.402    514.459    510.402
 70.470    582.000    565.854     16.146    510.476    561.508    510.476    514.818    510.476
 70.570    574.234    569.922      4.312    510.549    565.253    510.549    515.213    510.549
 70.670    558.045    576.411    -18.366    510.622    571.375    510.622    515.650    510.622
 70.770    584.548    586.859     -2.311    510.694    581.405    510.694    516.136    510.694
 70.870    577.000    603.710    -26.710    510.766    597.774    510.766    516.684    510.766
 70.970    603.000    630.547    -27.547    510.838    624.047    510.838    517.309    510.838
 71.070    655.828    672.133    -16.305    510.909    664.963    510.909    518.036    510.909
 71.170    701.870    734.068    -32.198    510.979    726.081    510.979    518.904    510.979
 71.270    803.000    821.897    -18.897    511.049    812.876    511.049    519.981    511.049
 71.370    950.000    939.623     10.377    511.118    929.245    511.118    521.377    511.118
 71.470   1086.602   1087.830     -1.228    511.187   1075.594    511.187    523.272    511.187
 71.570   1293.000   1261.827     31.173    511.255   1246.956    511.255    525.944    511.255
 71.670   1415.000   1450.328    -35.328    511.323   1431.644    511.323    529.799    511.323
 71.770   1640.000   1635.136      4.864    511.390   1610.911    511.390    535.393    511.390
 71.870   1824.000   1792.408     31.592    511.456   1760.223    511.456    543.421    511.456
 71.970   1910.000   1896.791     13.209    511.522   1853.449    511.522    554.664    511.522
 72.070   1908.825   1929.428    -20.603    511.587   1870.981    511.587    569.871    511.587
 72.170   1937.000   1886.736     50.264    511.652   1808.684    511.652    589.582    511.652
 72.270   1810.525   1782.499     28.026    511.715   1680.226    511.715    613.904    511.715
 72.370   1616.000   1640.779    -24.779    511.779   1510.213    511.779    642.291    511.779
 72.470   1517.668   1486.256     31.412    511.841   1324.728    511.841    673.337    511.841
 72.570   1332.000   1338.089     -6.089    511.903   1145.327    511.903    704.647    511.903
 72.670   1197.000   1207.610    -10.610    511.965    986.752    511.965    732.810    511.965
 72.770   1106.000   1098.424      7.576    512.025    856.724    512.025    753.714    512.025
 72.870    972.570   1008.352    -35.781    512.085    756.924    512.085    763.503    512.085
 72.970    948.573    932.685     15.889    512.145    684.708    512.145    760.111    512.145
 73.070    785.000    867.197    -82.197    512.203    635.076    512.203    744.315    512.203
 73.170    714.000    809.419    -95.419    512.261    602.373    512.261    719.298    512.261
 73.270    728.000    758.345    -30.345    512.318    581.465    512.318    689.192    512.318
 73.370    758.066    713.738     44.328    512.375    568.308    512.375    657.800    512.375
 73.470    564.000    675.651   -111.651    512.431    560.060    512.431    628.019    512.431
 73.570    642.000    644.150     -2.150    512.486    554.910    512.486    601.725    512.486
 73.670    601.000    619.130    -18.130    512.540    551.808    512.540    579.863    512.540
 73.770    638.000    600.218     37.782    512.593    550.197    512.593    562.619    512.593
 73.870    559.444    586.775    -27.331    512.646    549.795    512.646    549.635    512.646
 73.970    596.000    577.966     18.034    512.698    550.436    512.698    540.242    512.698
 74.070    546.758    572.850    -26.093    512.749    551.960    512.749    533.657    512.749
 74.170    613.000    570.458     42.542    512.800    554.146    512.800    529.136    512.800
 74.270    554.000    569.842    -15.842    512.850    556.670    512.850    526.052    512.850
 74.370    540.833    570.095    -29.262    512.898    559.103    512.898    523.927    512.898
 74.470    527.062    570.378    -43.316    512.947    560.943    512.947    522.423    512.947
 74.570    627.000    569.986     57.014    512.994    561.707    512.994    521.317    512.994
 74.670    610.861    568.475     42.386    513.040    561.092    513.040    520.468    513.040
 74.770    641.000    565.772     75.228    513.086    559.111    513.086    519.789    513.086
 74.870    611.000    562.153     48.847    513.131    556.093    513.131    519.229    513.131
 74.970    625.000    558.102     66.898    513.175    552.552    513.175    518.757    513.175
 75.070    585.000    554.159     30.841    513.218    549.051    513.218    518.352    513.218
 75.170    591.571    550.848     40.723    513.260    546.126    513.260    518.002    513.260
 75.270    606.000    548.661     57.339    513.301    544.279    513.301    517.697    513.301
 75.370    567.000    548.079     18.921    513.342    543.997    513.342    517.431    513.342
 75.470    545.631    549.597     -3.967    513.382    545.784    513.382    517.196    513.382
 75.570    578.000    553.742     24.258    513.420    550.168    513.420    516.989    513.420
 75.670    569.000    561.039      7.961    513.458    557.680    513.458    516.807    513.458
 75.770    529.623    571.938    -42.315    513.495    568.771    513.495    516.645    513.495
 75.870    547.000    586.669    -39.669    513.531    583.675    513.531    516.501    513.531
 75.970    597.000    605.077     -8.077    513.567    602.236    513.567    516.373    513.567
 76.070    619.000    626.448     -7.448    513.601    623.748    513.601    516.258    513.601
 76.170    662.000    649.408     12.592    513.634    646.834    513.634    516.156    513.634
 76.270    696.000    671.887     24.113    513.667    669.429    513.667    516.064    513.667
 76.370    693.000    691.224      1.776    513.698    688.875    513.698    515.982    513.698
 76.470    723.000    704.509     18.491    513.729    702.264    513.729    515.908    513.729
 76.570    748.106    709.302     38.804    513.758    707.155    513.758    515.841    513.758
 76.670    679.847    704.584    -24.738    513.787    702.532    513.787    515.780    513.787
 76.770    722.524    691.252     31.272    513.815    689.291    513.815    515.726    513.815
 76.870    663.000    671.672     -8.672    513.841    669.796    513.841    515.676    513.841
 76.970    693.465    648.732     44.733    513.867    646.936    513.867    515.632    513.867
 77.070    600.000    625.101    -25.101    513.892    623.379    513.892    515.591    513.892
 77.170    597.000    602.861     -5.861    513.916    601.207    513.916    515.554    513.916
 77.270    568.000    583.389    -15.389    513.938    581.797    513.938    515.519    513.938
 77.370    525.783    567.372    -41.589    513.960    565.837    513.960    515.488    513.960
 77.470    530.000    554.915    -24.915    513.981    553.432    513.981    515.460    513.981
 77.570    534.000    545.701    -11.701    514.001    544.266    514.001    515.433    514.001
 77.670    573.394    539.182     34.211    514.019    537.791    514.019    515.409    514.019
 77.770    527.000    534.737     -7.737    514.037    533.386    514.037    515.386    514.037
 77.870    572.057    531.786     40.271    514.054    530.473    514.054    515.365    514.054
 77.970    522.000    529.851     -7.851    514.070    528.575    514.070    515.345    514.070
 78.070    481.000    528.564    -47.564    514.084    527.321    514.084    515.326    514.084
 78.170    521.567    527.693     -6.126    514.098    526.480    514.098    515.309    514.098
 78.270    503.000    527.113    -24.113    514.110    525.930    514.110    515.292    514.110
 78.370    562.796    526.710     36.086    514.122    525.555    514.122    515.277    514.122
 78.470    474.000    526.436    -52.436    514.132    525.306    514.132    515.262    514.132
 78.570    478.000    526.266    -48.266    514.142    525.160    514.142    515.247    514.142
 78.670    483.520    526.197    -42.677    514.150    525.112    514.150    515.234    514.150
 78.770    509.000    526.235    -17.235    514.157    525.170    514.157    515.221    514.157
 78.870    546.000    526.400     19.600    514.163    525.353    514.163    515.209    514.163
 78.970    516.000    526.716    -10.716    514.168    525.685    514.168    515.198    514.168
 79.070    561.171    527.215     33.956    514.172    526.197    514.172    515.189    514.172
 79.170    525.000    527.929     -2.929    514.175    526.920    514.175    515.182    514.175
 79.270    550.000    528.888     21.112    514.177    527.885    514.177    515.177    514.177
 79.370    550.000    530.122     19.878    514.177    529.120    514.177    515.177    514.177
 79.470    512.000    531.656    -19.656    514.177    530.649    514.177    515.181    514.177
 79.570    541.000    533.523      7.477    514.175    532.503    514.175    515.192    514.175
 79.670    512.000    535.771    -23.771    514.173    534.729    514.173    515.210    514.173
 79.770    509.000    538.482    -29.482    514.169    537.409    514.169    515.237    514.169
 79.870    554.505    541.797     12.708    514.164    540.682    514.164    515.273    514.164
 79.970    564.000    545.939     18.061    514.158    544.772    514.158    515.319    514.158
 80.070    523.345    551.243    -27.898    514.150    550.016    514.150    515.373    514.150
 80.170    562.000    558.154      3.846    514.142    556.860    514.142    515.432    514.142
 80.270    622.000    567.179     54.821    514.132    565.815    514.132    515.495    514.132
 80.370    555.000    578.785    -23.785    514.122    577.354    514.122    515.554    514.122
 80.470    618.000    593.275     24.725    514.110    591.786    514.110    515.603    514.110
 80.570    623.953    610.678     13.275    514.097    609.149    514.097    515.635    514.097
 80.670    593.000    630.659    -37.659    514.083    629.114    514.083    515.641    514.083
 80.770    623.000    652.472    -29.472    514.067    650.940    514.067    515.618    514.067
 80.870    666.000    674.987     -8.987    514.051    673.497    514.051    515.565    514.051
 80.970    678.753    696.806    -18.053    514.033    695.383    514.033    515.487    514.033
 81.070    753.000    716.469     36.531    514.014    715.130    514.014    515.391    514.014
 81.170    715.000    732.648    -17.648    513.994    731.402    513.994    515.284    513.994
 81.270    716.000    744.267    -28.267    513.973    743.116    513.973    515.175    513.973
 81.370    746.000    750.589     -4.589    513.950    749.529    513.950    515.067    513.950
 81.470    712.511    751.304    -38.794    513.927    750.328    513.927    514.964    513.927
 81.570    705.503    746.542    -41.038    513.902    745.638    513.902    514.870    513.902
 81.670    733.594    736.817     -3.223    513.876    735.975    513.876    514.785    513.876
 81.770    718.000    723.004     -5.004    513.848    722.212    513.848    514.708    513.848
 81.870    763.000    706.297     56.703    513.820    705.544    513.820    514.640    513.820
 81.970    716.000    688.045     27.955    513.790    687.321    513.790    514.579    513.790
 82.070    647.834    669.470    -21.635    513.759    668.768    513.759    514.523    513.759
 82.170    676.000    651.443     24.557    513.727    650.757    513.727    514.472    513.727
 82.270    665.000    634.440     30.560    513.694    633.764    513.694    514.424    513.694
 82.370    661.939    618.650     43.290    513.659    617.981    513.659    514.378    513.659
 82.470    608.000    604.157      3.843    513.624    603.493    513.624    514.333    513.624
 82.570    580.000    591.074    -11.074    513.587    590.411    513.587    514.288    513.587
 82.670    569.000    579.564    -10.564    513.548    578.901    513.548    514.244    513.548
 82.770    545.000    569.805    -24.805    513.509    569.140    513.509    514.200    513.509
 82.870    532.000    561.956    -29.956    513.468    561.288    513.468    514.155    513.468
 82.970    559.000    556.137      2.863    513.426    555.466    513.426    514.109    513.426
 83.070    533.000    552.416    -19.416    513.383    551.740    513.383    514.062    513.383
 83.170    577.000    550.786     26.214    513.339    550.106    513.339    514.015    513.339
 83.270    543.713    551.151     -7.438    513.293    550.466    513.293    513.967    513.293
 83.370    539.000    553.298    -14.298    513.246    552.608    513.246    513.918    513.246
 83.470    484.000    556.894    -72.894    513.198    556.198    513.198    513.869    513.198
 83.570    546.549    561.479    -14.930    513.148    560.777    513.148    513.818    513.148
 83.670    589.963    566.481     23.482    513.098    565.775    513.098    513.766    513.098
 83.770    529.719    571.246    -41.527    513.046    570.536    513.046    513.713    513.046
 83.870    528.008    575.088    -47.080    512.992    574.374    512.992    513.660    512.992
 83.970    573.955    577.377     -3.423    512.938    576.663    512.938    513.605    512.938
 84.070    531.000    577.675    -46.675    512.882    576.961    512.882    513.550    512.882
 84.170    588.000    575.847     12.153    512.825    575.136    512.825    513.493    512.825
 84.270    629.000    572.103     56.897    512.767    571.395    512.767    513.435    512.767
 84.370    560.000    566.906     -6.906    512.708    566.202    512.708    513.377    512.708
 84.470    530.000    560.831    -30.831    512.647    560.131    512.647    513.317    512.647
 84.570    562.067    554.443      7.624    512.585    553.748    512.585    513.256    512.585
 84.670    524.096    548.225    -24.129    512.521    547.533    512.521    513.195    512.521
 84.770    517.000    542.540    -25.540    512.457    541.850    512.457    513.132    512.457
 84.870    519.000    537.619    -18.619    512.391    536.930    512.391    513.068    512.391
 84.970    575.000    533.570     41.430    512.324    532.881    512.324    513.003    512.324
 85.070    545.000    530.397     14.603    512.255    529.708    512.255    512.938    512.255
 85.170    522.000    528.033     -6.033    512.186    527.343    512.186    512.871    512.186
 85.270    517.000    526.369     -9.369    512.115    525.676    512.115    512.803    512.115
 85.370    566.651    525.283     41.368    512.043    524.587    512.043    512.734    512.043
 85.470    501.580    524.667    -23.087    511.969    523.968    511.969    512.664    511.969
 85.570    545.000    524.439     20.561    511.894    523.735    511.894    512.593    511.894
 85.670    523.000    524.553     -1.553    511.818    523.845    511.818    512.521    511.818
 85.770    530.000    525.005      4.995    511.741    524.292    511.741    512.448    511.741
 85.870    510.000    525.835    -15.835    511.663    525.116    511.663    512.374    511.663
 85.970    496.167    527.127    -30.960    511.583    526.401    511.583    512.300    511.583
 86.070    471.000    529.008    -58.008    511.502    528.274    511.502    512.224    511.502
 86.170    584.000    531.643     52.357    511.419    530.900    511.419    512.147    511.419
 86.270    542.000    535.222      6.778    511.336    534.468    511.336    512.069    511.336
 86.370    580.162    539.939     40.223    511.251    539.173    511.251    511.990    511.251
 86.470    562.676    545.967     16.709    511.164    545.187    511.164    511.910    511.164
 86.570    545.886    553.417     -7.530    511.077    552.622    511.077    511.829    511.077
 86.670    584.000    562.297     21.703    510.988    561.485    510.988    511.747    510.988
 86.770    536.628    572.471    -35.843    510.898    571.639    510.898    511.664    510.898
 86.870    647.000    583.610     63.390    510.807    582.759    510.807    511.581    510.807
 86.970    598.322    595.221      3.101    510.715    594.349    510.715    511.497    510.715
 87.070    626.000    606.606     19.394    510.621    605.713    510.621    511.411    510.621
 87.170    660.000    616.893     43.107    510.526    615.983    510.526    511.326    510.526
 87.270    610.000    625.138    -15.138    510.429    624.212    510.429    511.239    510.429
 87.370    635.737    630.462      5.274    510.332    629.525    510.332    511.151    510.332
 87.470    657.000    632.258     24.742    510.233    631.312    510.233    511.063    510.233
 87.570    641.615    630.366     11.249    510.133    629.416    510.133    510.974    510.133
 87.670    614.000    625.124    -11.124    510.031    624.174    510.031    510.885    510.031
 87.770    589.072    617.262    -28.190    509.929    616.312    509.929    510.794    509.929
 87.870    649.487    607.718     41.769    509.825    606.768    509.825    510.703    509.825
 87.970    618.000    597.482     20.518    509.720    596.533    509.720    510.612    509.720
 88.070    647.000    587.493     59.507    509.614    586.543    509.614    510.520    509.614
 88.170    583.000    578.562      4.438    509.506    577.608    509.506    510.427    509.506
 88.270    610.000    571.326     38.674    509.397    570.368    509.397    510.334    509.397
 88.370    528.448    566.227    -37.779    509.287    565.262    509.287    510.241    509.287
 88.470    582.000    563.498     18.502    509.176    562.524    509.176    510.147    509.176
 88.570    536.282    563.171    -26.889    509.063    562.186    509.063    510.053    509.063
 88.670    577.000    565.089     11.911    508.949    564.092    508.949    509.959    508.949
 88.770    608.000    568.925     39.075    508.834    567.916    508.834    509.864    508.834
 88.870    557.236    574.204    -16.968    508.718    573.181    508.718    509.770    508.718
 88.970    576.000    580.327     -4.327    508.601    579.288    508.601    509.676    508.601
 89.070    598.136    586.600     11.536    508.482    585.544    508.482    509.582    508.482
 89.170    606.705    592.277     14.428    508.362    591.202    508.362    509.488    508.362
 89.270    571.748    596.623    -24.875    508.241    595.526    508.241    509.394    508.241
 89.370    635.000    599.007     35.993    508.119    597.885    508.119    509.301    508.119
 89.470    640.000    599.026     40.974    507.995    597.875    507.995    509.209    507.995
 89.570    643.052    596.596     46.456    507.870    595.411    507.870    509.118    507.870
 89.670    575.000    591.959    -16.959    507.744    590.737    507.744    509.028    507.744
 89.770    528.000    585.603    -57.603    507.617    584.339    507.617    508.939    507.617
 89.870    611.824    578.127     33.697    507.489    576.816    507.489    508.851    507.489
 89.970    543.000    570.136    -27.136    507.359    568.775    507.359    508.766    507.359
 90.070    582.481    562.166     20.316    507.229    560.750    507.229    508.683    507.229
 90.170    585.667    554.647     31.020    507.097    553.174    507.097    508.602    507.097
 90.270    541.000    547.891     -6.891    506.964    546.355    506.964    508.524    506.964
 90.370    513.000    542.082    -29.082    506.830    540.481    506.830    508.450    506.830
 90.470    530.000    537.295     -7.295    506.694    535.626    506.694    508.378    506.694
 90.570    512.520    533.518    -20.998    506.558    531.774    506.558    508.313    506.558
 90.670    505.000    530.674    -25.674    506.420    528.847    506.420    508.255    506.420
 90.770    532.000    528.647      3.353    506.281    526.728    506.281    508.205    506.281
 90.870    502.000    527.313    -25.313    506.141    525.291    506.141    508.165    506.141
 90.970    533.000    526.557      6.443    506.000    524.418    506.000    508.140    506.000
 91.070    568.093    526.288     41.805    505.858    524.012    505.858    508.133    505.858
 91.170    493.890    526.414    -32.524    505.714    523.977    505.714    508.151    505.714
 91.270    526.000    526.991     -0.991    505.570    524.357    505.570    508.203    505.570
 91.370    547.000    528.044     18.956    505.424    525.164    505.424    508.301    505.424
 91.470    528.020    529.644     -1.624    505.277    526.456    505.277    508.461    505.277
 91.570    513.000    531.919    -18.919    505.130    528.337    505.130    508.705    505.130
 91.670    509.479    535.048    -25.568    504.981    530.962    504.981    509.059    504.981
 91.770    546.000    539.251      6.749    504.831    534.518    504.831    509.553    504.831
 91.870    503.000    544.782    -41.782    504.679    539.223    504.679    510.224    504.679
 91.970    587.535    551.909     35.626    504.527    545.306    504.527    511.113    504.527
 92.070    578.000    560.893     17.107    504.374    552.985    504.374    512.260    504.374
 92.170    524.000    571.960    -47.960    504.219    562.448    504.219    513.704    504.219
 92.270    579.000    585.267     -6.267    504.064    573.818    504.064    515.479    504.064
 92.370    576.532    600.872    -24.339    503.908    587.131    503.908    517.608    503.908
 92.470    632.351    618.700     13.651    503.750    602.307    503.750    520.095    503.750
 92.570    627.595    638.521    -10.926    503.591    619.132    503.591    522.925    503.591
 92.670    627.617    659.930    -32.313    503.432    637.245    503.432    526.054    503.432
 92.770    699.000    682.342     16.658    503.271    656.134    503.271    529.410    503.271
 92.870    655.000    705.017    -50.017    503.110    675.168    503.110    532.884    503.110
 92.970    764.006    727.110     36.896    502.947    693.646    502.947    536.331    502.947
 93.070    752.000    747.759      4.241    502.783    710.889    502.783    539.571    502.783
 93.170    767.000    766.235      0.765    502.619    726.379    502.619    542.391    502.619
 93.270    788.000    782.062      5.938    502.453    739.868    502.453    544.564    502.453
 93.370    766.448    795.061    -28.613    502.286    751.387    502.286    545.878    502.286
 93.470    842.000    805.325     36.675    502.119    761.179    502.119    546.184    502.119
 93.570    806.000    813.146     -7.146    501.950    769.586    501.950    545.432    501.950
 93.670    840.188    818.958     21.230    501.780    776.976    501.780    543.687    501.780
 93.770    874.148    823.319     50.829    501.610    783.746    501.610    541.111    501.610
 93.870    870.000    826.912     43.088    501.439    790.361    501.439    537.920    501.439
 93.970    893.000    830.513     62.487    501.266    797.372    501.266    534.340    501.266
 94.070    827.000    834.891     -7.891    501.093    805.336    501.093    530.582    501.093
 94.170    823.485    840.624    -17.139    500.919    814.659    500.919    526.821    500.919
 94.270    882.000    847.926     34.074    500.744    825.412    500.744    523.196    500.744
 94.370    844.000    856.522    -12.522    500.568    837.220    500.568    519.811    500.568
 94.470    809.579    865.628    -56.049    500.391    849.229    500.391    516.735    500.391
 94.570    909.000    874.014     34.986    500.213    860.170    500.213    514.006    500.213
 94.670    928.000    880.143     47.857    500.034    868.496    500.034    511.637    500.034
 94.770    846.000    882.405    -36.405    499.855    872.602    499.855    509.620    499.855
 94.870    938.000    879.416     58.584    499.675    871.129    499.675    507.932    499.675
 94.970    810.766    870.346    -59.580    499.494    863.282    499.494    506.537    499.494
 95.070    909.988    855.142     54.846    499.312    849.046    499.312    505.396    499.312
 95.170    806.964    834.548    -27.584    499.129    829.205    499.129    504.467    499.129
 95.270    829.000    809.939     19.061    498.945    805.172    498.945    503.713    498.945
 95.370    820.024    783.052     36.972    498.761    778.722    498.761    503.096    498.761
 95.470    799.000    755.820     43.180    498.576    751.817    498.576    502.586    498.576
 95.570    765.474    730.125     35.348    498.390    726.364    498.390    502.159    498.390
 95.670    699.878    707.737     -7.859    498.203    704.152    498.203    501.794    498.203
 95.770    708.000    690.254     17.746    498.015    686.796    498.015    501.476    498.015
 95.870    733.000    679.075     53.925    497.827    675.707    497.827    501.193    497.827
 95.970    662.000    675.393    -13.393    497.638    672.086    497.638    500.936    497.638
 96.070    685.000    680.206      4.794    497.449    676.936    497.449    500.701    497.449
 96.170    697.000    694.313      2.687    497.258    691.061    497.258    500.483    497.258
 96.270    705.000    718.308    -13.308    497.067    715.059    497.067    500.278    497.067
 96.370    805.292    752.533     52.760    496.876    749.274    496.876    500.085    496.876
 96.470    761.862    797.008    -35.146    496.683    793.726    496.683    499.903    496.683
 96.570    860.000    851.336      8.664    496.490    848.022    496.490    499.731    496.490
 96.670    863.430    914.585    -51.155    496.296    911.228    496.296    499.568    496.296
 96.770    967.000    985.203    -18.203    496.102    981.796    496.102    499.415    496.102
 96.870   1021.000   1060.954    -39.954    495.907   1057.489    495.907    499.270    495.907
 96.970   1110.689   1138.902    -28.213    495.711   1135.371    495.711    499.134    495.711
 97.070   1230.000   1215.447     14.553    495.515   1211.845    495.515    499.008    495.515
 97.170   1312.000   1286.449     25.551    495.319   1282.770    495.319    498.892    495.319
 97.270   1311.479   1347.477    -35.998    495.121   1343.715    495.121    498.785    495.121
 97.370   1403.279   1394.226      9.053    494.923   1390.376    494.923    498.690    494.923
 97.470   1483.535   1423.124     60.411    494.725   1419.178    494.725    498.606    494.725
 97.570   1388.000   1431.978    -43.978    494.526   1427.925    494.526    498.534    494.526
 97.670   1455.381   1420.420     34.961    494.326   1416.247    494.326    498.476    494.326
 97.770   1429.746   1389.923     39.823    494.126   1385.614    494.126    498.434    494.126
 97.870   1362.470   1343.417     19.053    493.926   1338.951    493.926    498.408    493.926
 97.970   1310.000   1284.702     25.298    493.725   1280.056    493.725    498.403    493.725
 98.070   1221.791   1217.929      3.862    493.524   1213.073    493.524    498.422    493.524
 98.170   1145.000   1147.210     -2.210    493.322   1142.111    493.322    498.470    493.322
 98.270   1044.000   1076.378    -32.378    493.120   1070.996    493.120    498.553    493.120
 98.370    957.339   1008.842    -51.503    492.917   1003.127    492.917    498.682    492.917
 98.470    919.000    947.504    -28.504    492.714    941.394    492.714    498.870    492.714
 98.570    948.953    894.746     54.207    492.510    888.161    492.510    499.135    492.510
 98.670    828.000    852.448    -24.448    492.306    845.285    492.306    499.501    492.306
 98.770    778.345    822.044    -43.699    492.102    814.168    492.102    500.001    492.102
 98.870    829.000    804.593     24.407    491.898    795.828    491.898    500.675    491.898
 98.970    756.000    800.856    -44.856    491.693    790.974    491.693    501.579    491.693
 99.070    785.000    811.355    -26.355    491.488    800.061    491.488    502.776    491.488
 99.170    835.000    836.449     -1.449    491.282    823.370    491.282    504.346    491.282
 99.270    909.863    876.278     33.585    491.076    860.950    491.076    506.383    491.076
 99.370    920.000    930.737    -10.737    490.870    912.590    490.870    508.990    490.870
 99.470   1011.000    999.409     11.591    490.664    977.762    490.664    512.280    490.664
 99.570   1135.000   1081.469     53.531    490.457   1055.524    490.457    516.371    490.457
 99.670   1188.000   1175.578     12.422    490.251   1144.426    490.251    521.374    490.251
 99.770   1220.891   1279.787    -58.896    490.044   1242.420    490.044    527.388    490.044
 99.870   1403.000   1391.467     11.533    489.837   1346.802    489.837    534.488    489.837
 99.970   1537.000   1507.287     29.713    489.629   1454.206    489.629    542.710    489.629
100.070   1565.000   1623.283    -58.283    489.422   1560.679    489.422    552.044    489.422
100.170   1690.464   1735.040    -44.576    489.215   1661.878    489.215    562.417    489.215
100.270   1839.000   1838.023      0.977    489.007   1753.408    489.007    573.686    489.007
100.370   1993.000   1927.972     65.028    488.799   1831.233    488.799    585.629    488.799
100.470   2066.338   2001.250     65.087    488.591   1892.017    488.591    597.941    488.591
100.570   2155.000   2055.009     99.991    488.383   1933.305    488.383    610.228    488.383
100.670   2172.706   2087.183     85.523    488.175   1953.506    488.175    622.014    488.175
100.770   2103.338   2096.455      6.883    487.967   1951.857    487.967    632.746    487.967
100.870   2100.000   2082.374     17.626    487.760   1928.505    487.760    641.822    487.760
100.970   2072.781   2045.623     27.158    487.552   1884.732    487.552    648.646    487.552
101.070   2056.605   1988.296     68.309    487.344   1823.145    487.344    652.701    487.344
101.170   1913.000   1913.926     -0.926    487.136   1747.623    487.136    653.644    487.136
101.270   1767.057   1827.178    -60.121    486.928   1662.927    486.928    651.378    486.928
101.370   1733.000   1733.286     -0.286    486.720   1574.119    486.720    646.075    486.720
101.470   1687.812   1637.439     50.373    486.513   1485.989    486.513    638.137    486.513
101.570   1576.000   1544.279     31.721    486.305   1402.629    486.305    628.114    486.305
101.670   1454.000   1457.561     -3.561    486.098   1327.189    486.098    616.613    486.098
101.770   1389.291   1379.983      9.308    485.891   1261.777    485.891    604.224    485.891
101.870   1278.000   1313.125    -35.125    485.684   1207.440    485.684    591.482    485.684
101.970   1236.000   1257.480    -21.480    485.477   1164.219    485.477    578.839    485.477
102.070   1237.000   1212.546     24.454    485.270   1131.244    485.270    566.663    485.270
102.170   1170.000   1176.962     -6.962    485.064   1106.873    485.064    555.235    485.064
102.270   1183.000   1148.689     34.311    484.858   1088.871    484.858    544.754    484.858
102.370   1086.000   1125.246    -39.246    484.652   1074.634    484.652    535.340    484.652
102.470   1054.000   1103.988    -49.988    484.447   1061.462    484.447    527.047    484.447
102.570   1075.000   1082.430     -7.430    484.242   1046.875    484.242    519.872    484.242
102.670   1047.000   1058.570    -11.570    484.037   1028.920    484.037    513.765    484.037
102.770   1021.385   1031.130     -9.745    483.833   1006.399    483.833    508.642    483.833
102.870    976.248    999.638    -23.390    483.629    978.944    483.629    504.402    483.629
102.970    916.000    964.341    -48.341    483.425    946.917    483.425    500.928    483.425
103.070    867.000    926.011    -59.011    483.222    911.206    483.222    498.104    483.222
103.170    893.000    885.719      7.281    483.019    872.995    483.019    495.816    483.019
103.270    885.113    844.658     40.456    482.817    833.574    482.817    493.970    482.817
103.370    858.000    803.991     54.009    482.616    794.195    482.616    492.474    482.616
103.470    773.000    764.770      8.230    482.414    755.989    482.414    491.253    482.414
103.570    738.791    727.881     10.910    482.214    719.901    482.214    490.244    482.214
103.670    672.000    694.001    -22.001    482.014    686.661    482.014    489.397    482.014
103.770    699.000    663.588     35.412    481.814    656.765    481.814    488.675    481.814
103.870    648.000    636.880     11.120    481.615    630.480    481.615    488.046    481.615
103.970    575.567    613.919    -38.352    481.417    607.873    481.417    487.488    481.417
104.070    636.000    594.574     41.426    481.220    588.838    481.220    486.977    481.220
104.170    619.000    578.604     40.396    481.023    573.126    481.023    486.517    481.023
104.270    584.000    565.680     18.320    480.827    560.426    480.827    486.093    480.827
104.370    575.422    555.418     20.005    480.631    550.361    480.631    485.697    480.631
104.470    588.208    547.428     40.780    480.437    542.547    480.437    485.324    480.437
104.570    526.080    541.340    -15.259    480.243    536.616    480.243    484.971    480.243
104.670    562.000    536.820     25.180    480.050    532.237    480.050    484.635    480.050
104.770    595.000    533.586     61.414    479.857    529.129    479.857    484.315    479.857
104.870    518.000    531.406    -13.406    479.666    527.063    479.666    484.008    479.666
104.970    485.649    530.109    -44.460    479.476    525.868    479.476    483.714    479.476
105.070    526.000    529.576     -3.576    479.286    525.427    479.286    483.431    479.286
105.170    552.287    529.739     22.548    479.097    525.672    479.097    483.159    479.097
105.270    561.525    530.576     30.948    478.910    526.582    478.910    482.897    478.910
105.370    558.000    532.107     25.893    478.723    528.177    478.723    482.644    478.723
105.470    542.000    534.383      7.617    478.537    530.510    478.537    482.400    478.537
105.570    549.969    537.490     12.480    478.353    533.666    478.353    482.164    478.353
105.670    546.000    541.523      4.477    478.169    537.742    478.169    481.936    478.169
105.770    567.609    546.589     21.020    477.986    542.843    477.986    481.716    477.986
105.870    580.735    552.780     27.955    477.805    549.063    477.805    481.502    477.805
105.970    581.000    560.168     20.832    477.625    556.474    477.625    481.296    477.625
106.070    534.167    568.782    -34.615    477.446    565.106    477.446    481.096    477.446
106.170    594.000    578.600     15.400    477.268    574.936    477.268    480.902    477.268
106.270    556.000    589.539    -33.539    477.091    585.882    477.091    480.715    477.091
106.370    583.001    601.446    -18.445    476.916    597.791    476.916    480.534    476.916
106.470    587.900    614.097    -26.196    476.742    610.439    476.742    480.359    476.742
106.570    639.000    627.200     11.800    476.569    623.535    476.569    480.190    476.569
106.670    632.000    640.401     -8.401    476.397    636.726    476.397    480.027    476.397
106.770    614.000    653.298    -39.298    476.227    649.608    476.227    479.870    476.227
106.870    654.000    665.457    -11.457    476.058    661.748    476.058    479.719    476.058
106.970    625.000    676.438    -51.438    475.891    672.708    475.891    479.573    475.891
107.070    667.000    685.840    -18.840    475.725    682.085    475.725    479.433    475.725
107.170    676.000    693.346    -17.346    475.560    689.562    475.560    479.299    475.560
107.270    657.000    698.777    -41.777    475.397    694.962    475.397    479.171    475.397
107.370    664.000    702.133    -38.133    475.236    698.281    475.236    479.049    475.236
107.470    672.000    703.600    -31.600    475.076    699.708    475.076    478.933    475.076
107.570    694.000    703.520     -9.520    474.918    699.584    474.918    478.823    474.918
107.670    662.541    702.339    -39.799    474.761    698.355    474.761    478.720    474.761
107.770    714.881    700.534     14.347    474.606    696.496    474.606    478.622    474.606
107.870    672.000    698.555    -26.555    474.453    694.458    474.453    478.532    474.453
107.970    680.000    696.776    -16.776    474.301    692.615    474.301    478.448    474.301
108.070    678.895    695.467    -16.572    474.151    691.237    474.151    478.371    474.151
108.170    648.000    694.773    -46.773    474.003    690.469    474.003    478.302    474.003
108.270    666.343    694.709    -28.366    473.857    690.325    473.857    478.239    473.857
108.370    719.000    695.154     23.846    473.713    690.683    473.713    478.185    473.713
108.470    714.323    695.866     18.456    473.570    691.303    473.570    478.138    473.570
108.570    641.000    696.502    -55.502    473.429    691.839    473.429    478.100    473.429
108.670    683.000    696.647    -13.647    473.290    691.878    473.290    478.071    473.290
108.770    681.000    695.866    -14.866    473.154    690.983    473.154    478.050    473.154
108.870    695.000    693.756      1.244    473.019    688.753    473.019    478.040    473.019
108.970    710.236    690.014     20.222    472.886    684.880    472.886    478.039    472.886
109.070    636.116    684.476    -48.360    472.755    679.203    472.755    478.048    472.755
109.170    669.938    677.145     -7.206    472.626    671.724    472.626    478.069    472.626
109.270    679.000    668.176     10.824    472.500    662.597    472.500    478.101    472.500
109.370    671.000    657.842     13.158    472.375    652.094    472.375    478.145    472.375
109.470    596.000    646.488    -50.488    472.253    640.561    472.253    478.202    472.253
109.570    627.000    634.492     -7.492    472.133    628.372    472.133    478.274    472.133
109.670    613.000    622.225     -9.225    472.015    615.900    472.015    478.359    472.015
109.770    623.000    610.016     12.984    471.900    603.473    471.900    478.461    471.900
109.870    617.000    598.208     18.792    471.787    591.431    471.787    478.580    471.787
109.970    578.000    587.082     -9.082    471.676    580.055    471.676    478.716    471.676
110.070    583.858    576.829      7.029    471.568    569.535    471.568    478.873    471.568
110.170    532.994    567.601    -34.606    471.462    560.021    471.462    479.051    471.462
110.270    581.000    559.494     21.506    471.358    551.606    471.358    479.253    471.358
110.370    543.000    552.555     -9.555    471.257    544.335    471.257    479.483    471.257
110.470    514.000    546.783    -32.783    471.158    538.202    471.158    479.742    471.158
110.570    568.000    542.140     25.860    471.062    533.168    471.062    480.037    471.062
110.670    538.000    538.562     -0.562    470.969    529.160    470.969    480.371    470.969
110.770    559.000    535.963     23.037    470.878    526.086    470.878    480.754    470.878
110.870    508.449    534.249    -25.800    470.790    523.843    470.790    481.194    470.790
110.970    536.383    533.324      3.059    470.705    522.323    470.705    481.702    470.705
111.070    578.658    533.096     45.562    470.622    521.419    470.622    482.295    470.622
111.170    535.000    533.483      1.517    470.542    521.028    470.542    482.991    470.542
111.270    502.000    534.415    -32.415    470.465    521.059    470.465    483.816    470.465
111.370    561.000    535.843     25.157    470.391    521.428    470.391    484.799    470.391
111.470    518.000    537.731    -19.731    470.320    522.065    470.320    485.978    470.320
111.570    576.000    540.067     35.933    470.251    522.910    470.251    487.400    470.251
111.670    519.000    542.857    -23.857    470.186    523.915    470.186    489.119    470.186
111.770    557.857    546.131     11.726    470.124    525.042    470.124    491.203    470.124
111.870    560.000    549.940     10.060    470.064    526.265    470.064    493.729    470.064
111.970    562.000    554.358      7.642    470.008    527.570    470.008    496.785    470.008
112.070    600.000    559.481     40.519    469.955    528.953    469.955    500.471    469.955
112.170    593.000    565.425     27.575    469.904    530.420    469.904    504.898    469.904
112.270    547.000    572.325    -25.325    469.858    531.986    469.858    510.185    469.858
112.370    582.975    580.329      2.646    469.814    533.675    469.814    516.455    469.814
112.470    568.324    589.594    -21.270    469.773    535.518    469.773    523.837    469.773
112.570    628.000    600.284     27.716    469.736    537.554    469.736    532.453    469.736
112.670    623.273    612.562     10.711    469.703    539.833    469.703    542.417    469.703
112.770    611.000    626.588    -15.588    469.672    542.418    469.672    553.828    469.672
112.870    599.000    642.515    -43.515    469.645    545.386    469.645    566.759    469.645
112.970    683.000    660.488     22.512    469.622    548.841    469.622    581.253    469.622
113.070    692.000    680.643     11.357    469.602    552.916    469.602    597.311    469.602
113.170    731.851    703.111     28.740    469.585    557.787    469.585    614.889    469.585
113.270    728.000    728.022     -0.022    469.572    563.688    469.572    633.884    469.572
113.370    759.000    755.520      3.480    469.563    570.923    469.563    654.135    469.563
113.470    813.000    785.776     27.224    469.557    579.891    469.557    675.414    469.557
113.570    814.000    819.008     -5.008    469.556    591.108    469.556    697.424    469.556
113.670    842.533    855.507    -12.973    469.557    605.231    469.557    719.796    469.557
113.770    947.161    895.659     51.502    469.563    623.089    469.563    742.090    469.563
113.870    952.000    939.984     12.016    469.572    645.711    469.572    763.795    469.572
113.970   1002.059    989.164     12.895    469.586    674.351    469.586    784.339    469.586
114.070   1088.000   1044.080     43.920    469.603    710.512    469.603    803.099    469.603
114.170   1127.380   1105.850     21.530    469.624    755.961    469.624    819.427    469.624
114.270   1177.430   1175.870      1.560    469.649    812.729    469.649    832.687    469.649
114.370   1322.000   1255.850     66.150    469.679    883.098    469.679    842.305    469.679
114.470   1399.836   1347.835     52.001    469.712    969.566    469.712    847.831    469.712
114.570   1458.000   1454.206      3.794    469.749   1074.784    469.749    848.991    469.749
114.670   1581.000   1577.623      3.377    469.791   1201.470    469.791    845.728    469.791
114.770   1683.169   1720.916    -37.746    469.837   1352.289    469.837    838.208    469.837
114.870   1927.789   1886.916     40.873    469.887   1529.705    469.887    826.799    469.887
114.970   2123.000   2078.233     44.767    469.941   1735.808    469.941    812.018    469.941
115.070   2305.606   2297.003      8.603    470.000   1972.124    470.000    794.479    470.000
115.170   2466.000   2544.632    -78.632    470.063   2239.410    470.063    774.828    470.063
115.270   2848.000   2821.552     26.448    470.131   2537.463    470.131    753.707    470.131
115.370   3162.120   3127.015     35.106    470.203   2864.933    470.203    731.715    470.203
115.470   3370.000   3458.916    -88.916    470.279   3219.176    470.279    709.396    470.279
115.570   3758.000   3813.688    -55.688    470.360   3596.151    470.360    687.227    470.360
115.670   4137.000   4186.247    -49.247    470.446   3990.369    470.446    665.611    470.446
115.770   4482.000   4570.003    -88.003    470.537   4394.911    470.537    644.884    470.537
115.870   4852.132   4956.953   -104.821    470.632   4801.513    470.632    625.307    470.632
115.970   5164.000   5337.834   -173.834    470.732   5200.720    470.732    607.076    470.732
116.070   5794.687   5702.367     92.320    470.836   5582.123    470.836    590.321    470.836
116.170   6083.000   6039.581     43.419    470.946   5934.680    470.946    575.115    470.946
116.270   6201.000   6338.251   -137.251    471.060   6247.146    471.060    561.481    471.060
116.370   6467.995   6587.465   -119.470    471.179   6508.629    471.179    549.394    471.179
116.470   6833.000   6777.315     55.685    471.304   6709.282    471.304    538.797    471.304
116.570   6850.900   6899.694    -48.794    471.433   6841.080    471.433    529.602    471.433
116.670   6898.286   6949.053    -50.767    471.568   6898.579    471.568    521.702    471.568
116.770   6977.000   6923.024     53.976    471.707   6879.525    471.707    514.978    471.707
116.870   6966.345   6822.703    143.641    471.852   6785.135    471.852    509.305    471.852
116.970   6790.000   6652.420    137.580    472.002   6619.858    472.002    504.555    472.002
117.070   6334.000   6419.291    -85.291    472.157   6390.930    472.157    500.608    472.157
117.170   6249.534   6132.475    117.060    472.318   6107.621    472.318    497.348    472.318
117.270   5730.000   5802.380    -72.380    472.484   5780.442    472.484    494.670    472.484
117.370   5378.000   5439.949    -61.949    472.655   5420.430    472.655    492.479    472.655
117.470   4965.589   5056.062    -90.473    472.832   5038.548    472.832    490.692    472.832
117.570   4616.000   4661.081    -45.081    473.014   4645.229    473.014    489.238    473.014
117.670   4214.486   4264.499    -50.013    473.202   4250.028    473.202    488.055    473.202
117.770   3951.292   3874.690     76.602    473.396   3861.372    473.396    487.094    473.396
117.870   3695.000   3498.739    196.261    473.595   3486.389    473.595    486.313    473.595
117.970   3283.000   3142.349    140.651    473.800   3130.821    473.800    485.677    473.800
118.070   2717.858   2809.826    -91.968    474.010   2798.999    474.010    485.159    474.010
118.170   2577.000   2504.121     72.879    474.227   2493.900    474.227    484.738    474.227
118.270   2288.297   2226.932     61.365    474.449   2217.242    474.449    484.396    474.449
118.370   2035.000   1978.848     56.152    474.678   1969.628    474.678    484.119    474.678
118.470   1792.000   1759.515     32.485    474.912   1750.715    474.912    483.899    474.912
118.570   1604.000   1567.813     36.187    475.152   1559.395    475.152    483.726    475.152
118.670   1377.000   1402.044    -25.044    475.399   1393.974    475.399    483.594    475.399
118.770   1272.000   1260.104     11.896    475.651   1252.356    475.651    483.499    475.651
118.870   1121.000   1139.648    -18.648    475.910   1132.198    475.910    483.436    475.910
118.970   1006.000   1038.230    -32.230    476.175   1031.059    476.175    483.403    476.175
119.070    925.000    953.424    -28.424    476.446    946.514    476.446    483.398    476.446
119.170    888.000    882.912      5.088    476.724    876.247    476.724    483.418    476.724
119.270    864.750    824.548     40.201    477.008    818.114    477.008    483.462    477.008
119.370    825.347    776.402     48.945    477.298    770.184    477.298    483.529    477.298
119.470    774.000    736.772     37.228    477.595    730.757    477.595    483.618    477.595
119.570    679.000    704.193    -25.193    477.899    698.367    477.899    483.729    477.899
119.670    666.083    677.423    -11.340    478.209    671.772    478.209    483.861    478.209
119.770    638.947    655.425    -16.477    478.526    649.936    478.526    484.015    478.526
119.870    633.421    637.346     -3.925    478.849    632.006    478.849    484.189    478.849
119.970    610.000    622.494    -12.494    479.180    617.289    479.180    484.384    479.180
120.070    624.000    610.310     13.690    479.517    605.226    479.517    484.601    479.517
120.170    554.247    600.349    -46.103    479.861    595.370    479.861    484.840    479.861
120.270    558.000    592.258    -34.258    480.212    587.368    480.212    485.102    480.212
120.370    565.000    585.758    -20.758    480.570    580.941    480.570    485.388    480.570
120.470    554.793    580.632    -25.839    480.935    575.871    480.935    485.697    480.935
120.570    570.000    576.709     -6.709    481.307    571.986    481.307    486.032    481.307
120.670    546.577    573.857    -27.281    481.687    569.152    481.687    486.394    481.687
120.770    590.546    571.973     18.573    482.073    567.266    482.073    486.784    482.073
120.870    562.952    570.976     -8.024    482.467    566.245    482.467    487.202    482.467
120.970    565.000    570.799     -5.799    482.868    566.022    482.868    487.651    482.868
121.070    580.005    571.390      8.615    483.277    566.543    483.277    488.130    483.277
121.170    570.398    572.698     -2.300    483.693    567.759    483.693    488.639    483.693
121.270    579.000    574.680      4.320    484.116    569.623    484.116    489.182    484.116
121.370    526.000    577.290    -51.290    484.548    572.090    484.548    489.758    484.548
121.470    570.875    580.478     -9.602    484.986    575.110    484.986    490.367    484.986
121.570    558.745    584.187    -25.441    485.433    578.626    485.433    491.008    485.433
121.670    562.000    588.353    -26.353    485.887    582.577    485.887    491.680    485.887
121.770    573.017    592.905    -19.888    486.349    586.892    486.349    492.381    486.349
121.870    605.935    597.761      8.175    486.819    591.491    486.819    493.110    486.819
121.970    589.588    602.828    -13.240    487.297    596.286    487.297    493.864    487.297
122.070    568.086    608.008    -39.922    487.783    601.179    487.783    494.639    487.783
122.170    616.000    613.189      2.811    488.277    606.066    488.277    495.430    488.277
122.270    635.000    618.258     16.742    488.779    610.835    488.779    496.235    488.779
122.370    604.131    623.095    -18.964    489.289    615.374    489.289    497.046    489.289
122.470    674.000    627.580     46.420    489.807    619.567    489.807    497.858    489.807
122.570    637.727    631.598      6.129    490.334    623.307    490.334    498.665    490.334
122.670    605.000    635.041    -30.041    490.869    626.494    490.869    499.459    490.869
122.770    685.069    637.820     47.249    491.413    629.044    491.413    500.233    491.413
122.870    671.566    639.865     31.701    491.965    630.895    491.965    500.980    491.965
122.970    648.000    641.132      6.868    492.525    632.011    492.525    501.692    492.525
123.070    667.065    641.607     25.458    493.094    632.384    493.094    502.364    493.094
123.170    635.000    641.304     -6.304    493.672    632.032    493.672    502.990    493.672
123.270    607.097    640.261    -33.163    494.259    630.997    494.259    503.568    494.259
123.370    632.000    638.538     -6.538    494.854    629.341    494.854    504.095    494.854
123.470    608.612    636.211    -27.599    495.458    627.138    495.458    504.574    495.458
123.570    596.000    633.366    -37.366    496.071    624.472    496.071    505.006    496.071
123.670    657.000    630.094     26.906    496.693    621.429    496.693    505.397    496.693
123.770    611.000    626.488    -15.488    497.324    618.095    497.324    505.753    497.324
123.870    616.000    622.636     -6.636    497.965    614.553    497.965    506.080    497.965
123.970    599.000    618.623    -19.623    498.614    610.880    498.614    506.387    498.614
124.070    606.069    614.525     -8.457    499.273    607.145    499.273    506.679    499.273
124.170    647.618    610.409     37.209    499.941    603.408    499.941    506.965    499.941
124.270    603.000    606.328     -3.328    500.618    599.715    500.618    507.251    500.618
124.370    617.437    602.326     15.110    501.305    596.105    501.305    507.544    501.305
124.470    578.000    598.434    -20.434    502.001    592.604    502.001    507.847    502.001
124.570    621.000    594.669     26.331    502.707    589.226    502.707    508.163    502.707
124.670    596.000    591.048      4.952    503.423    585.978    503.423    508.502    503.423
124.770    587.000    587.572     -0.572    504.148    582.862    504.148    508.867    504.148
124.870    632.000    584.239     47.761    504.883    579.871    504.883    509.259    504.883
124.970    568.000    581.042    -13.042    505.628    576.997    505.628    509.679    505.628
