neutron_powder_diffraction_0097
R_wp: 4.048
Temperature (K): 874.367
Counts: 83331.00
Wavelength (Ã…): 2.52098
COMMENTS
Test file for demonstrating the .xyy file format in Reel1.0
END OF HEADER
   tth       Y_obs     Y_calc      Y_res    Background    Phase_1_Nuc    Phase_1_Mag    Phase_2_Nuc    Phase_2_Mag
  9.970    628.000    552.943     75.057    551.587    552.698    551.587    551.831    551.587
 10.070    521.336    553.496    -32.160    552.042    553.250    552.042    552.288    552.042
 10.170    599.383    554.051     45.332    552.487    553.804    552.487    552.734    552.487
 10.270    592.117    554.611     37.506    552.922    554.363    552.922    553.170    552.922
 10.370    537.263    555.180    -17.917    553.347    554.931    553.347    553.595    553.347
 10.470    506.773    555.763    -48.990    553.761    555.513    553.761    554.010    553.761
 10.570    603.286    556.366     46.920    554.165    556.114    554.165    554.416    554.165
 10.670    603.000    556.995     46.005    554.559    556.742    554.559    554.811    554.559
 10.770    575.000    557.661     17.339    554.944    557.407    554.944    555.196    554.944
 10.870    627.000    558.377     68.623    555.318    558.122    555.318    555.572    555.318
 10.970    577.000    559.161     17.839    555.683    558.905    555.683    555.937    555.683
 11.070    569.000    560.038      8.962    556.038    559.780    556.038    556.293    556.038
 11.170    535.553    561.045    -25.492    556.383    560.786    556.383    556.640    556.383
 11.270    535.000    562.241    -27.241    556.719    561.980    556.719    556.977    556.719
 11.370    587.000    563.729     23.271    557.046    563.467    557.046    557.305    557.046
 11.470    592.732    565.726     27.005    557.363    565.462    557.363    557.623    557.363
 11.570    575.000    568.709      6.291    557.671    568.442    557.671    557.932    557.671
 11.670    585.897    573.657     12.241    557.969    573.386    557.969    558.232    557.969
 11.770    654.000    582.254     71.746    558.259    581.978    558.259    558.522    558.259
 11.870    610.000    596.649     13.351    558.539    596.364    558.539    558.804    558.539
 11.970    672.000    618.293     53.707    558.811    617.996    558.811    559.077    558.811
 12.070    679.966    645.632     34.334    559.074    645.318    559.074    559.341    559.074
 12.170    640.000    671.006    -31.006    559.328    670.677    559.328    559.596    559.328
 12.270    715.000    680.735     34.265    559.573    680.400    559.573    559.842    559.573
 12.370    638.000    667.443    -29.443    559.810    667.114    559.810    560.080    559.810
 12.470    601.000    640.971    -39.971    560.038    640.656    560.038    560.309    560.038
 12.570    589.000    614.745    -25.745    560.257    614.443    560.257    560.530    560.257
 12.670    560.567    595.034    -34.467    560.469    594.741    560.469    560.743    560.469
 12.770    593.000    582.488     10.512    560.671    582.201    560.671    560.947    560.671
 12.870    573.683    575.330     -1.647    560.866    575.045    560.866    561.143    560.866
 12.970    598.967    571.421     27.547    561.052    571.137    561.052    561.331    561.052
 13.070    547.000    569.213    -22.213    561.231    568.930    561.231    561.510    561.231
 13.170    597.619    567.853     29.766    561.401    567.569    561.401    561.682    561.401
 13.270    573.000    566.940      6.060    561.564    566.655    561.564    561.846    561.564
 13.370    563.244    566.289     -3.045    561.718    566.004    561.718    562.001    561.718
 13.470    554.638    565.813    -11.175    561.865    565.526    561.865    562.149    561.865
 13.570    538.000    565.459    -27.459    562.004    565.172    562.004    562.290    562.004
 13.670    567.554    565.195      2.359    562.135    564.906    562.135    562.423    562.135
 13.770    549.340    564.996    -15.657    562.259    564.707    562.259    562.548    562.259
 13.870    563.000    564.847     -1.847    562.375    564.556    562.375    562.665    562.375
 13.970    558.000    564.734     -6.734    562.484    564.442    562.484    562.776    562.484
 14.070    534.233    564.650    -30.417    562.586    564.356    562.586    562.879    562.586
 14.170    517.000    564.586    -47.586    562.680    564.291    562.680    562.974    562.680
 14.270    593.275    564.538     28.737    562.767    564.241    562.767    563.063    562.767
 14.370    506.000    564.502    -58.502    562.846    564.204    562.846    563.144    562.846
 14.470    559.000    564.474     -5.474    562.919    564.174    562.919    563.218    562.919
 14.570    529.000    564.452    -35.452    562.985    564.151    562.985    563.285    562.985
 14.670    562.000    564.434     -2.434    563.044    564.132    563.044    563.346    563.044
 14.770    522.038    564.423    -42.384    563.096    564.119    563.096    563.399    563.096
 14.870    563.000    564.433     -1.433    563.141    564.127    563.141    563.446    563.141
 14.970    572.011    564.422      7.589    563.179    564.115    563.179    563.486    563.179
 15.070    594.294    564.412     29.882    563.211    564.103    563.211    563.519    563.211
 15.170    592.140    564.396     27.744    563.236    564.086    563.236    563.546    563.236
 15.270    536.000    564.378    -28.378    563.255    564.066    563.255    563.566    563.255
 15.370    591.000    564.357     26.643    563.267    564.044    563.267    563.580    563.267
 15.470    583.000    564.334     18.666    563.273    564.019    563.273    563.588    563.273
 15.570    504.000    564.307    -60.307    563.272    563.990    563.272    563.589    563.272
 15.670    589.433    564.277     25.156    563.265    563.958    563.265    563.584    563.265
 15.770    529.000    564.243    -35.243    563.252    563.922    563.252    563.573    563.252
 15.870    601.400    564.205     37.195    563.233    563.882    563.233    563.555    563.233
 15.970    500.000    564.163    -64.163    563.208    563.839    563.208    563.532    563.208
 16.070    556.103    564.116     -8.013    563.177    563.790    563.177    563.503    563.177
 16.170    569.966    564.066      5.901    563.140    563.738    563.140    563.468    563.140
 16.270    567.000    564.011      2.989    563.097    563.681    563.097    563.426    563.097
 16.370    557.000    563.951     -6.951    563.048    563.620    563.048    563.380    563.048
 16.470    544.358    563.887    -19.530    562.994    563.554    562.994    563.327    562.994
 16.570    565.820    563.819      2.001    562.934    563.483    562.934    563.269    562.934
 16.670    531.000    563.748    -32.748    562.868    563.411    562.868    563.205    562.868
 16.770    555.000    563.707     -8.707    562.797    563.367    562.797    563.136    562.797
 16.870    573.000    563.705      9.295    562.720    563.363    562.720    563.061    562.720
 16.970    529.860    563.626    -33.766    562.638    563.283    562.638    562.981    562.638
 17.070    558.000    563.539     -5.539    562.550    563.193    562.550    562.896    562.550
 17.170    572.000    563.447      8.553    562.458    563.099    562.458    562.805    562.458
 17.270    544.000    563.347    -19.347    562.359    562.997    562.359    562.709    562.359
 17.370    576.718    563.242     13.476    562.256    562.890    562.256    562.608    562.256
 17.470    513.000    563.133    -50.133    562.148    562.779    562.148    562.502    562.148
 17.570    525.000    563.020    -38.020    562.035    562.663    562.035    562.391    562.035
 17.670    586.000    562.902     23.098    561.916    562.543    561.916    562.275    561.916
 17.770    551.844    562.779    -10.936    561.793    562.418    561.793    562.154    561.793
 17.870    565.919    562.653      3.266    561.665    562.289    561.665    562.028    561.665
 17.970    531.644    562.522    -30.878    561.532    562.156    561.532    561.898    561.532
 18.070    522.000    562.387    -40.387    561.394    562.018    561.394    561.763    561.394
 18.170    540.195    562.248    -22.053    561.252    561.877    561.252    561.623    561.252
 18.270    524.000    562.107    -38.107    561.105    561.734    561.105    561.478    561.105
 18.370    585.031    561.961     23.070    560.953    561.585    560.953    561.329    560.953
 18.470    510.000    561.810    -51.810    560.797    561.431    560.797    561.176    560.797
 18.570    606.573    561.654     44.919    560.636    561.272    560.636    561.018    560.636
 18.670    594.234    561.494     32.739    560.471    561.110    560.471    560.856    560.471
 18.770    551.000    561.334    -10.334    560.302    560.947    560.302    560.689    560.302
 18.870    543.000    561.198    -18.198    560.128    560.808    560.128    560.518    560.128
 18.970    590.000    561.069     28.931    559.950    560.676    559.950    560.343    559.950
 19.070    533.000    560.899    -27.899    559.768    560.503    559.768    560.164    559.768
 19.170    518.000    560.721    -42.721    559.582    560.322    559.582    559.981    559.582
 19.270    529.000    560.540    -31.540    559.392    560.138    559.392    559.794    559.392
 19.370    605.257    560.357     44.900    559.198    559.952    559.198    559.603    559.198
 19.470    525.000    560.187    -35.187    558.999    559.779    558.999    559.408    558.999
 19.570    506.000    560.006    -54.006    558.797    559.595    558.797    559.209    558.797
 19.670    552.000    559.823     -7.823    558.591    559.408    558.591    559.006    558.591
 19.770    553.920    559.626     -5.706    558.381    559.208    558.381    558.800    558.381
 19.870    537.000    559.425    -22.425    558.168    559.003    558.168    558.590    558.168
 19.970    544.000    559.221    -15.221    557.951    558.796    557.951    558.376    557.951
 20.070    514.147    559.014    -44.868    557.730    558.585    557.730    558.159    557.730
 20.170    564.000    558.808      5.192    557.505    558.375    557.505    557.938    557.505
 20.270    588.151    558.604     29.547    557.278    558.168    557.278    557.714    557.278
 20.370    541.000    558.390    -17.390    557.046    557.949    557.046    557.487    557.046
 20.470    603.118    558.172     44.946    556.811    557.728    556.811    557.256    556.811
 20.570    541.000    557.952    -16.952    556.573    557.504    556.573    557.022    556.573
 20.670    540.264    557.731    -17.467    556.331    557.278    556.331    556.784    556.331
 20.770    562.689    557.506      5.183    556.087    557.049    556.087    556.544    556.087
 20.870    568.000    557.280     10.720    555.839    556.818    555.839    556.300    555.839
 20.970    571.000    557.051     13.949    555.587    556.585    555.587    556.053    555.587
 21.070    562.000    556.821      5.179    555.333    556.350    555.333    555.804    555.333
 21.170    519.000    556.589    -37.589    555.076    556.114    555.076    555.551    555.076
 21.270    571.000    556.357     14.643    554.815    555.877    554.815    555.296    554.815
 21.370    517.253    556.141    -38.888    554.552    555.656    554.552    555.037    554.552
 21.470    554.000    555.933     -1.933    554.285    555.443    554.285    554.776    554.285
 21.570    539.805    555.700    -15.895    554.016    555.204    554.016    554.512    554.016
 21.670    573.000    555.465     17.535    553.744    554.964    553.744    554.245    553.744
 21.770    534.453    555.231    -20.778    553.469    554.724    553.469    553.976    553.469
 21.870    594.967    554.998     39.970    553.192    554.485    553.192    553.704    553.192
 21.970    547.000    554.794     -7.794    552.911    554.276    552.911    553.430    552.911
 22.070    572.005    554.634     17.371    552.629    554.110    552.629    553.153    552.629
 22.170    536.000    554.416    -18.416    552.343    553.886    552.343    552.874    552.343
 22.270    553.081    554.188     -1.107    552.055    553.651    552.055    552.593    552.055
 22.370    536.000    553.981    -17.981    551.765    553.437    551.765    552.309    551.765
 22.470    566.000    553.794     12.206    551.472    553.244    551.472    552.023    551.472
 22.570    542.059    553.591    -11.532    551.176    553.034    551.176    551.734    551.176
 22.670    584.713    553.382     31.331    550.878    552.817    550.878    551.444    550.878
 22.770    544.000    553.183     -9.183    550.578    552.611    550.578    551.152    550.578
 22.870    583.000    552.990     30.010    550.276    552.410    550.276    550.857    550.276
 22.970    541.625    552.810    -11.185    549.971    552.221    549.971    550.561    549.971
 23.070    521.000    552.650    -31.650    549.665    552.053    549.665    550.263    549.665
 23.170    556.000    552.507      3.493    549.356    551.901    549.356    549.962    549.356
 23.270    538.946    552.382    -13.436    549.045    551.767    549.045    549.661    549.045
 23.370    524.592    552.288    -27.695    548.732    551.664    548.732    549.357    548.732
 23.470    542.508    552.239     -9.731    548.417    551.605    548.417    549.052    548.417
 23.570    512.304    552.235    -39.931    548.099    551.591    548.099    548.745    548.099
 23.670    577.485    552.296     25.189    547.781    551.641    547.781    548.437    547.781
 23.770    519.541    552.446    -32.905    547.460    551.781    547.460    548.127    547.460
 23.870    578.878    552.724     26.154    547.137    552.048    547.137    547.816    547.137
 23.970    506.227    553.196    -46.969    546.812    552.508    546.812    547.504    546.812
 24.070    570.289    553.995     16.294    546.486    553.296    546.486    547.190    546.486
 24.170    549.000    555.416     -6.416    546.158    554.704    546.158    546.875    546.158
 24.270    558.786    558.061      0.725    545.829    557.337    545.829    546.560    545.829
 24.370    568.000    562.971      5.029    545.497    562.237    545.497    546.243    545.497
 24.470    587.000    571.511     15.489    545.164    570.768    545.164    545.925    545.164
 24.570    618.000    584.712     33.288    544.830    583.964    544.830    545.606    544.830
 24.670    561.518    601.970    -40.452    544.494    601.218    544.494    545.287    544.494
 24.770    618.000    619.072     -1.072    544.157    618.315    544.157    544.967    544.157
 24.870    587.894    627.430    -39.536    543.818    626.661    543.818    544.647    543.818
 24.970    627.000    620.921      6.079    543.478    620.127    543.478    544.326    543.478
 25.070    607.000    604.246      2.754    543.136    603.420    543.136    544.005    543.136
 25.170    626.921    586.120     40.801    542.793    585.259    542.793    543.684    542.793
 25.270    611.319    571.540     39.779    542.449    570.646    542.449    543.362    542.449
 25.370    564.000    561.646      2.354    542.103    560.721    542.103    543.041    542.103
 25.470    581.000    555.614     25.386    541.757    554.659    541.757    542.720    541.757
 25.570    528.212    552.090    -23.878    541.409    551.106    541.409    542.399    541.409
 25.670    569.000    549.962     19.038    541.060    548.947    541.060    542.079    541.060
 25.770    568.000    548.553     19.447    540.710    547.507    540.710    541.760    540.710
 25.870    582.105    547.525     34.580    540.359    546.445    540.359    541.441    540.359
 25.970    585.000    546.723     38.277    540.007    545.608    540.007    541.124    540.007
 26.070    574.000    546.072     27.928    539.654    544.919    539.654    540.808    539.654
 26.170    602.000    545.535     56.465    539.300    544.342    539.300    540.494    539.300
 26.270    539.000    545.088     -6.088    538.945    543.852    538.945    540.182    538.945
 26.370    551.000    544.717      6.283    538.589    543.436    538.589    539.872    538.589
 26.470    570.000    544.416     25.584    538.232    543.084    538.232    539.564    538.232
 26.570    567.000    544.180     22.820    537.875    542.795    537.875    539.260    537.875
 26.670    571.000    544.008     26.992    537.516    542.565    537.516    538.959    537.516
 26.770    568.000    543.904     24.096    537.157    542.400    537.157    538.662    537.157
 26.870    529.174    543.878    -14.703    536.797    542.306    536.797    538.370    536.797
 26.970    584.081    543.940     40.140    536.437    542.295    536.437    538.082    536.437
 27.070    576.000    544.111     31.889    536.076    542.387    536.076    537.801    536.076
 27.170    568.615    544.418     24.196    535.714    542.607    535.714    537.526    535.714
 27.270    549.000    544.902      4.098    535.352    542.996    535.352    537.258    535.352
 27.370    590.000    545.627     44.373    534.990    543.617    534.990    536.999    534.990
 27.470    556.000    546.702      9.298    534.626    544.579    534.626    536.748    534.626
 27.570    584.000    548.393     35.607    534.263    546.146    534.263    536.509    534.263
 27.670    609.000    551.593     57.407    533.898    549.209    533.898    536.280    533.898
 27.770    581.000    559.299     21.701    533.534    556.762    533.534    536.065    533.534
 27.870    626.126    579.474     46.652    533.169    576.765    533.169    535.864    533.169
 27.970    661.000    626.401     34.599    532.804    623.494    532.804    535.679    532.804
 28.070    685.000    712.540    -27.540    532.438    709.409    532.438    535.512    532.438
 28.170    782.000    827.314    -45.314    532.072    823.942    532.072    535.364    532.072
 28.270    955.000    921.134     33.866    531.706    917.520    531.706    535.236    531.706
 28.370    974.000    933.190     40.810    531.340    929.338    531.340    535.130    531.340
 28.470    885.000    859.147     25.853    530.973    855.040    530.973    535.047    530.973
 28.570    805.000    762.475     42.525    530.606    758.078    530.606    534.988    530.606
 28.670    684.742    706.992    -22.249    530.239    702.266    530.239    534.952    530.239
 28.770    762.546    713.694     48.852    529.872    708.612    529.872    534.938    529.872
 28.870    779.000    762.815     16.185    529.505    757.360    529.505    534.943    529.505
 28.970    796.301    809.866    -13.565    529.138    804.033    529.138    534.961    529.138
 29.070    847.000    811.136     35.864    528.771    804.926    528.771    534.986    528.771
 29.170    728.182    759.466    -31.284    528.404    752.879    528.404    535.006    528.404
 29.270    688.000    686.457      1.543    528.037    679.501    528.037    535.008    528.037
 29.370    674.930    624.085     50.845    527.670    616.790    527.670    534.976    527.670
 29.470    627.571    584.164     43.407    527.303    576.582    527.303    534.892    527.303
 29.570    588.000    563.361     24.639    526.937    555.561    526.937    534.739    526.937
 29.670    584.000    553.709     30.291    526.570    545.776    526.570    534.505    526.570
 29.770    585.169    549.099     36.070    526.203    541.126    526.203    534.178    526.203
 29.870    578.000    546.471     31.529    525.837    538.552    525.837    533.757    525.837
 29.970    553.660    544.659      9.001    525.471    536.885    525.471    533.246    525.471
 30.070    604.000    543.291     60.709    525.106    535.742    525.106    532.655    525.106
 30.170    566.000    542.278     23.722    524.740    535.018    524.740    531.999    524.740
 30.270    520.769    541.689    -20.920    524.375    534.767    524.375    531.297    524.375
 30.370    566.000    541.828     24.172    524.010    535.273    524.010    530.563    524.010
 30.470    561.000    543.428     17.572    523.646    537.254    523.646    529.816    523.646
 30.570    600.000    547.804     52.196    523.282    542.011    523.282    529.066    523.282
 30.670    601.000    556.554     44.446    522.918    551.131    522.918    528.325    522.918
 30.770    604.000    570.392     33.608    522.555    565.322    522.555    527.600    522.555
 30.870    607.000    587.254     19.746    522.192    582.515    522.192    526.895    522.192
 30.970    601.000    600.881      0.119    521.830    596.455    521.830    526.213    521.830
 31.070    553.247    603.170    -49.923    521.468    599.042    521.468    525.555    521.468
 31.170    547.416    591.886    -44.470    521.107    588.038    521.107    524.921    521.107
 31.270    605.000    573.785     31.215    520.746    570.198    520.746    524.311    520.746
 31.370    589.000    556.745     32.255    520.386    553.394    520.386    523.724    520.386
 31.470    529.000    544.467    -15.467    520.026    541.329    520.026    523.157    520.026
 31.570    556.824    537.075     19.749    519.667    534.128    519.667    522.610    519.667
 31.670    545.000    533.090     11.910    519.309    530.315    519.309    522.082    519.309
 31.770    556.999    530.974     26.024    518.952    528.355    518.952    521.570    518.952
 31.870    510.517    529.750    -19.233    518.595    527.271    518.595    521.073    518.595
 31.970    517.000    528.950    -11.950    518.239    526.598    518.239    520.590    518.239
 32.070    552.000    528.391     23.609    517.883    526.155    517.883    520.119    517.883
 32.170    553.000    528.006     24.994    517.529    525.874    517.529    519.660    517.529
 32.270    514.000    527.771    -13.771    517.175    525.734    517.175    519.211    517.175
 32.370    526.000    527.679     -1.679    516.822    525.729    516.822    518.772    516.822
 32.470    538.000    527.737     10.263    516.469    525.865    516.469    518.341    516.469
 32.570    552.464    527.959     24.505    516.118    526.159    516.118    517.918    516.118
 32.670    554.000    528.372     25.628    515.767    526.637    515.767    517.502    515.767
 32.770    507.145    529.014    -21.869    515.418    527.339    515.418    517.093    515.418
 32.870    492.000    529.943    -37.943    515.069    528.322    515.069    516.689    515.069
 32.970    577.000    531.242     45.758    514.721    529.670    514.721    516.292    514.721
 33.070    525.193    533.040     -7.847    514.374    531.514    514.374    515.899    514.374
 33.170    532.636    535.563     -2.927    514.028    534.079    514.028    515.511    514.028
 33.270    531.000    539.278     -8.278    513.683    537.832    513.683    515.128    513.683
 33.370    540.146    545.269     -5.123    513.339    543.857    513.339    514.748    513.339
 33.470    590.000    556.008     33.992    512.996    554.627    512.996    514.373    512.996
 33.570    575.336    576.434     -1.098    512.655    575.078    512.655    514.001    512.655
 33.670    588.000    614.407    -26.407    512.314    613.072    512.314    513.633    512.314
 33.770    655.000    678.670    -23.670    511.974    677.351    511.974    513.267    511.974
 33.870    793.000    772.788     20.212    511.635    771.483    511.635    512.905    511.635
 33.970    860.000    885.898    -25.898    511.298    884.611    511.298    512.546    511.298
 34.070   1004.000    984.447     19.553    510.961    983.187    510.961    512.190    510.961
 34.170   1030.000   1018.750     11.250    510.626   1017.525    510.626    511.837    510.626
 34.270    956.000    965.146     -9.146    510.292    963.952    510.292    511.486    510.292
 34.370    878.000    857.493     20.507    509.959    856.321    509.959    511.137    509.959
 34.470    735.000    745.431    -10.431    509.627    744.275    509.627    510.791    509.627
 34.570    647.890    657.124     -9.233    509.297    655.978    509.297    510.448    509.297
 34.670    575.000    599.021    -24.021    508.967    597.885    508.967    510.107    508.967
 34.770    561.000    565.445     -4.445    508.639    564.318    508.639    509.768    508.639
 34.870    591.486    547.348     44.138    508.312    546.230    508.312    509.431    508.312
 34.970    571.094    537.441     33.653    507.987    536.332    507.987    509.096    507.987
 35.070    539.000    531.454      7.546    507.663    530.353    507.663    508.764    507.663
 35.170    521.385    527.355     -5.970    507.340    526.261    507.340    508.434    507.340
 35.270    528.000    524.277      3.723    507.018    523.190    507.018    508.106    507.018
 35.370    522.000    521.841      0.159    506.698    520.759    506.698    507.779    506.698
 35.470    503.725    519.852    -16.127    506.379    518.776    506.379    507.455    506.379
 35.570    493.941    518.195    -24.254    506.061    517.124    506.061    507.133    506.061
 35.670    512.000    516.791     -4.791    505.745    515.723    505.745    506.813    505.745
 35.770    529.000    515.582     13.418    505.431    514.518    505.431    506.495    505.431
 35.870    551.000    514.529     36.471    505.117    513.468    505.117    506.179    505.117
 35.970    496.241    513.601    -17.359    504.805    512.542    504.805    505.865    504.805
 36.070    542.000    512.775     29.225    504.495    511.718    504.495    505.552    504.495
 36.170    515.000    512.035      2.965    504.186    510.979    504.186    505.242    504.186
 36.270    536.000    511.367     24.633    503.878    510.312    503.878    504.934    503.878
 36.370    498.000    510.763    -12.763    503.572    509.708    503.572    504.627    503.572
 36.470    511.000    510.216      0.784    503.268    509.161    503.268    504.323    503.268
 36.570    476.065    509.721    -33.656    502.964    508.666    502.964    504.020    502.964
 36.670    471.667    509.279    -37.613    502.663    508.224    502.663    503.719    502.663
 36.770    506.000    508.893     -2.893    502.363    507.836    502.363    503.420    502.363
 36.870    489.843    508.576    -18.733    502.064    507.517    502.064    503.123    502.064
 36.970    482.000    508.357    -26.357    501.767    507.296    501.767    502.829    501.767
 37.070    493.394    508.298    -14.904    501.472    507.235    501.472    502.535    501.472
 37.170    533.342    508.510     24.832    501.178    507.445    501.178    502.244    501.178
 37.270    513.000    509.152      3.848    500.886    508.084    500.886    501.955    500.886
 37.370    503.749    510.401     -6.652    500.595    509.330    500.595    501.668    500.595
 37.470    524.000    512.362     11.638    500.306    511.288    500.306    501.383    500.306
 37.570    532.000    514.930     17.070    500.019    513.852    500.019    501.099    500.019
 37.670    507.000    517.607    -10.607    499.733    516.526    499.733    500.818    499.733
 37.770    557.451    519.439     38.012    499.449    518.355    499.449    500.539    499.449
 37.870    509.000    519.502    -10.502    499.166    518.415    499.166    500.261    499.166
 37.970    483.000    517.756    -34.756    498.886    516.665    498.886    499.986    498.886
 38.070    527.000    514.990     12.010    498.606    513.895    498.606    499.712    498.606
 38.170    552.219    511.994     40.226    498.329    510.893    498.329    499.441    498.329
 38.270    527.000    509.217     17.783    498.053    508.109    498.053    499.171    498.053
 38.370    470.000    506.910    -36.910    497.779    505.793    497.779    498.904    497.779
 38.470    490.000    505.155    -15.155    497.507    504.029    497.507    498.639    497.507
 38.570    454.000    503.891    -49.891    497.236    502.755    497.236    498.375    497.236
 38.670    481.000    502.993    -21.993    496.967    501.849    496.967    498.114    496.967
 38.770    503.000    502.339      0.661    496.700    501.186    496.700    497.855    496.700
 38.870    486.000    501.835    -15.835    496.435    500.674    496.435    497.597    496.435
 38.970    468.000    501.421    -33.421    496.171    500.251    496.171    497.342    496.171
 39.070    497.000    501.060     -4.060    495.909    499.881    495.909    497.089    495.909
 39.170    546.310    500.734     45.576    495.649    499.546    495.649    496.838    495.649
 39.270    468.908    500.433    -31.525    495.390    499.235    495.390    496.589    495.390
 39.370    496.000    500.151     -4.151    495.134    498.944    495.134    496.343    495.134
 39.470    503.000    499.886      3.114    494.879    498.668    494.879    496.098    494.879
 39.570    483.000    499.635    -16.635    494.626    498.406    494.626    495.856    494.626
 39.670    497.852    499.397     -1.546    494.375    498.158    494.375    495.615    494.375
 39.770    496.000    499.172     -3.172    494.126    497.921    494.126    495.377    494.126
 39.870    528.482    498.958     29.524    493.878    497.696    493.878    495.141    493.878
 39.970    522.000    498.756     23.244    493.632    497.481    493.632    494.908    493.632
 40.070    515.038    498.566     16.472    493.388    497.279    493.388    494.676    493.388
 40.170    464.000    498.388    -34.388    493.146    497.088    493.146    494.447    493.146
 40.270    453.000    498.221    -45.221    492.906    496.908    492.906    494.220    492.906
 40.370    448.000    498.064    -50.064    492.668    496.737    492.668    493.996    492.668
 40.470    484.000    497.926    -13.926    492.431    496.585    492.431    493.773    492.431
 40.570    434.000    497.805    -63.805    492.197    496.450    492.197    493.553    492.197
 40.670    511.635    497.703     13.932    491.964    496.332    491.964    493.336    491.964
 40.770    508.000    497.620     10.380    491.733    496.234    491.733    493.120    491.733
 40.870    464.103    497.562    -33.459    491.504    496.160    491.504    492.907    491.504
 40.970    515.050    497.531     17.519    491.277    496.113    491.277    492.697    491.277
 41.070    511.914    497.534     14.380    491.051    496.098    491.051    492.488    491.051
 41.170    497.000    497.576     -0.576    490.828    496.123    490.828    492.283    490.828
 41.270    451.000    497.666    -46.666    490.607    496.195    490.607    492.079    490.607
 41.370    500.000    497.817      2.183    490.387    496.328    490.387    491.878    490.387
 41.470    498.067    498.045      0.022    490.170    496.536    490.170    491.680    490.170
 41.570    493.000    498.374     -5.374    489.954    496.846    489.954    491.484    489.954
 41.670    470.000    498.845    -28.845    489.740    497.297    489.740    491.291    489.740
 41.770    497.000    499.537     -2.537    489.528    497.967    489.528    491.101    489.528
 41.870    536.700    500.609     36.092    489.318    499.018    489.318    490.913    489.318
 41.970    463.000    502.386    -39.386    489.110    500.774    489.110    490.727    489.110
 42.070    491.000    505.475    -14.475    488.904    503.841    488.904    490.545    488.904
 42.170    521.000    510.845     10.155    488.700    509.189    488.700    490.365    488.700
 42.270    493.000    519.755    -26.755    488.498    518.078    488.498    490.188    488.498
 42.370    525.000    533.359     -8.359    488.297    531.663    488.297    490.013    488.297
 42.470    528.000    551.956    -23.956    488.099    550.243    488.099    489.842    488.099
 42.570    575.000    573.982      1.018    487.902    572.254    487.902    489.673    487.902
 42.670    573.684    595.008    -21.324    487.708    593.263    487.708    489.507    487.708
 42.770    623.510    607.900     15.610    487.515    606.135    487.515    489.345    487.515
 42.870    568.000    606.684    -38.684    487.325    604.889    487.325    489.185    487.325
 42.970    636.410    591.958     44.453    487.136    590.125    487.136    489.029    487.136
 43.070    605.441    570.215     35.226    486.950    568.337    486.950    488.875    486.950
 43.170    535.000    548.276    -13.276    486.765    546.351    486.765    488.725    486.765
 43.270    532.953    530.121      2.832    486.582    528.149    486.582    488.578    486.582
 43.370    558.000    516.992     41.008    486.401    514.975    486.401    488.435    486.401
 43.470    446.000    508.421    -62.421    486.222    506.360    486.222    488.295    486.222
 43.570    509.000    503.206      5.794    486.046    501.101    486.046    488.158    486.046
 43.670    534.000    500.117     33.883    485.871    497.968    485.871    488.025    485.871
 43.770    511.000    498.239     12.761    485.698    496.045    485.698    487.896    485.698
 43.870    494.000    497.011     -3.011    485.527    494.771    485.527    487.771    485.527
 43.970    470.000    496.139    -26.139    485.358    493.851    485.358    487.649    485.358
 44.070    453.116    495.476    -42.360    485.191    493.138    485.191    487.532    485.191
 44.170    509.881    494.953     14.929    485.026    492.562    485.026    487.418    485.026
 44.270    530.589    494.531     36.059    484.863    492.086    484.863    487.309    484.863
 44.370    468.584    494.187    -25.604    484.701    491.686    484.701    487.205    484.701
 44.470    502.000    493.907      8.093    484.542    491.346    484.542    487.105    484.542
 44.570    476.000    493.680    -17.680    484.385    491.056    484.385    487.010    484.385
 44.670    437.000    493.497    -56.497    484.230    490.808    484.230    486.920    484.230
 44.770    457.127    493.353    -36.226    484.076    490.596    484.076    486.835    484.076
 44.870    510.000    493.243     16.757    483.925    490.414    483.925    486.755    483.925
 44.970    493.000    493.165     -0.165    483.776    490.260    483.776    486.682    483.776
 45.070    503.000    493.115      9.885    483.628    490.131    483.628    486.614    483.628
 45.170    499.000    493.093      5.907    483.483    490.024    483.483    486.552    483.483
 45.270    508.000    493.097     14.903    483.339    489.940    483.339    486.497    483.339
 45.370    497.000    493.127      3.873    483.198    489.877    483.198    486.449    483.198
 45.470    461.000    493.184    -32.184    483.058    489.834    483.058    486.409    483.058
 45.570    511.528    493.267     18.261    482.921    489.812    482.921    486.376    482.921
 45.670    533.000    493.378     39.622    482.785    489.812    482.785    486.351    482.785
 45.770    520.498    493.518     26.980    482.651    489.834    482.651    486.335    482.651
 45.870    475.000    493.689    -18.689    482.520    489.880    482.520    486.329    482.520
 45.970    504.000    493.894     10.106    482.390    489.952    482.390    486.333    482.390
 46.070    501.000    494.137      6.863    482.262    490.051    482.262    486.348    482.262
 46.170    503.000    494.420      8.580    482.136    490.182    482.136    486.374    482.136
 46.270    514.000    494.750     19.250    482.012    490.349    482.012    486.414    482.012
 46.370    496.292    495.133      1.159    481.890    490.557    481.890    486.467    481.890
 46.470    482.354    495.577    -13.224    481.770    490.813    481.770    486.535    481.770
 46.570    476.000    496.094    -20.094    481.652    491.127    481.652    486.619    481.652
 46.670    482.000    496.699    -14.699    481.535    491.513    481.535    486.722    481.535
 46.770    514.000    497.416     16.584    481.421    491.993    481.421    486.844    481.421
 46.870    529.000    498.288     30.712    481.309    492.609    481.309    486.987    481.309
 46.970    502.000    499.395      2.605    481.198    493.438    481.198    487.155    481.198
 47.070    469.361    500.890    -31.529    481.090    494.629    481.090    487.349    481.090
 47.170    507.000    503.046      3.954    480.983    496.455    480.983    487.571    480.983
 47.270    473.720    506.303    -32.583    480.878    499.350    480.878    487.826    480.878
 47.370    488.203    511.264    -23.061    480.775    503.915    480.775    488.116    480.775
 47.470    522.519    518.583      3.936    480.674    510.799    480.674    488.446    480.674
 47.570    510.000    528.713    -18.713    480.575    520.451    480.575    488.819    480.575
 47.670    579.000    541.524     37.476    480.478    532.735    480.478    489.239    480.478
 47.770    575.688    555.858     19.830    480.383    546.493    480.383    489.712    480.383
 47.870    575.000    569.171      5.829    480.290    559.174    480.290    490.242    480.290
 47.970    550.000    577.781    -27.781    480.198    567.095    480.198    490.836    480.198
 48.070    559.000    578.742    -19.742    480.108    567.307    480.108    491.498    480.108
 48.170    546.000    572.294    -26.294    480.021    560.041    480.021    492.234    480.021
 48.270    536.758    561.629    -24.871    479.935    548.484    479.935    493.049    479.935
 48.370    540.148    550.389    -10.241    479.851    536.271    479.851    493.947    479.851
 48.470    552.000    541.005     10.995    479.769    525.828    479.769    494.932    479.769
 48.570    523.000    534.545    -11.545    479.688    518.221    479.688    496.004    479.688
 48.670    506.000    531.112    -25.112    479.610    513.555    479.610    497.162    479.610
 48.770    490.000    530.277    -40.277    479.533    511.409    479.533    498.400    479.533
 48.870    540.000    531.459      8.541    479.459    511.213    479.459    499.705    479.459
 48.970    573.832    534.172     39.660    479.386    512.501    479.386    501.058    479.386
 49.070    520.958    538.161    -17.203    479.314    515.048    479.314    502.430    479.314
 49.170    575.929    543.512     32.417    479.245    518.979    479.245    503.781    479.245
 49.270    603.000    550.931     52.069    479.178    525.051    479.178    505.060    479.178
 49.370    569.000    562.495      6.505    479.112    535.399    479.112    506.208    479.112
 49.470    577.000    583.213     -6.213    479.048    555.094    479.048    507.162    479.048
 49.570    608.000    623.414    -15.414    478.986    594.526    478.986    507.859    478.986
 49.670    709.242    700.880      8.362    478.926    671.523    478.926    508.249    478.926
 49.770    857.108    839.862     17.246    478.867    810.366    478.867    508.300    478.867
 49.870   1028.000   1063.271    -35.271    478.810   1033.978    478.810    508.009    478.810
 49.970   1406.000   1376.962     29.038    478.755   1348.201    478.755    507.395    478.755
 50.070   1782.000   1751.424     30.576    478.702   1723.504    478.702    506.503    478.702
 50.170   2199.288   2112.173     87.115    478.651   2085.356    478.651    505.391    478.651
 50.270   2306.000   2352.535    -46.535    478.601   2327.024    478.601    504.124    478.601
 50.370   2269.000   2381.268   -112.268    478.553   2357.175    478.553    502.764    478.553
 50.470   2187.000   2185.897      1.103    478.507   2163.233    478.507    501.365    478.507
 50.570   1836.000   1844.149     -8.149    478.462   1822.859    478.462    499.971    478.462
 50.670   1530.942   1466.165     64.777    478.419   1446.166    478.419    498.615    478.419
 50.770   1122.000   1137.355    -15.355    478.378   1118.566    478.378    497.322    478.378
 50.870    854.000    898.040    -44.040    478.339    880.385    478.339    496.104    478.339
 50.970    767.000    748.922     18.078    478.301    732.327    478.301    494.972    478.301
 51.070    708.000    668.282     39.718    478.265    652.674    478.265    493.929    478.265
 51.170    655.000    629.077     25.923    478.231    614.380    478.231    492.974    478.231
 51.270    588.389    609.227    -20.838    478.198    595.361    478.198    492.105    478.198
 51.370    597.000    595.337      1.663    478.167    582.222    478.167    491.319    478.167
 51.470    583.000    582.143      0.857    478.138    569.703    478.138    490.610    478.138
 51.570    550.000    569.188    -19.188    478.110    557.351    478.110    489.974    478.110
 51.670    605.148    557.469     47.679    478.084    546.169    478.084    489.405    478.084
 51.770    562.000    547.842     14.158    478.060    537.021    478.060    488.898    478.060
 51.870    532.000    540.663     -8.663    478.037    530.266    478.037    488.447    478.037
 51.970    609.000    535.861     73.139    478.016    525.839    478.016    488.049    478.016
 52.070    562.000    533.121     28.879    477.996    523.427    477.996    487.698    477.996
 52.170    604.000    532.071     71.929    477.978    522.666    477.978    487.391    477.978
 52.270    579.000    532.432     46.568    477.962    523.277    477.962    487.123    477.962
 52.370    543.000    534.111      8.889    477.947    525.172    477.947    486.893    477.947
 52.470    502.821    537.299    -34.478    477.934    528.543    477.934    486.696    477.934
 52.570    591.000    542.604     48.396    477.922    534.002    477.922    486.530    477.922
 52.670    548.000    551.288     -3.288    477.912    542.813    477.912    486.392    477.912
 52.770    606.000    565.549     40.451    477.903    557.175    477.903    486.282    477.903
 52.870    598.000    588.732      9.268    477.896    580.437    477.896    486.197    477.896
 52.970    641.342    625.186     16.156    477.891    616.947    477.891    486.135    477.891
 53.070    679.208    679.452     -0.244    477.887    671.251    477.887    486.095    477.887
 53.170    766.127    754.646     11.480    477.885    746.464    477.885    486.077    477.885
 53.270    877.753    850.195     27.559    477.884    842.015    477.884    486.079    477.884
 53.370    946.000    959.358    -13.358    477.884    951.167    477.884    486.101    477.884
 53.470   1031.552   1066.935    -35.384    477.886   1058.719    477.886    486.141    477.886
 53.570   1122.000   1148.713    -26.713    477.890   1140.456    477.890    486.201    477.890
 53.670   1135.399   1178.213    -42.814    477.895   1169.895    477.895    486.279    477.895
 53.770   1126.000   1143.780    -17.780    477.901   1135.377    477.901    486.376    477.901
 53.870   1113.932   1059.113     54.820    477.909   1050.599    477.909    486.491    477.909
 53.970    886.000    951.263    -65.263    477.918    942.616    477.918    486.624    477.918
 54.070    803.801    843.814    -40.014    477.929    835.014    477.929    486.777    477.929
 54.170    759.335    751.072      8.263    477.941    742.101    477.941    486.948    477.941
 54.270    640.621    679.047    -38.426    477.954    669.888    477.954    487.140    477.954
 54.370    622.000    627.829     -5.829    477.969    618.466    477.969    487.351    477.969
 54.470    572.000    594.065    -22.065    477.985    584.480    477.985    487.584    477.985
 54.570    595.086    573.164     21.922    478.003    563.339    478.003    487.839    478.003
 54.670    570.670    560.851      9.819    478.022    550.765    478.022    488.117    478.022
 54.770    599.000    553.892     45.108    478.042    543.523    478.042    488.419    478.042
 54.870    534.685    550.186    -15.501    478.064    539.509    478.064    488.748    478.064
 54.970    513.952    548.520    -34.568    478.087    537.510    478.087    489.103    478.087
 55.070    553.000    548.265      4.735    478.111    536.895    478.111    489.488    478.111
 55.170    597.479    549.130     48.349    478.137    537.369    478.137    489.905    478.137
 55.270    567.000    551.008     15.992    478.164    538.824    478.164    490.355    478.164
 55.370    548.000    553.906     -5.906    478.192    541.263    478.192    490.842    478.192
 55.470    572.538    557.923     14.615    478.221    544.783    478.221    491.369    478.221
 55.570    569.468    563.285      6.183    478.252    549.605    478.252    491.939    478.252
 55.670    606.000    570.444     35.556    478.284    556.179    478.284    492.556    478.284
 55.770    564.000    580.311    -16.311    478.317    565.410    478.317    493.225    478.317
 55.870    598.000    594.674      3.326    478.352    579.081    478.352    493.951    478.352
 55.970    639.913    616.886     23.028    478.387    600.538    478.387    494.740    478.387
 56.070    605.000    652.724    -47.724    478.424    635.554    478.424    495.598    478.424
 56.170    662.000    711.138    -49.138    478.462    693.068    478.462    496.531    478.462
 56.270    793.000    804.190    -11.190    478.502    785.136    478.502    497.549    478.502
 56.370    941.472    945.355     -3.883    478.542    925.226    478.542    498.660    478.542
 56.470   1177.866   1145.535     32.331    478.584   1124.233    478.584    499.873    478.584
 56.570   1342.320   1407.118    -64.799    478.626   1384.541    478.626    501.201    478.626
 56.670   1642.000   1717.389    -75.389    478.670   1693.428    478.670    502.653    478.670
 56.770   1943.000   2043.148   -100.148    478.715   2017.686    478.715    504.243    478.715
 56.870   2342.486   2329.090     13.396    478.761   2301.998    478.761    505.985    478.761
 56.970   2479.782   2506.689    -26.908    478.808   2477.818    478.808    507.893    478.808
 57.070   2527.562   2522.258      5.304    478.857   2491.418    478.857    509.983    478.857
 57.170   2287.442   2371.283    -83.841    478.906   2338.246    478.906    512.271    478.906
 57.270   2117.000   2102.092     14.908    478.956   2066.600    478.956    514.774    478.956
 57.370   1799.264   1783.655     15.609    479.008   1745.446    479.008    517.508    479.008
 57.470   1512.000   1474.364     37.636    479.060   1433.173    479.060    520.491    479.060
 57.570   1159.381   1210.773    -51.392    479.114   1166.334    479.114    523.736    479.114
 57.670   1034.489   1008.437     26.051    479.168    960.481    479.168    527.256    479.168
 57.770    811.659    867.052    -55.393    479.224    815.307    479.224    531.061    479.224
 57.870    815.319    777.110     38.209    479.280    721.300    479.280    535.152    479.280
 57.970    721.000    726.238     -5.238    479.338    666.095    479.338    539.522    479.338
 58.070    696.000    703.700     -7.700    479.396    638.969    479.396    544.154    479.396
 58.170    694.000    702.483     -8.483    479.456    632.943    479.456    549.013    479.456
 58.270    708.000    719.342    -11.342    479.516    644.825    479.516    554.041    479.516
 58.370    741.000    753.534    -12.534    479.577    673.952    479.577    559.157    479.577
 58.470    782.977    804.996    -22.019    479.639    720.375    479.639    564.251    479.639
 58.570    858.001    872.534    -14.533    479.702    783.040    479.702    569.182    479.702
 58.670    989.000    952.399     36.601    479.766    858.369    479.766    573.783    479.766
 58.770   1005.000   1037.682    -32.682    479.831    939.640    479.831    577.865    479.831
 58.870   1127.000   1119.309      7.691    479.897   1017.973    479.897    581.236    479.897
 58.970   1196.000   1188.787      7.213    479.964   1085.050    479.964    583.719    479.964
 59.070   1236.000   1239.804     -3.804    480.031   1134.699    480.031    585.172    480.031
 59.170   1356.000   1267.065     88.935    480.099   1161.709    480.099    585.508    480.099
 59.270   1292.000   1266.881     25.119    480.168   1162.401    480.168    584.712    480.168
 59.370   1266.000   1241.667     24.333    480.238   1139.129    480.238    582.840    480.238
 59.470   1182.213   1202.065    -19.853    480.309   1102.414    480.309    580.010    480.309
 59.570   1244.000   1162.446     81.554    480.380   1066.462    480.380    576.389    480.380
 59.670   1186.158   1135.576     50.582    480.452   1043.854    480.452    572.164    480.452
 59.770   1059.944   1131.285    -71.341    480.525   1044.230    480.525    567.528    480.525
 59.870   1161.000   1156.754      4.246    480.599   1074.596    480.599    562.659    480.599
 59.970   1203.000   1214.738    -11.738    480.673   1137.556    480.673    557.712    480.673
 60.070   1408.000   1299.989    108.011    480.748   1227.743    480.748    552.809    480.748
 60.170   1402.000   1397.043      4.957    480.824   1329.607    480.824    548.046    480.824
 60.270   1497.000   1481.195     15.805    480.901   1418.383    480.901    543.489    480.901
 60.370   1487.000   1524.015    -37.015    480.978   1465.604    480.978    539.182    480.978
 60.470   1535.757   1504.711     31.046    481.055   1450.445    481.055    535.151    481.055
 60.570   1401.000   1421.669    -20.669    481.134   1371.272    481.134    531.408    481.134
 60.670   1359.000   1292.759     66.241    481.213   1245.940    481.213    527.953    481.213
 60.770   1176.000   1144.230     31.770    481.293   1100.699    481.293    524.780    481.293
 60.870    969.000    999.741    -30.741    481.373    959.215    481.373    521.878    481.373
 60.970    857.000    875.439    -18.439    481.454    837.653    481.454    519.233    481.454
 61.070    761.000    779.372    -18.372    481.535    744.078    481.535    516.828    481.535
 61.170    714.453    713.101      1.352    481.617    680.071    481.617    514.645    481.617
 61.270    625.879    674.430    -48.551    481.700    643.456    481.700    512.667    481.700
 61.370    679.000    660.278     18.722    481.783    631.170    481.783    510.876    481.783
 61.470    710.000    668.762     41.238    481.866    641.348    481.866    509.254    481.866
 61.570    701.000    699.956      1.044    481.950    674.081    481.950    507.785    481.950
 61.670    742.000    755.249    -13.249    482.035    730.774    482.035    506.451    482.035
 61.770    859.000    835.588     23.412    482.120    812.391    482.120    505.238    482.120
 61.870    973.000    939.168     33.832    482.205    917.142    482.205    504.131    482.205
 61.970   1040.000   1059.247    -19.247    482.291   1038.304    482.291    503.118    482.291
 62.070   1125.000   1182.803    -57.803    482.378   1162.867    482.378    502.188    482.378
 62.170   1278.000   1290.475    -12.475    482.465   1271.489    482.465    501.330    482.465
 62.270   1268.000   1359.567    -91.567    482.552   1341.481    482.552    500.536    482.552
 62.370   1376.000   1371.745      4.255    482.640   1354.513    482.640    499.801    482.640
 62.470   1327.526   1322.894      4.631    482.728   1306.465    482.728    499.118    482.728
 62.570   1170.000   1225.917    -55.917    482.816   1210.237    482.816    498.484    482.816
 62.670   1135.000   1102.910     32.090    482.905   1087.924    482.905    497.896    482.905
 62.770    947.365    975.321    -27.956    482.994    960.980    482.994    497.350    482.994
 62.870    841.000    858.910    -17.910    483.083    845.167    483.083    496.845    483.083
 62.970    747.941    762.670    -14.729    483.173    749.482    483.173    496.377    483.173
 63.070    675.410    689.552    -14.142    483.263    676.882    483.263    495.945    483.263
 63.170    678.616    638.091     40.525    483.353    625.905    483.353    495.548    483.353
 63.270    638.000    604.391     33.609    483.444    592.658    483.444    495.182    483.444
 63.370    597.360    583.934     13.426    483.535    572.624    483.535    494.846    483.535
 63.470    610.000    572.815     37.185    483.626    561.901    483.626    494.538    483.626
 63.570    522.326    568.361    -46.035    483.717    557.817    483.717    494.257    483.717
 63.670    614.000    569.263     44.737    483.809    559.065    483.809    494.001    483.809
 63.770    562.000    575.453    -13.453    483.900    565.575    483.900    493.768    483.900
 63.870    589.000    587.837      1.163    483.992    578.257    483.992    493.556    483.992
 63.970    602.000    607.953     -5.953    484.084    598.648    484.084    493.365    484.084
 64.070    656.000    637.501     18.499    484.177    628.451    484.177    493.193    484.177
 64.170    678.000    677.740      0.260    484.269    668.925    484.269    493.038    484.269
 64.270    750.000    728.775     21.225    484.362    720.177    484.362    492.900    484.362
 64.370    772.000    788.821    -16.821    484.454    780.424    484.454    492.778    484.454
 64.470    840.000    853.574    -13.574    484.547    845.366    484.547    492.670    484.547
 64.570    931.117    915.900     15.217    484.640    907.872    484.640    492.577    484.640
 64.670    981.000    966.449     14.551    484.733    958.595    484.733    492.496    484.733
 64.770    990.000    996.054     -6.054    484.826    988.370    484.826    492.427    484.826
 64.870    944.209    999.421    -55.211    484.919    991.902    484.919    492.369    484.919
 64.970    954.000    977.337    -23.337    485.012    969.977    485.012    492.323    485.012
 65.070    923.428    935.725    -12.297    485.105    928.515    485.105    492.287    485.105
 65.170    880.000    883.019     -3.019    485.198    875.949    485.198    492.260    485.198
 65.270    807.000    827.452    -20.452    485.291    820.510    485.291    492.243    485.291
 65.370    802.000    775.088     26.912    485.384    768.261    485.384    492.235    485.384
 65.470    765.000    729.119     35.881    485.477    722.393    485.477    492.235    485.477
 65.570    644.000    690.333    -46.333    485.570    683.696    485.570    492.244    485.570
 65.670    645.000    658.267    -13.267    485.663    651.707    485.663    492.260    485.663
 65.770    613.000    632.217    -19.217    485.756    625.722    485.756    492.284    485.756
 65.870    604.000    611.544     -7.544    485.849    605.105    485.849    492.315    485.849
 65.970    613.070    595.589     17.481    485.941    589.200    485.941    492.353    485.941
 66.070    623.938    583.661     40.276    486.034    577.315    486.034    492.398    486.034
 66.170    569.000    575.121     -6.121    486.126    568.810    486.126    492.449    486.126
 66.270    542.114    569.438    -27.324    486.219    563.159    486.219    492.508    486.219
 66.370    605.415    566.209     39.206    486.311    559.955    486.311    492.572    486.311
 66.470    527.000    565.144    -38.144    486.403    558.911    486.403    492.644    486.403
 66.570    566.000    566.083     -0.083    486.494    559.864    486.494    492.721    486.494
 66.670    588.000    569.055     18.945    486.586    562.844    486.586    492.805    486.586
 66.770    596.417    574.397     22.021    486.677    568.187    486.677    492.895    486.677
 66.870    623.547    582.935     40.612    486.768    576.720    486.768    492.992    486.768
 66.970    557.000    596.241    -39.241    486.859    590.015    486.859    493.095    486.859
 67.070    652.000    616.939     35.061    486.950    610.695    486.950    493.204    486.950
 67.170    651.000    649.000      2.000    487.040    642.732    487.040    493.320    487.040
 67.270    623.000    697.867    -74.867    487.130    691.568    487.130    493.443    487.130
 67.370    770.000    770.206     -0.206    487.220    763.871    487.220    493.573    487.220
 67.470    816.402    873.069    -56.667    487.309    866.692    487.309    493.710    487.309
 67.570   1009.418   1012.344     -2.926    487.398   1005.923    487.398    493.854    487.398
 67.670   1139.000   1190.628    -51.628    487.487   1184.161    487.487    494.005    487.487
 67.770   1363.073   1404.874    -41.801    487.576   1398.362    487.576    494.165    487.576
 67.870   1620.000   1644.321    -24.321    487.664   1637.767    487.664    494.333    487.664
 67.970   1875.864   1889.123    -13.258    487.751   1882.529    487.751    494.509    487.751
 68.070   2040.602   2110.185    -69.583    487.839   2103.551    487.839    494.694    487.839
 68.170   2207.489   2271.930    -64.441    487.925   2265.252    487.925    494.889    487.925
 68.270   2418.000   2341.230     76.770    488.012   2334.495    488.012    495.094    488.012
 68.370   2260.000   2301.828    -41.828    488.098   2295.009    488.098    495.310    488.098
 68.470   2242.000   2163.464     78.536    488.183   2156.523    488.183    495.537    488.183
 68.570   1998.000   1956.044     41.956    488.269   1948.938    488.269    495.776    488.269
 68.670   1777.000   1715.453     61.547    488.353   1708.144    488.353    496.028    488.353
 68.770   1465.484   1472.945     -7.461    488.437   1465.403    488.437    496.294    488.437
 68.870   1237.359   1250.979    -13.620    488.521   1243.184    488.521    496.575    488.521
 68.970   1066.000   1062.755      3.245    488.604   1054.689    488.604    496.872    488.604
 69.070    905.000    913.292     -8.292    488.687    904.944    488.687    497.187    488.687
 69.170    819.000    801.345     17.655    488.769    792.704    488.769    497.522    488.769
 69.270    709.000    721.728    -12.728    488.850    712.780    488.850    497.877    488.850
 69.370    669.756    667.543      2.213    488.931    658.274    488.931    498.256    488.931
 69.470    635.000    631.907      3.093    489.011    622.297    489.011    498.661    489.011
 69.570    655.292    608.975     46.318    489.091    599.001    489.091    499.094    489.091
 69.670    603.000    594.331      8.669    489.170    583.965    489.170    499.559    489.170
 69.770    589.032    584.937      4.096    489.249    574.145    489.249    500.059    489.249
 69.870    600.000    578.856     21.144    489.327    567.599    489.327    500.598    489.327
 69.970    558.000    574.938    -16.938    489.404    563.173    489.404    501.181    489.404
 70.070    543.481    572.538    -29.057    489.481    560.215    489.481    501.814    489.481
 70.170    596.000    571.320     24.680    489.556    558.382    489.556    502.503    489.556
 70.270    578.253    571.133      7.119    489.632    557.518    489.632    503.255    489.632
 70.370    602.000    571.959     30.041    489.706    557.595    489.706    504.078    489.706
 70.470    583.000    573.894      9.106    489.780    558.700    489.780    504.980    489.780
 70.570    572.000    577.187     -5.187    489.853    561.071    489.853    505.973    489.853
 70.670    540.774    582.307    -41.534    489.925    565.168    489.925    507.068    489.925
 70.770    632.002    590.061     41.941    489.997    571.783    489.997    508.276    489.997
 70.870    547.000    601.737    -54.737    490.068    582.191    490.068    509.612    490.068
 70.970    613.000    619.264     -6.264    490.138    598.306    490.138    511.090    490.138
 71.070    582.000    645.326    -63.326    490.207    622.794    490.207    512.727    490.207
 71.170    669.000    683.357    -14.357    490.276    659.074    490.276    514.538    490.276
 71.270    751.000    737.314     13.686    490.343    711.086    490.343    516.540    490.343
 71.370    857.684    811.158     46.526    490.410    782.772    490.410    518.751    490.410
 71.470    904.000    908.003     -4.003    490.476    877.231    490.476    521.187    490.476
 71.570   1081.394   1029.035     52.359    490.541    995.633    490.541    523.865    490.541
 71.670   1079.000   1172.347    -93.347    490.605   1136.060    490.605    526.797    490.605
 71.770   1350.000   1331.917     18.083    490.669   1292.484    490.669    529.995    490.669
 71.870   1490.114   1496.906     -6.792    490.731   1454.062    490.731    533.462    490.731
 71.970   1584.783   1651.485    -66.702    490.793   1604.971    490.793    537.197    490.793
 72.070   1759.000   1775.883    -16.883    490.853   1725.456    490.853    541.185    490.853
 72.170   1868.000   1849.987     18.013    490.913   1795.432    490.913    545.399    490.913
 72.270   1817.086   1859.917    -42.830    490.972   1801.061    490.972    549.791    490.972
 72.370   1854.000   1804.333     49.667    491.030   1741.069    491.030    554.290    491.030
 72.470   1629.046   1695.114    -66.067    491.087   1627.429    491.087    558.795    491.087
 72.570   1592.000   1551.701     40.299    491.143   1479.713    491.143    563.173    491.143
 72.670   1513.000   1394.125    118.875    491.198   1318.117    491.198    567.259    491.198
 72.770   1284.000   1238.824     45.176    491.252   1159.266    491.252    570.865    491.252
 72.870   1050.110   1097.287    -47.178    491.305   1014.850    491.305    573.796    491.305
 72.970    966.000    976.124    -10.124    491.357    891.661    491.357    575.869    491.357
 73.070    878.965    877.734      1.231    491.407    792.243    491.407    576.941    491.407
 73.170    839.452    801.319     38.133    491.457    715.876    491.457    576.938    491.457
 73.270    731.000    744.048    -13.048    491.506    659.725    491.506    575.861    491.506
 73.370    701.000    702.162     -1.162    491.554    619.949    491.554    573.794    491.554
 73.470    656.000    671.853    -15.853    491.600    592.595    491.600    570.882    491.600
 73.570    678.672    649.816     28.855    491.646    574.173    491.646    567.311    491.646
 73.670    627.489    633.495     -6.006    491.690    561.930    491.690    563.276    491.690
 73.770    642.221    621.090     21.130    491.734    553.880    491.734    558.964    491.734
 73.870    613.000    611.440      1.560    491.776    548.700    491.776    554.537    491.776
 73.970    573.898    603.845    -29.948    491.817    545.560    491.817    550.125    491.817
 74.070    587.282    597.898    -10.616    491.857    543.954    491.857    545.826    491.857
 74.170    605.000    593.341     11.659    491.896    543.556    491.896    541.709    491.896
 74.270    601.000    589.967     11.033    491.933    544.112    491.933    537.821    491.933
 74.370    602.000    587.548     14.452    491.970    545.366    491.970    534.188    491.970
 74.470    579.964    585.792     -5.829    492.005    547.017    492.005    530.822    492.005
 74.570    579.000    584.333     -5.333    492.039    548.693    492.039    527.725    492.039
 74.670    637.000    582.736     54.264    492.072    549.965    492.072    524.892    492.072
 74.770    622.493    580.573     41.920    492.103    550.416    492.103    522.313    492.103
 74.870    599.972    577.547     22.425    492.134    549.761    492.134    519.972    492.134
 74.970    524.800    573.618    -48.818    492.163    547.976    492.163    517.855    492.163
 75.070    606.000    569.030     36.970    492.191    545.322    492.191    515.945    492.191
 75.170    662.000    564.216     97.784    492.217    542.250    492.217    514.224    492.217
 75.270    595.736    559.680     36.056    492.243    539.281    492.243    512.675    492.243
 75.370    562.000    555.924      6.076    492.267    536.936    492.267    511.282    492.267
 75.470    549.000    553.435     -4.435    492.290    535.716    492.290    510.030    492.290
 75.570    571.000    552.686     18.314    492.311    536.109    492.311    508.902    492.311
 75.670    566.000    554.140     11.860    492.331    538.591    492.331    507.887    492.331
 75.770    571.000    558.238     12.762    492.350    543.618    492.350    506.971    492.350
 75.870    555.000    565.357    -10.357    492.367    551.575    492.367    506.144    492.367
 75.970    563.000    575.738    -12.738    492.384    562.715    492.384    505.395    492.384
 76.070    545.250    589.399    -44.149    492.398    577.064    492.398    504.715    492.398
 76.170    593.000    606.041    -13.041    492.412    594.330    492.412    504.096    492.412
 76.270    626.000    624.953      1.047    492.424    613.812    492.424    503.531    492.424
 76.370    656.000    644.950     11.050    492.434    634.330    492.434    503.014    492.434
 76.470    713.266    664.344     48.923    492.444    654.202    492.444    502.539    492.444
 76.570    693.438    680.986     12.452    492.452    671.285    492.452    502.102    492.452
 76.670    665.000    692.514    -27.514    492.458    683.223    492.458    501.699    492.458
 76.770    733.041    696.908     36.133    492.463    687.996    492.463    501.325    492.463
 76.870    731.000    693.225     37.775    492.467    684.669    492.467    500.978    492.467
 76.970    703.000    682.032     20.968    492.469    673.808    492.469    500.655    492.469
 77.070    657.000    665.122     -8.122    492.469    657.207    492.469    500.353    492.469
 77.170    649.000    644.800      4.200    492.469    637.174    492.469    500.071    492.469
 77.270    658.366    623.265     35.101    492.467    615.908    492.467    499.806    492.467
 77.370    599.000    602.289     -3.289    492.463    595.182    492.463    499.557    492.463
 77.470    608.141    583.130     25.011    492.458    576.256    492.458    499.322    492.458
 77.570    572.793    566.544      6.249    492.451    559.888    492.451    499.101    492.451
 77.670    588.000    552.845     35.155    492.443    546.393    492.443    498.891    492.443
 77.770    501.102    541.996    -40.894    492.433    535.735    492.433    498.693    492.433
 77.870    519.000    533.718    -14.718    492.422    527.635    492.422    498.504    492.422
 77.970    513.000    527.596    -14.596    492.409    521.680    492.409    498.324    492.409
 78.070    540.000    523.177     16.823    492.395    517.419    492.395    498.153    492.395
 78.170    561.095    520.038     41.057    492.379    514.428    492.379    497.990    492.379
 78.270    520.000    517.819      2.181    492.362    512.348    492.362    497.834    492.362
 78.370    526.000    516.241      9.759    492.343    510.901    492.343    497.684    492.343
 78.470    510.827    515.105     -4.277    492.323    509.888    492.323    497.540    492.323
 78.570    550.258    514.273     35.986    492.301    509.172    492.301    497.402    492.301
 78.670    511.000    513.659     -2.659    492.277    508.668    492.277    497.269    492.277
 78.770    532.000    513.216     18.784    492.252    508.328    492.252    497.141    492.252
 78.870    491.000    512.918    -21.918    492.225    508.127    492.225    497.017    492.225
 78.970    508.000    512.760     -4.760    492.197    508.060    492.197    496.897    492.197
 79.070    493.000    512.748    -19.748    492.167    508.134    492.167    496.781    492.167
 79.170    488.090    512.897    -24.808    492.135    508.364    492.135    496.668    492.135
 79.270    532.617    513.216     19.401    492.102    508.759    492.102    496.559    492.102
 79.370    536.000    513.743     22.257    492.067    509.357    492.067    496.453    492.067
 79.470    519.000    514.548      4.452    492.030    510.229    492.030    496.349    492.030
 79.570    508.000    515.654     -7.654    491.992    511.397    491.992    496.248    491.992
 79.670    526.000    517.117      8.883    491.952    512.920    491.952    496.149    491.952
 79.770    539.000    519.017     19.983    491.911    514.875    491.911    496.052    491.911
 79.870    530.000    521.462      8.538    491.868    517.371    491.868    495.957    491.868
 79.970    565.917    524.597     41.320    491.823    520.555    491.823    495.863    491.823
 80.070    548.000    528.612     19.388    491.777    524.615    491.777    495.770    491.777
 80.170    558.456    533.744     24.712    491.728    529.791    491.728    495.679    491.728
 80.270    524.153    540.284    -16.131    491.679    536.373    491.679    495.588    491.679
 80.370    569.000    548.569     20.431    491.627    544.699    491.627    495.497    491.627
 80.470    563.000    558.951      4.049    491.574    555.121    491.574    495.406    491.574
 80.570    527.000    571.719    -44.719    491.519    567.928    491.519    495.314    491.519
 80.670    571.000    587.008    -16.008    491.462    583.256    491.462    495.222    491.462
 80.770    561.796    604.702    -42.906    491.404    600.989    491.404    495.129    491.404
 80.870    651.000    624.371     26.629    491.344    620.698    491.344    495.034    491.344
 80.970    583.000    645.252    -62.252    491.282    641.620    491.282    494.938    491.282
 81.070    620.000    666.289    -46.289    491.219    662.698    491.219    494.840    491.219
 81.170    680.840    686.262     -5.422    491.153    682.712    491.153    494.740    491.153
 81.270    665.000    703.957    -38.957    491.086    700.450    491.086    494.639    491.086
 81.370    696.000    718.332    -22.332    491.017    714.866    491.017    494.536    491.017
 81.470    698.663    728.598    -29.935    490.947    725.173    490.947    494.432    490.947
 81.570    700.000    734.269    -34.269    490.875    730.883    490.875    494.326    490.875
 81.670    720.181    735.189    -15.008    490.801    731.842    490.801    494.219    490.801
 81.770    754.185    731.498     22.687    490.725    728.186    490.725    494.112    490.725
 81.870    718.000    723.550     -5.550    490.647    720.272    490.647    494.003    490.647
 81.970    742.057    711.904     30.153    490.568    708.657    490.568    493.894    490.568
 82.070    668.000    697.356    -29.356    490.487    694.137    490.487    493.784    490.487
 82.170    672.000    680.899     -8.899    490.404    677.705    490.404    493.674    490.404
 82.270    686.965    663.545     23.420    490.319    660.374    490.319    493.564    490.319
 82.370    680.000    646.123     33.877    490.233    642.971    490.233    493.453    490.233
 82.470    610.109    629.181    -19.072    490.145    626.047    490.145    493.342    490.145
 82.570    588.945    613.048    -24.103    490.055    609.930    490.055    493.231    490.055
 82.670    658.000    597.962     60.038    489.963    594.857    489.963    493.119    489.963
 82.770    555.000    584.158    -29.158    489.869    581.065    489.869    493.008    489.869
 82.870    537.000    571.893    -34.893    489.774    568.809    489.774    492.895    489.774
 82.970    591.000    561.405     29.595    489.676    558.329    489.676    492.783    489.676
 83.070    543.000    552.880     -9.880    489.577    549.809    489.577    492.670    489.577
 83.170    561.000    546.434     14.566    489.476    543.368    489.476    492.556    489.476
 83.270    583.811    542.106     41.705    489.374    539.044    489.374    492.442    489.374
 83.370    562.550    539.852     22.698    489.269    536.792    489.269    492.328    489.269
 83.470    512.000    539.535    -27.535    489.163    536.476    489.163    492.213    489.163
 83.570    527.106    540.919    -13.813    489.055    537.859    489.055    492.097    489.055
 83.670    519.000    543.664    -24.664    488.945    540.603    488.945    491.981    488.945
 83.770    520.000    547.339    -27.339    488.833    544.276    488.833    491.864    488.833
 83.870    543.000    551.426     -8.426    488.719    548.362    488.719    491.747    488.719
 83.970    591.942    555.346     36.597    488.604    552.280    488.604    491.628    488.604
 84.070    590.676    558.498     32.178    488.486    555.430    488.486    491.510    488.486
 84.170    562.572    560.333      2.239    488.367    557.265    488.367    491.390    488.367
 84.270    589.000    560.460     28.540    488.246    557.392    488.246    491.269    488.246
 84.370    538.000    558.736    -20.736    488.123    555.669    488.123    491.148    488.123
 84.470    547.000    555.306     -8.306    487.999    552.239    487.999    491.026    487.999
 84.570    539.000    550.532    -11.532    487.872    547.466    487.872    490.903    487.872
 84.670    550.755    544.883      5.872    487.744    541.818    487.744    490.780    487.744
 84.770    573.000    538.837     34.163    487.614    535.770    487.614    490.655    487.614
 84.870    500.000    532.810    -32.810    487.482    529.741    487.482    490.530    487.482
 84.970    490.611    527.138    -36.527    487.348    524.065    487.348    490.404    487.348
 85.070    525.776    522.055      3.721    487.212    518.977    487.212    490.277    487.212
 85.170    520.000    517.702      2.298    487.074    514.617    487.074    490.149    487.074
 85.270    471.214    514.134    -42.920    486.935    511.040    486.935    490.020    486.935
 85.370    469.000    511.338    -42.338    486.794    508.234    486.794    489.891    486.794
 85.470    484.000    509.256    -25.256    486.651    506.140    486.651    489.761    486.651
 85.570    500.610    507.805     -7.195    486.506    504.676    486.506    489.630    486.506
 85.670    498.000    506.901     -8.901    486.359    503.757    486.359    489.498    486.359
 85.770    514.000    506.471      7.529    486.210    503.312    486.210    489.365    486.210
 85.870    535.567    506.470     29.097    486.060    503.292    486.060    489.231    486.060
 85.970    511.000    506.880      4.120    485.908    503.684    485.908    489.097    485.908
 86.070    509.000    507.722      1.278    485.754    504.505    485.754    488.962    485.754
 86.170    492.000    509.053    -17.053    485.598    505.813    485.598    488.827    485.598
 86.270    540.000    510.960     29.040    485.440    507.696    485.440    488.691    485.440
 86.370    520.000    513.559      6.441    485.280    510.270    485.280    488.554    485.280
 86.470    512.000    516.983     -4.983    485.119    513.666    485.119    488.416    485.119
 86.570    555.000    521.368     33.632    484.955    518.020    484.955    488.278    484.955
 86.670    568.000    526.830     41.170    484.790    523.450    484.790    488.139    484.790
 86.770    490.002    533.449    -43.448    484.623    530.034    484.623    488.000    484.623
 86.870    573.272    541.237     32.036    484.455    537.783    484.455    487.861    484.455
 86.970    553.000    550.111      2.889    484.284    546.618    484.284    487.721    484.284
 87.070    544.000    559.875    -15.875    484.112    556.340    484.112    487.580    484.112
 87.170    563.000    570.195     -7.195    483.937    566.616    483.937    487.440    483.937
 87.270    538.000    580.591    -42.591    483.761    576.968    483.761    487.299    483.761
 87.370    584.000    590.447     -6.447    483.584    586.778    483.584    487.158    483.584
 87.470    613.000    599.030     13.970    483.404    595.316    483.404    487.017    483.404
 87.570    634.000    605.580     28.420    483.222    601.823    483.222    486.876    483.222
 87.670    640.013    609.445     30.568    483.039    605.646    483.039    486.735    483.039
 87.770    566.973    610.253    -43.281    482.854    606.414    482.854    486.594    482.854
 87.870    624.011    608.028     15.983    482.667    604.149    482.667    486.453    482.667
 87.970    669.000    603.174     65.826    482.479    599.257    482.479    486.313    482.479
 88.070    609.818    596.366     13.451    482.288    592.410    482.288    486.173    482.288
 88.170    673.000    588.399     84.601    482.096    584.402    482.096    486.034    482.096
 88.270    602.000    580.075     21.925    481.902    576.035    481.902    485.896    481.902
 88.370    580.000    572.137      7.863    481.706    568.050    481.706    485.759    481.706
 88.470    553.000    565.216    -12.216    481.509    561.078    481.509    485.623    481.509
 88.570    585.000    559.800     25.200    481.310    555.608    481.310    485.488    481.310
 88.670    561.000    556.214      4.786    481.109    551.964    481.109    485.354    481.109
 88.770    580.157    554.606     25.551    480.906    550.294    480.906    485.223    480.906
 88.870    601.000    554.955     46.045    480.701    550.576    480.701    485.093    480.701
 88.970    567.000    557.072      9.928    480.495    552.623    480.495    484.966    480.495
 89.070    607.000    560.626     46.374    480.287    556.102    480.287    484.841    480.287
 89.170    546.000    565.159    -19.159    480.077    560.555    480.077    484.719    480.077
 89.270    552.709    570.110    -17.402    479.866    565.422    479.866    484.600    479.866
 89.370    587.000    574.851     12.149    479.653    570.071    479.653    484.484    479.653
 89.470    600.000    578.730     21.270    479.438    573.853    479.438    484.373    479.438
 89.570    614.000    581.145     32.855    479.221    576.163    479.221    484.266    479.221
 89.670    623.000    581.645     41.355    479.003    576.551    479.003    484.164    479.003
 89.770    562.000    580.032    -18.032    478.783    574.815    478.783    484.067    478.783
 89.870    550.519    576.393    -25.873    478.561    571.044    478.561    483.976    478.561
 89.970    587.000    571.060     15.940    478.338    565.569    478.338    483.891    478.338
 90.070    588.000    564.505     23.495    478.113    558.862    478.113    483.813    478.113
 90.170    550.000    557.237     -7.237    477.886    551.432    477.886    483.743    477.886
 90.270    559.719    549.732      9.987    477.658    543.755    477.658    483.681    477.658
 90.370    563.467    542.397     21.070    477.428    536.236    477.428    483.628    477.428
 90.470    518.468    535.550    -17.082    477.196    529.195    477.196    483.585    477.196
 90.570    482.000    529.418    -47.418    476.963    522.856    476.963    483.552    476.963
 90.670    512.000    524.140    -12.140    476.728    517.360    476.728    483.530    476.728
 90.770    461.000    519.775    -58.775    476.492    512.764    476.492    483.520    476.492
 90.870    554.186    516.321     37.865    476.254    509.065    476.254    483.523    476.254
 90.970    485.143    513.727    -28.584    476.014    506.212    476.014    483.539    476.014
 91.070    483.655    511.917    -28.262    475.773    504.128    475.773    483.570    475.773
 91.170    534.933    510.808     24.124    475.530    502.728    475.530    483.615    475.530
 91.270    472.143    510.324    -38.181    475.286    501.937    475.286    483.677    475.286
 91.370    527.000    510.411     16.589    475.040    501.697    475.040    483.755    475.040
 91.470    525.570    511.040     14.530    474.792    501.983    474.792    483.851    474.792
 91.570    555.442    512.223     43.219    474.543    502.802    474.543    483.964    474.543
 91.670    523.223    514.005      9.219    474.292    504.200    474.292    484.095    474.292
 91.770    493.000    516.469    -23.469    474.040    506.260    474.040    484.245    474.040
 91.870    509.000    519.733    -10.733    473.787    509.100    473.787    484.414    473.787
 91.970    514.000    523.942     -9.942    473.532    512.865    473.532    484.602    473.532
 92.070    493.000    529.263    -36.263    473.275    517.721    473.275    484.807    473.275
 92.170    516.000    535.866    -19.866    473.017    523.840    473.017    485.029    473.017
 92.270    508.000    543.914    -35.914    472.757    531.386    472.757    485.268    472.757
 92.370    534.000    553.542    -19.542    472.496    540.497    472.496    485.520    472.496
 92.470    559.230    564.838     -5.608    472.234    551.262    472.234    485.784    472.234
 92.570    541.288    577.812    -36.524    471.970    563.696    471.970    486.055    471.970
 92.670    612.000    592.452     19.548    471.705    577.789    471.705    486.330    471.705
 92.770    577.000    608.589    -31.589    471.438    593.380    471.438    486.604    471.438
 92.870    614.000    625.965    -11.965    471.170    610.217    471.170    486.870    471.170
 92.970    627.000    644.213    -17.213    470.900    627.938    470.900    487.121    470.900
 93.070    619.518    662.869    -43.351    470.630    646.090    470.630    487.350    470.630
 93.170    658.352    681.386    -23.034    470.357    664.134    470.357    487.547    470.357
 93.270    686.000    699.213    -13.213    470.084    681.528    470.084    487.705    470.084
 93.370    725.000    715.890      9.110    469.809    697.819    469.809    487.814    469.809
 93.470    679.000    731.148    -52.148    469.533    712.749    469.533    487.866    469.533
 93.570    782.000    744.961     37.039    469.255    726.297    469.255    487.855    469.255
 93.670    763.152    757.505      5.647    468.977    738.645    468.977    487.774    468.977
 93.770    794.078    769.053     25.025    468.697    750.069    468.697    487.620    468.697
 93.870    747.534    779.867    -32.333    468.415    760.832    468.415    487.392    468.415
 93.970    830.000    790.139     39.861    468.133    771.126    468.133    487.090    468.133
 94.070    788.977    800.004    -11.027    467.849    781.081    467.849    486.719    467.849
 94.170    873.000    809.595     63.405    467.564    790.826    467.564    486.284    467.564
 94.270    830.410    819.085     11.325    467.278    800.526    467.278    485.790    467.278
 94.370    852.000    828.650     23.350    466.990    810.349    466.990    485.248    466.990
 94.470    895.524    838.371     57.154    466.702    820.367    466.702    484.666    466.702
 94.570    859.971    848.100     11.872    466.412    830.424    466.412    484.052    466.412
 94.670    860.000    857.380      2.620    466.121    840.054    466.121    483.417    466.121
 94.770    858.000    865.433     -7.433    465.829    848.471    465.829    482.767    465.829
 94.870    902.000    871.228     30.772    465.536    854.635    465.536    482.111    465.536
 94.970    812.664    873.623    -60.959    465.242    857.398    465.242    481.456    465.242
 95.070    938.000    871.568     66.432    464.946    855.705    464.946    480.807    464.946
 95.170    926.250    864.338     61.912    464.650    848.823    464.650    480.169    464.650
 95.270    823.164    851.815    -28.651    464.353    836.634    464.353    479.546    464.353
 95.370    868.000    834.522     33.478    464.054    819.652    464.054    478.941    464.054
 95.470    832.000    813.465     18.535    463.755    798.884    463.755    478.357    463.755
 95.570    815.346    790.063     25.283    463.454    775.745    463.454    477.796    463.454
 95.670    819.687    765.930     53.757    463.153    751.848    463.153    477.259    463.153
 95.770    801.000    742.725     58.275    462.851    728.852    462.851    476.747    462.851
 95.870    750.000    722.056     27.944    462.547    708.362    462.547    476.262    462.547
 95.970    727.000    705.415     21.585    462.243    691.872    462.243    475.803    462.243
 96.070    701.000    694.142      6.858    461.938    680.721    461.938    475.372    461.938
 96.170    703.000    689.398     13.602    461.632    676.069    461.632    474.968    461.632
 96.270    677.000    692.148    -15.148    461.325    678.881    461.325    474.592    461.325
 96.370    695.655    703.146     -7.491    461.018    689.912    461.018    474.245    461.018
 96.470    764.330    722.923     41.407    460.709    709.693    460.709    473.926    460.709
 96.570    725.812    751.764    -25.952    460.400    738.509    460.400    473.635    460.400
 96.670    753.792    789.677    -35.885    460.090    776.366    460.090    473.374    460.090
 96.770    833.000    836.344     -3.344    459.779    822.949    459.779    473.143    459.779
 96.870    897.591    891.074      6.517    459.468    877.563    459.468    472.941    459.468
 96.970    893.926    952.741    -58.815    459.155    939.085    459.155    472.771    459.155
 97.070    988.000   1019.744    -31.744    458.842   1005.912    458.842    472.632    458.842
 97.170   1121.000   1089.972     31.028    458.529   1075.933    458.529    472.526    458.529
 97.270   1060.000   1160.800   -100.800    458.214   1146.522    458.214    472.453    458.214
 97.370   1191.000   1229.119    -38.119    457.899   1214.571    457.899    472.415    457.899
 97.470   1273.703   1291.435    -17.732    457.584   1276.582    457.584    472.414    457.584
 97.570   1331.000   1344.077    -13.077    457.267   1328.885    457.267    472.450    457.267
 97.670   1389.000   1383.570      5.430    456.951   1368.002    456.951    472.526    456.951
 97.770   1396.000   1407.136    -11.136    456.633   1391.151    456.633    472.643    456.633
 97.870   1466.000   1413.210     52.790    456.316   1396.765    456.316    472.804    456.316
 97.970   1374.765   1401.751    -26.986    455.997   1384.799    455.997    473.010    455.997
 98.070   1413.000   1374.212     38.788    455.678   1356.703    455.678    473.264    455.678
 98.170   1312.000   1333.200    -21.200    455.359   1315.080    455.359    473.568    455.359
 98.270   1203.000   1282.000    -79.000    455.039   1263.211    455.039    473.925    455.039
 98.370   1241.000   1224.136     16.864    454.719   1204.619    454.719    474.338    454.719
 98.470   1220.000   1163.097     56.903    454.399   1142.790    454.399    474.808    454.399
 98.570   1063.000   1102.132    -39.132    454.078   1080.970    454.078    475.339    454.078
 98.670    990.778   1044.126    -53.348    453.757   1022.042    453.757    475.934    453.757
 98.770   1027.000    991.596     35.404    453.435    968.522    453.435    476.595    453.435
 98.870   1004.180    946.674     57.506    453.113    922.540    453.113    477.325    453.113
 98.970    916.018    911.120      4.898    452.791    885.853    452.791    478.126    452.791
 99.070    909.722    886.336     23.386    452.469    859.862    452.469    479.000    452.469
 99.170    825.063    873.383    -48.320    452.146    845.627    452.146    479.950    452.146
 99.270    830.000    873.000    -43.000    451.824    843.887    451.824    480.977    451.824
 99.370    848.000    885.624    -37.624    451.501    855.076    451.501    482.083    451.501
 99.470    868.359    911.399    -43.040    451.178    879.340    451.178    483.266    451.178
 99.570    952.000    950.185      1.815    450.854    916.539    450.854    484.528    450.854
 99.670   1021.473   1001.541     19.931    450.531    966.236    450.531    485.866    450.531
 99.770   1008.757   1064.706    -55.949    450.208   1027.669    450.208    487.279    450.208
 99.870   1152.000   1138.555     13.445    449.885   1099.720    449.885    488.761    449.885
 99.970   1208.000   1221.565    -13.565    449.561   1180.871    449.561    490.307    449.561
100.070   1330.000   1311.770     18.230    449.238   1269.167    449.238    491.908    449.238
100.170   1400.635   1406.748     -6.113    448.915   1362.193    448.915    493.555    448.915
100.270   1539.000   1503.632     35.368    448.591   1457.098    448.591    495.232    448.591
100.370   1525.000   1599.203    -74.203    448.268   1550.679    448.268    496.924    448.268
100.470   1752.000   1690.068     61.932    447.945   1639.563    447.945    498.611    447.945
100.570   1708.847   1772.922    -64.075    447.623   1720.467    447.623    500.268    447.623
100.670   1914.000   1844.821     69.179    447.300   1790.472    447.300    501.868    447.300
100.770   1944.708   1903.366     41.343    446.978   1847.210    446.978    503.381    446.978
100.870   1923.000   1946.732    -23.732    446.656   1888.886    446.656    504.775    446.656
100.970   1947.000   1973.581    -26.581    446.334   1914.196    446.334    506.014    446.334
101.070   2048.523   1982.974     65.550    446.012   1922.233    446.012    507.066    446.012
101.170   1962.000   1974.442    -12.442    445.691   1912.562    445.691    507.897    445.691
101.270   2025.000   1948.220     76.780    445.370   1885.447    445.370    508.478    445.370
101.370   1902.000   1905.539     -3.539    445.050   1842.141    445.050    508.784    445.050
101.470   1840.000   1848.761     -8.761    444.730   1785.024    444.730    508.800    444.730
101.570   1751.000   1781.239    -30.239    444.411   1717.458    444.411    508.516    444.411
101.670   1714.000   1706.913      7.087    444.092   1643.384    444.092    507.932    444.092
101.770   1685.000   1629.802     55.198    443.773   1566.814    443.773    507.056    443.773
101.870   1523.656   1553.563    -29.907    443.455   1491.388    443.455    505.907    443.455
101.970   1433.777   1481.201    -47.424    443.138   1420.088    443.138    504.508    443.138
102.070   1420.000   1414.925      5.075    442.821   1355.096    442.821    502.887    442.821
102.170   1362.000   1356.115      5.885    442.505   1297.759    442.505    501.079    442.505
102.270   1289.000   1305.345    -16.345    442.190   1248.619    442.190    499.117    442.190
102.370   1220.887   1262.440    -41.553    441.875   1207.466    441.875    497.036    441.875
102.470   1183.882   1226.571    -42.688    441.561   1173.439    441.561    494.868    441.561
102.570   1213.905   1196.351     17.554    441.248   1145.121    441.248    492.644    441.248
102.670   1144.000   1169.982    -25.982    440.936   1120.686    440.936    490.391    440.936
102.770   1125.000   1145.465    -20.465    440.625   1098.111    440.625    488.132    440.625
102.870   1173.000   1120.876     52.124    440.314   1075.451    440.314    485.889    440.314
102.970   1051.000   1094.558    -43.558    440.004   1051.031    440.004    483.678    440.004
103.070   1041.000   1065.396    -24.396    439.696   1023.723    439.696    481.512    439.696
103.170   1039.000   1032.910      6.090    439.388    993.035    439.388    479.403    439.388
103.270    966.538    997.215    -30.677    439.082    959.072    439.082    477.358    439.082
103.370    927.833    958.877    -31.044    438.776    922.397    438.776    475.384    438.776
103.470    913.000    918.737     -5.737    438.472    883.844    438.472    473.485    438.472
103.570    915.000    877.746     37.254    438.168    844.362    438.168    471.664    438.168
103.670    797.000    836.855    -39.855    437.866    804.902    437.866    469.922    437.866
103.770    844.699    796.942     47.757    437.565    766.341    437.565    468.259    437.565
103.870    729.522    758.771    -29.249    437.266    729.445    437.266    466.676    437.266
103.970    766.000    722.968     43.032    436.967    694.839    436.967    465.170    436.967
104.070    675.519    690.005    -14.485    436.670    662.999    436.670    463.741    436.670
104.170    626.413    660.197    -33.784    436.375    634.241    436.375    462.387    436.375
104.270    637.000    633.708      3.292    436.080    608.733    436.080    461.104    436.080
104.370    656.839    610.563     46.276    435.787    586.500    435.787    459.892    435.787
104.470    617.000    590.670     26.330    435.496    567.455    435.496    458.746    435.496
104.570    581.000    573.845      7.155    435.206    551.417    435.206    457.664    435.206
104.670    559.431    559.842     -0.411    434.918    538.141    434.918    456.644    434.918
104.770    510.960    548.377    -37.417    434.631    527.347    434.631    455.682    434.631
104.870    563.823    539.155     24.668    434.346    518.742    434.346    454.775    434.346
104.970    571.000    531.888     39.112    434.063    512.042    434.063    453.921    434.063
105.070    567.000    526.313     40.687    433.781    506.987    433.781    453.118    433.781
105.170    510.626    522.203    -11.577    433.501    503.351    433.501    452.361    433.501
105.270    502.360    519.369    -17.010    433.223    500.949    433.223    451.649    433.223
105.370    601.000    517.668     83.332    432.946    499.639    432.946    450.980    432.946
105.470    529.000    516.997     12.003    432.672    499.321    432.672    450.350    432.672
105.570    551.073    517.293     33.780    432.399    499.934    432.399    449.759    432.399
105.670    552.000    518.526     33.474    432.129    501.451    432.129    449.202    432.129
105.770    529.000    520.697      8.303    431.860    503.874    431.860    448.680    431.860
105.870    522.000    523.827     -1.827    431.594    507.226    431.594    448.189    431.594
105.970    552.000    527.953     24.047    431.329    511.545    431.329    447.729    431.329
106.070    511.930    533.115    -21.185    431.067    516.874    431.067    447.297    431.067
106.170    529.510    539.350     -9.840    430.807    523.251    430.807    446.893    430.807
106.270    500.423    546.677    -46.254    430.549    530.695    430.549    446.515    430.549
106.370    578.903    555.087     23.816    430.293    539.200    430.293    446.162    430.293
106.470    586.986    564.535     22.451    430.040    548.721    430.040    445.832    430.040
106.570    572.498    574.928     -2.431    429.789    559.167    429.789    445.526    429.789
106.670    569.796    586.128    -16.332    429.540    570.400    429.540    445.242    429.540
106.770    588.559    597.943     -9.384    429.294    582.228    429.294    444.980    429.294
106.870    655.538    610.130     45.407    429.050    594.411    429.050    444.739    429.050
106.970    606.912    622.402    -15.490    428.809    606.661    428.809    444.518    428.809
107.070    635.627    634.431      1.197    428.571    618.649    428.571    444.317    428.571
107.170    614.000    645.858    -31.858    428.334    630.021    428.334    444.137    428.334
107.270    661.000    656.320      4.680    428.101    640.411    428.101    443.976    428.101
107.370    643.000    665.473    -22.473    427.871    649.474    427.871    443.835    427.871
107.470    721.360    673.030     48.330    427.643    656.927    427.643    443.714    427.643
107.570    680.000    678.810      1.190    427.418    662.587    427.418    443.612    427.418
107.670    645.000    682.770    -37.770    427.195    666.409    427.195    443.530    427.195
107.770    672.313    685.017    -12.704    426.976    668.503    426.976    443.469    426.976
107.870    708.436    685.799     22.638    426.760    669.113    426.760    443.428    426.760
107.970    639.000    685.461    -46.461    426.546    668.587    426.546    443.407    426.546
108.070    650.000    684.395    -34.395    426.336    667.314    426.336    443.408    426.336
108.170    682.000    683.000     -1.000    426.129    665.694    426.129    443.431    426.129
108.270    653.359    681.622    -28.263    425.924    664.071    425.924    443.476    425.924
108.370    715.093    680.536     34.557    425.724    662.720    425.724    443.545    425.724
108.470    676.000    679.927     -3.927    425.526    661.825    425.526    443.637    425.526
108.570    673.000    679.878     -6.878    425.331    661.469    425.331    443.754    425.331
108.670    669.000    680.368    -11.368    425.140    661.628    425.140    443.897    425.140
108.770    668.000    681.268    -13.268    424.953    662.175    424.953    444.067    424.953
108.870    686.595    682.354      4.240    424.768    662.883    424.768    444.265    424.768
108.970    681.000    683.317     -2.317    424.588    663.441    424.588    444.492    424.588
109.070    642.946    683.788    -40.842    424.411    663.480    424.411    444.750    424.411
109.170    705.000    683.380     21.620    424.237    662.611    424.237    445.041    424.237
109.270    666.564    681.732    -15.168    424.067    660.471    424.067    445.365    424.067
109.370    672.000    678.563     -6.563    423.901    656.778    423.901    445.725    423.901
109.470    696.000    673.738     22.262    423.738    651.394    423.738    446.122    423.738
109.570    666.000    667.246     -1.246    423.579    644.307    423.579    446.559    423.579
109.670    700.000    659.220     40.780    423.425    635.648    423.425    447.038    423.425
109.770    660.953    649.907     11.046    423.274    625.661    423.274    447.560    423.274
109.870    680.002    639.618     40.384    423.127    614.655    423.127    448.129    423.127
109.970    598.128    628.694    -30.566    422.984    602.969    422.984    448.746    422.984
110.070    636.000    617.472     18.528    422.845    590.936    422.845    449.415    422.845
110.170    585.037    606.268    -21.231    422.710    578.871    422.710    450.139    422.710
110.270    578.894    595.363    -16.469    422.580    567.053    422.580    450.919    422.580
110.370    588.000    585.000      3.000    422.453    555.720    422.453    451.760    422.453
110.470    602.807    575.378     27.429    422.331    545.069    422.331    452.665    422.331
110.570    585.000    566.653     18.347    422.213    535.252    422.213    453.636    422.213
110.670    618.000    558.935     59.065    422.100    526.376    422.100    454.677    422.100
110.770    583.000    552.295     30.705    421.991    518.510    421.991    455.792    421.991
110.870    549.617    546.764      2.853    421.887    511.680    421.887    456.985    421.887
110.970    517.903    542.340    -24.437    421.787    505.880    421.787    458.259    421.787
111.070    563.699    538.993     24.706    421.692    501.077    421.692    459.617    421.692
111.170    530.791    536.669     -5.878    421.602    497.214    421.602    461.064    421.602
111.270    566.000    535.299     30.701    421.516    494.217    421.516    462.603    421.516
111.370    561.000    534.804     26.196    421.435    492.004    421.435    464.238    421.435
111.470    522.000    535.099    -13.099    421.359    490.487    421.359    465.973    421.359
111.570    555.990    536.099     19.891    421.288    489.576    421.288    467.812    421.288
111.670    492.092    537.722    -45.630    421.222    489.187    421.222    469.757    421.222
111.770    579.000    539.893     39.107    421.161    489.240    421.161    471.813    421.161
111.870    509.319    542.542    -33.223    421.105    489.664    421.105    473.982    421.105
111.970    550.000    545.610      4.390    421.054    490.395    421.054    476.267    421.054
112.070    572.399    549.049     23.351    421.009    491.384    421.009    478.671    421.009
112.170    586.000    552.818     33.182    420.968    492.588    420.968    481.196    420.968
112.270    539.000    556.891    -17.891    420.933    493.978    420.933    483.843    420.933
112.370    549.000    561.255    -12.255    420.904    495.543    420.904    486.613    420.904
112.470    563.822    565.905     -2.083    420.880    497.275    420.880    489.506    420.880
112.570    598.000    570.850     27.150    420.861    499.185    420.861    492.522    420.861
112.670    601.803    576.108     25.696    420.848    501.293    420.848    495.659    420.848
112.770    599.000    581.710     17.290    420.841    503.634    420.841    498.914    420.841
112.870    589.000    587.700      1.300    420.840    506.254    420.840    502.282    420.840
112.970    566.560    594.133    -27.573    420.844    509.216    420.844    505.757    420.844
113.070    606.000    601.085      4.915    420.854    512.604    420.854    509.331    420.854
113.170    565.000    608.652    -43.652    420.870    516.522    420.870    512.995    420.870
113.270    580.000    616.960    -36.960    420.892    521.112    420.892    516.735    420.892
113.370    626.000    626.174     -0.174    420.920    526.552    420.920    520.536    420.920
113.470    571.000    636.507    -65.507    420.954    533.073    420.954    524.381    420.954
113.570    600.000    648.234    -48.234    420.994    540.973    420.994    528.247    420.994
113.670    629.000    661.709    -32.709    421.041    550.630    421.041    532.110    421.041
113.770    719.448    677.380     42.068    421.094    562.519    421.094    535.941    421.094
113.870    663.000    695.809    -32.809    421.153    577.236    421.153    539.709    421.153
113.970    730.285    717.695     12.590    421.218    595.512    421.218    543.379    421.218
114.070    771.535    743.891     27.645    421.290    618.240    421.290    546.913    421.290
114.170    804.144    775.422     28.722    421.369    646.486    421.369    550.271    421.369
114.270    777.000    813.507    -36.507    421.454    681.508    421.454    553.410    421.454
114.370    882.637    859.561     23.076    421.546    724.765    421.546    556.287    421.546
114.470    909.000    915.196     -6.196    421.645    777.911    421.645    558.862    421.645
114.570    962.384    982.182    -19.798    421.751    842.755    421.751    561.093    421.751
114.670   1056.000   1062.573     -6.573    421.863    921.387    421.863    562.946    421.863
114.770   1120.000   1158.448    -38.448    421.983   1015.918    421.983    564.388    421.983
114.870   1295.390   1271.965     23.425    422.109   1128.532    422.109    565.396    422.109
114.970   1418.000   1405.284     12.716    422.243   1261.403    422.243    565.952    422.243
115.070   1639.471   1560.454     79.017    422.384   1416.590    422.384    566.048    422.384
115.170   1826.000   1739.297     86.703    422.532   1595.915    422.532    565.685    422.532
115.270   1935.000   1943.275     -8.275    422.688   1800.832    422.688    564.872    422.688
115.370   2297.000   2173.350    123.650    422.850   2032.285    422.850    563.628    422.850
115.470   2482.884   2429.843     53.041    423.021   2290.570    423.021    561.978    423.021
115.570   2881.000   2712.289    168.711    423.199   2575.191    423.199    559.954    423.199
115.670   3049.114   3019.320     29.794    423.384   2884.746    423.384    557.594    423.384
115.770   3431.000   3348.565     82.435    423.577   3216.825    423.577    554.938    423.577
115.870   3789.000   3696.581     92.419    423.778   3567.943    423.778    552.028    423.778
115.970   4053.000   4058.822     -5.822    423.987   3933.513    423.987    548.906    423.987
116.070   4410.000   4429.655    -19.655    424.204   4307.862    424.204    545.615    424.204
116.170   4788.000   4802.410    -14.410    424.428   4684.282    424.428    542.195    424.428
116.270   5024.000   5169.490   -145.490    424.661   5055.137    424.661    538.684    424.661
116.370   5413.000   5522.520   -109.520    424.902   5412.019    424.902    535.115    424.902
116.470   5933.000   5852.560     80.440    425.151   5745.959    425.151    531.522    425.151
116.570   6106.317   6150.399    -44.082    425.409   6047.714    425.409    527.931    425.409
116.670   6502.000   6406.929     95.071    425.674   6308.154    425.674    524.367    425.674
116.770   6624.226   6613.630     10.596    425.948   6518.735    425.948    520.851    425.948
116.870   6917.835   6763.142    154.693    426.231   6672.075    426.231    517.402    426.231
116.970   6972.000   6849.858    122.142    426.522   6762.550    426.522    514.033    426.522
117.070   6828.000   6870.465    -42.465    426.822   6786.830    426.822    510.758    426.822
117.170   6788.000   6824.284    -36.284    427.131   6744.224    427.131    507.586    427.131
117.270   6775.236   6713.345     61.890    427.448   6636.748    427.448    504.525    427.448
117.370   6446.479   6542.160    -95.681    427.775   6468.904    427.775    501.582    427.775
117.470   6313.000   6317.257     -4.257    428.110   6247.218    428.110    498.760    428.110
117.570   6027.000   6046.601    -19.601    428.454   5979.647    428.454    496.062    428.454
117.670   5711.196   5738.993    -27.797    428.808   5674.991    428.808    493.491    428.808
117.770   5278.000   5403.541   -125.541    429.171   5342.358    429.171    491.047    429.171
117.870   4787.000   5049.234   -262.234    429.543   4990.739    429.543    488.730    429.543
117.970   4642.000   4684.612    -42.612    429.924   4628.675    429.924    486.539    429.924
118.070   4409.831   4317.523     92.308    430.315   4264.017    430.315    484.473    430.315
118.170   4084.000   3954.942    129.058    430.716   3903.746    430.716    482.529    430.716
118.270   3696.000   3602.857     93.143    431.126   3553.852    431.126    480.706    431.126
118.370   3296.000   3266.199     29.801    431.545   3219.273    431.545    479.000    431.545
118.470   2998.000   2948.823     49.177    431.975   2903.867    431.975    477.408    431.975
118.570   2649.000   2653.536     -4.536    432.414   2610.447    432.414    475.928    432.414
118.670   2449.000   2382.160     66.840    432.864   2340.841    432.864    474.556    432.864
118.770   2071.000   2135.628    -64.628    433.323   2095.987    433.323    473.289    433.323
118.870   1866.000   1914.096    -48.096    433.792   1876.044    433.792    472.122    433.792
118.970   1707.719   1717.066     -9.348    434.272   1680.520    434.272    471.052    434.272
119.070   1470.658   1543.514    -72.856    434.762   1508.394    434.762    470.076    434.762
119.170   1357.000   1392.013    -35.013    435.262   1358.244    435.262    469.190    435.262
119.270   1231.000   1260.856    -29.856    435.773   1228.367    435.773    468.390    435.773
119.370   1199.000   1148.164     50.836    436.294   1116.887    436.294    467.673    436.294
119.470   1070.000   1051.984     18.016    436.826   1021.855    436.826    467.036    436.826
119.570    955.929    970.373    -14.444    437.369    941.330    437.369    466.474    437.369
119.670    937.000    901.462     35.538    437.922    873.446    437.922    465.985    437.922
119.770    807.000    843.502    -36.502    438.487    816.459    438.487    465.566    438.487
119.870    790.000    794.902     -4.902    439.062    768.778    439.062    465.213    439.062
119.970    790.000    754.238     35.762    439.648    728.984    439.648    464.923    439.648
120.070    691.529    720.267    -28.739    440.246    695.834    440.246    464.695    440.246
120.170    704.811    691.916     12.895    440.855    668.259    440.855    464.524    440.855
120.270    645.000    668.273    -23.273    441.475    645.349    441.475    464.409    441.475
120.370    627.000    648.576    -21.576    442.106    626.345    442.106    464.347    442.106
120.470    619.788    632.192    -12.404    442.749    610.615    442.749    464.335    442.749
120.570    663.966    618.602     45.364    443.404    597.642    443.404    464.372    443.404
120.670    601.000    607.383     -6.383    444.070    587.005    444.070    464.456    444.070
120.770    588.000    598.190    -10.190    444.748    578.363    444.748    464.584    444.748
120.870    546.134    590.746    -44.612    445.438    571.439    445.438    464.754    445.438
120.970    607.343    584.827     22.516    446.139    566.010    446.139    464.966    446.139
121.070    539.000    580.250    -41.250    446.853    561.897    446.853    465.217    446.853
121.170    559.577    576.868    -17.291    447.579    558.953    447.579    465.506    447.579
121.270    613.175    574.557     38.618    448.317    557.056    448.317    465.831    448.317
121.370    606.951    573.215     33.736    449.068    556.106    449.068    466.191    449.068
121.470    556.000    572.752    -16.752    449.831    556.013    449.831    466.584    449.831
121.570    543.000    573.090    -30.090    450.606    556.702    450.606    467.010    450.606
121.670    581.000    574.156      6.844    451.394    558.101    451.394    467.468    451.394
121.770    529.168    575.881    -46.713    452.195    560.140    452.195    467.956    452.195
121.870    622.000    578.196     43.804    453.008    562.754    453.008    468.473    453.008
121.970    532.000    581.029    -49.029    453.835    565.871    453.835    469.017    453.835
122.070    569.000    584.293    -15.293    454.674    569.404    454.674    469.590    454.674
122.170    621.305    587.920     33.385    455.527    573.288    455.527    470.188    455.527
122.270    583.000    591.858     -8.858    456.392    577.471    456.392    470.811    456.392
122.370    609.000    595.999     13.001    457.271    581.846    457.271    471.459    457.271
122.470    599.000    600.248     -1.248    458.163    586.319    458.163    472.130    458.163
122.570    629.000    604.509     24.491    459.069    590.795    459.069    472.823    459.069
122.670    653.914    608.681     45.233    459.988    595.174    459.988    473.538    459.988
122.770    581.000    612.660    -31.660    460.921    599.353    460.921    474.274    460.921
122.870    666.000    616.345     49.655    461.868    603.232    461.868    475.029    461.868
122.970    652.534    619.636     32.899    462.829    606.711    462.829    475.804    462.829
123.070    606.000    622.442    -16.442    463.803    609.702    463.803    476.596    463.803
123.170    691.000    624.686     66.314    464.792    612.126    464.792    477.406    464.792
123.270    589.000    626.306    -37.306    465.794    613.924    465.794    478.233    465.794
123.370    654.073    627.262     26.811    466.811    615.055    466.811    479.075    466.811
123.470    613.914    627.536    -13.622    467.843    615.503    467.843    479.933    467.843
123.570    640.000    627.133     12.867    468.888    615.274    468.888    480.805    468.888
123.670    593.471    626.079    -32.609    469.949    614.393    469.949    481.692    469.949
123.770    596.663    624.417    -27.754    471.024    612.903    471.024    482.593    471.024
123.870    611.000    622.201    -11.201    472.113    610.862    472.113    483.507    472.113
123.970    585.900    619.498    -33.599    473.218    608.333    473.218    484.436    473.218
124.070    612.000    616.378     -4.378    474.338    605.388    474.338    485.377    474.338
124.170    621.000    612.912      8.088    475.472    602.099    475.472    486.333    475.472
124.270    652.000    609.172     42.828    476.622    598.537    476.622    487.302    476.622
124.370    602.000    605.230     -3.230    477.787    594.774    477.787    488.285    477.787
124.470    668.000    601.153     66.847    478.968    590.877    478.968    489.282    478.968
124.570    611.000    597.003     13.997    480.164    586.907    480.164    490.295    480.164
124.670    555.022    592.836    -37.815    481.375    582.922    481.375    491.322    481.375
124.770    575.000    588.705    -13.705    482.603    578.972    482.603    492.365    482.603
124.870    566.000    584.651    -18.651    483.846    575.100    483.846    493.423    483.846
124.970    575.000    580.712     -5.712    485.105    571.342    485.105    494.498    485.105
