neutron_powder_diffraction_0102
R_wp: 3.785
Temperature (K): 899.456
Counts: 83990.00
Wavelength (Ã…): 2.52098
COMMENTS
Test file for demonstrating the .xyy file format in Reel1.0
END OF HEADER
   tth       Y_obs     Y_calc      Y_res    Background    Phase_1_Nuc    Phase_1_Mag    Phase_2_Nuc    Phase_2_Mag
  9.970    536.000    550.672    -14.672    549.415    550.408    549.415    549.678    549.415
 10.070    592.608    551.224     41.384    549.883    550.960    549.883    550.147    549.883
 10.170    583.848    551.778     32.070    550.339    551.512    550.339    550.604    550.339
 10.270    568.305    552.336     15.969    550.785    552.069    550.785    551.051    550.785
 10.370    600.000    552.901     47.099    551.221    552.633    551.221    551.488    551.221
 10.470    567.975    553.477     14.498    551.646    553.208    551.646    551.914    551.646
 10.570    558.525    554.069      4.456    552.061    553.799    552.061    552.330    552.061
 10.670    588.000    554.685     33.315    552.466    554.414    552.466    552.736    552.466
 10.770    566.466    555.336     11.130    552.860    555.063    552.860    553.132    552.860
 10.870    592.000    556.029     35.971    553.245    555.755    553.245    553.517    553.245
 10.970    600.415    556.781     43.634    553.619    556.506    553.619    553.893    553.619
 11.070    564.000    557.617      6.383    553.984    557.340    553.984    554.259    553.984
 11.170    512.474    558.570    -46.096    554.339    558.292    554.339    554.615    554.339
 11.270    593.000    559.693     33.307    554.684    559.413    554.684    554.961    554.684
 11.370    585.170    561.079     24.091    555.020    560.798    555.020    555.298    555.020
 11.470    593.000    562.923     30.077    555.346    562.639    555.346    555.625    555.346
 11.570    596.758    565.680     31.078    555.662    565.394    555.662    555.943    555.662
 11.670    563.000    570.376     -7.376    555.969    570.086    555.969    556.252    555.969
 11.770    604.000    578.936     25.064    556.267    578.640    556.267    556.551    556.267
 11.870    600.000    594.029      5.971    556.556    593.724    556.556    556.841    556.556
 11.970    583.856    617.647    -33.792    556.836    617.328    556.836    557.122    556.836
 12.070    698.000    648.075     49.925    557.106    647.738    557.106    557.393    557.106
 12.170    702.906    676.103     26.803    557.368    675.749    557.368    557.656    557.368
 12.270    735.492    685.820     49.672    557.620    685.460    557.620    557.910    557.620
 12.370    669.000    669.517     -0.517    557.864    669.164    557.864    558.155    557.864
 12.470    686.403    639.400     47.003    558.099    639.063    558.099    558.391    558.099
 12.570    587.000    610.811    -23.811    558.325    610.489    558.325    558.619    558.325
 12.670    595.000    590.364      4.636    558.543    590.052    558.543    558.838    558.543
 12.770    550.000    578.138    -28.138    558.753    577.831    558.753    559.049    558.753
 12.870    611.083    571.615     39.468    558.953    571.310    558.953    559.251    558.953
 12.970    587.000    568.241     18.759    559.146    567.937    559.146    559.445    559.146
 13.070    586.669    566.381     20.289    559.330    566.076    559.330    559.631    559.330
 13.170    531.118    565.235    -34.117    559.506    564.930    559.506    559.808    559.506
 13.270    525.000    564.463    -39.463    559.674    564.157    559.674    559.978    559.674
 13.370    546.870    563.918    -17.048    559.834    563.611    559.834    560.139    559.834
 13.470    537.000    563.524    -26.524    559.986    563.216    559.986    560.292    559.986
 13.570    521.644    563.236    -41.592    560.130    562.927    560.130    560.438    560.130
 13.670    530.613    563.025    -32.412    560.266    562.715    560.266    560.576    560.266
 13.770    559.000    562.871     -3.871    560.395    562.559    560.395    560.706    560.395
 13.870    538.000    562.759    -24.759    560.515    562.446    560.515    560.828    560.515
 13.970    606.454    562.679     43.775    560.629    562.364    560.629    560.943    560.629
 14.070    580.198    562.622     17.577    560.734    562.306    560.734    561.050    560.734
 14.170    549.000    562.582    -13.582    560.832    562.264    560.832    561.150    560.832
 14.270    590.000    562.555     27.445    560.923    562.236    560.923    561.242    560.923
 14.370    511.000    562.537    -51.537    561.007    562.216    561.007    561.327    561.007
 14.470    578.000    562.526     15.474    561.083    562.203    561.083    561.405    561.083
 14.570    539.000    562.519    -23.519    561.152    562.195    561.152    561.476    561.152
 14.670    558.000    562.514     -4.514    561.214    562.189    561.214    561.539    561.214
 14.770    557.000    562.511     -5.511    561.269    562.184    561.269    561.596    561.269
 14.870    566.000    562.508      3.492    561.317    562.179    561.317    561.646    561.317
 14.970    528.732    562.503    -33.771    561.358    562.173    561.358    561.689    561.358
 15.070    567.401    562.498      4.903    561.392    562.165    561.392    561.725    561.392
 15.170    516.748    562.490    -45.742    561.420    562.156    561.420    561.754    561.420
 15.270    506.000    562.481    -56.481    561.441    562.145    561.441    561.777    561.441
 15.370    580.977    562.467     18.510    561.455    562.129    561.455    561.793    561.455
 15.470    565.667    562.450      3.217    561.463    562.110    561.463    561.802    561.463
 15.570    544.998    562.428    -17.430    561.464    562.087    561.464    561.805    561.464
 15.670    546.141    562.403    -16.262    561.459    562.060    561.459    561.802    561.459
 15.770    594.872    562.374     32.498    561.448    562.029    561.448    561.793    561.448
 15.870    536.000    562.350    -26.350    561.430    562.003    561.430    561.777    561.430
 15.970    547.946    562.330    -14.384    561.406    561.981    561.406    561.755    561.406
 16.070    593.418    562.289     31.129    561.376    561.938    561.376    561.727    561.376
 16.170    562.356    562.242      0.115    561.340    561.889    561.340    561.693    561.340
 16.270    598.000    562.199     35.801    561.298    561.844    561.298    561.652    561.298
 16.370    551.000    562.238    -11.238    561.249    561.880    561.249    561.606    561.249
 16.470    583.000    562.204     20.796    561.195    561.845    561.195    561.555    561.195
 16.570    536.000    562.140    -26.140    561.136    561.779    561.136    561.497    561.136
 16.670    561.000    562.072     -1.072    561.070    561.709    561.070    561.433    561.070
 16.770    561.000    561.998     -0.998    560.999    561.633    560.999    561.364    560.999
 16.870    496.000    561.918    -65.918    560.922    561.550    560.922    561.290    560.922
 16.970    524.000    561.833    -37.833    560.840    561.463    560.840    561.210    560.840
 17.070    537.276    561.743    -24.466    560.752    561.370    560.752    561.124    560.752
 17.170    562.000    561.648      0.352    560.659    561.273    560.659    561.033    560.659
 17.270    520.000    561.548    -41.548    560.560    561.171    560.560    560.937    560.560
 17.370    516.000    561.444    -45.444    560.456    561.065    560.456    560.835    560.456
 17.470    513.000    561.335    -48.335    560.347    560.954    560.347    560.729    560.347
 17.570    562.896    561.222      1.674    560.232    560.838    560.232    560.617    560.232
 17.670    576.000    561.104     14.896    560.113    560.717    560.113    560.500    560.113
 17.770    533.697    560.981    -27.284    559.988    560.592    559.988    560.378    559.988
 17.870    547.000    560.854    -13.854    559.859    560.462    559.859    560.251    559.859
 17.970    537.000    560.722    -23.722    559.724    560.328    559.724    560.119    559.724
 18.070    545.000    560.587    -15.587    559.585    560.189    559.585    559.982    559.585
 18.170    514.000    560.446    -46.446    559.441    560.046    559.441    559.841    559.441
 18.270    556.596    560.302     -3.706    559.292    559.899    559.292    559.695    559.292
 18.370    515.948    560.158    -44.210    559.138    559.753    559.138    559.544    559.138
 18.470    571.569    560.007     11.562    558.980    559.599    558.980    559.388    558.980
 18.570    572.000    559.850     12.150    558.817    559.439    558.817    559.228    558.817
 18.670    515.775    559.691    -43.916    558.650    559.276    558.650    559.064    558.650
 18.770    554.000    559.528     -5.528    558.478    559.111    558.478    558.895    558.478
 18.870    522.000    559.360    -37.360    558.301    558.939    558.301    558.722    558.301
 18.970    584.550    559.191     25.360    558.121    558.767    558.121    558.545    558.121
 19.070    592.346    559.057     33.289    557.936    558.631    557.936    558.363    557.936
 19.170    581.000    558.905     22.095    557.747    558.475    557.747    558.177    557.747
 19.270    554.000    558.723     -4.723    557.553    558.290    557.553    557.987    557.553
 19.370    583.000    558.536     24.464    557.356    558.099    557.356    557.793    557.356
 19.470    524.220    558.345    -34.124    557.154    557.904    557.154    557.595    557.154
 19.570    538.000    558.150    -20.150    556.949    557.706    556.949    557.393    556.949
 19.670    553.000    557.952     -4.952    556.739    557.505    556.739    557.187    556.739
 19.770    563.474    557.751      5.723    556.526    557.300    556.526    556.977    556.526
 19.870    522.493    557.547    -35.053    556.309    557.092    556.309    556.764    556.309
 19.970    559.400    557.339      2.061    556.088    556.880    556.088    556.547    556.088
 20.070    593.248    557.128     36.119    555.863    556.666    555.863    556.326    555.863
 20.170    562.000    556.915      5.085    555.634    556.448    555.634    556.101    555.634
 20.270    561.000    556.698      4.302    555.402    556.227    555.402    555.873    555.402
 20.370    570.000    556.479     13.521    555.167    556.004    555.167    555.642    555.167
 20.470    516.000    556.264    -40.264    554.927    555.785    554.927    555.407    554.927
 20.570    522.000    556.048    -34.048    554.685    555.564    554.685    555.169    554.685
 20.670    582.827    555.854     26.973    554.439    555.366    554.439    554.927    554.439
 20.770    517.000    555.655    -38.655    554.189    555.162    554.189    554.682    554.189
 20.870    535.000    555.435    -20.435    553.936    554.937    553.936    554.434    553.936
 20.970    550.000    555.220     -5.220    553.680    554.717    553.680    554.183    553.680
 21.070    555.130    554.987      0.143    553.421    554.480    553.421    553.929    553.421
 21.170    571.000    554.752     16.248    553.158    554.239    553.158    553.671    553.158
 21.270    555.000    554.513      0.487    552.893    553.995    552.893    553.411    552.893
 21.370    527.540    554.273    -26.733    552.624    553.750    552.624    553.148    552.624
 21.470    536.000    554.032    -18.032    552.353    553.503    552.353    552.882    552.353
 21.570    527.235    553.790    -26.555    552.078    553.256    552.078    552.613    552.078
 21.670    513.118    553.547    -40.430    551.800    553.007    551.800    552.341    551.800
 21.770    564.228    553.304     10.924    551.520    552.757    551.520    552.067    551.520
 21.870    581.794    553.062     28.732    551.237    552.509    551.237    551.790    551.237
 21.970    555.256    552.834      2.422    550.951    552.274    550.951    551.510    550.951
 22.070    554.000    552.608      1.392    550.662    552.042    550.662    551.228    550.662
 22.170    528.000    552.370    -24.370    550.370    551.798    550.370    550.943    550.370
 22.270    571.000    552.150     18.850    550.076    551.570    550.076    550.656    550.076
 22.370    570.000    551.934     18.066    549.779    551.347    549.779    550.367    549.779
 22.470    531.489    551.750    -20.261    549.480    551.156    549.480    550.075    549.480
 22.570    508.835    551.530    -42.695    549.179    550.928    549.179    549.781    549.179
 22.670    576.713    551.325     25.388    548.874    550.715    548.874    549.485    548.874
 22.770    561.572    551.113     10.459    548.568    550.495    548.568    549.186    548.568
 22.870    547.000    550.934     -3.934    548.259    550.307    548.259    548.886    548.259
 22.970    519.705    550.759    -31.054    547.948    550.123    547.948    548.584    547.948
 23.070    579.593    550.583     29.010    547.634    549.939    547.634    548.279    547.634
 23.170    507.435    550.417    -42.981    547.319    549.763    547.319    547.973    547.319
 23.270    554.000    550.272      3.728    547.001    549.609    547.001    547.665    547.001
 23.370    496.000    550.170    -54.170    546.681    549.496    546.681    547.355    546.681
 23.470    553.000    550.093      2.907    546.359    549.409    546.359    547.044    546.359
 23.570    535.000    550.057    -15.057    546.034    549.362    546.034    546.731    546.034
 23.670    540.000    550.085    -10.085    545.708    549.379    545.708    546.416    545.708
 23.770    549.000    550.196     -1.196    545.380    549.478    545.380    546.100    545.380
 23.870    542.437    550.423     -7.986    545.050    549.693    545.050    545.782    545.050
 23.970    530.000    550.826    -20.826    544.718    550.083    544.718    545.463    544.718
 24.070    589.957    551.529     38.428    544.385    550.774    544.385    545.143    544.385
 24.170    569.028    552.811     16.217    544.049    552.043    544.049    544.822    544.049
 24.270    549.000    555.308     -6.308    543.712    554.527    543.712    544.499    543.712
 24.370    595.397    560.237     35.160    543.373    559.445    543.373    544.176    543.373
 24.470    587.000    569.337     17.663    543.032    568.535    543.032    543.852    543.032
 24.570    597.484    584.043     13.440    542.690    583.235    542.690    543.526    542.690
 24.670    605.000    603.693      1.307    542.346    602.882    542.346    543.200    542.346
 24.770    633.000    623.021      9.979    542.001    622.205    542.001    542.873    542.001
 24.870    641.000    631.399      9.601    541.654    630.570    541.654    542.546    541.654
 24.970    622.000    621.993      0.007    541.306    621.137    541.306    542.219    541.306
 25.070    628.000    601.935     26.065    540.956    601.042    540.956    541.891    540.956
 25.170    608.127    581.819     26.308    540.605    580.890    540.605    541.562    540.605
 25.270    568.000    566.747      1.253    540.252    565.783    540.252    541.234    540.252
 25.370    633.000    557.271     75.729    539.899    556.274    539.899    540.906    539.899
 25.470    535.000    551.916    -16.916    539.544    550.889    539.544    540.578    539.544
 25.570    590.934    548.953     41.981    539.187    547.895    539.187    540.250    539.187
 25.670    539.000    547.185     -8.185    538.830    546.095    538.830    539.923    538.830
 25.770    560.000    545.990     14.010    538.471    544.868    538.471    539.597    538.471
 25.870    546.810    545.098      1.711    538.112    543.941    538.112    539.271    538.112
 25.970    551.000    544.393      6.607    537.751    543.199    537.751    538.947    537.751
 26.070    548.746    543.820      4.926    537.389    542.587    537.389    538.624    537.389
 26.170    561.000    543.349     17.651    537.026    542.074    537.026    538.303    537.026
 26.270    575.971    542.962     33.009    536.662    541.642    536.662    537.983    536.662
 26.370    498.749    542.649    -43.900    536.298    541.281    536.298    537.666    536.298
 26.470    553.263    542.403     10.860    535.932    540.985    535.932    537.351    535.932
 26.570    548.423    542.223      6.200    535.566    540.750    535.566    537.039    535.566
 26.670    578.000    542.112     35.888    535.198    540.579    535.198    536.731    535.198
 26.770    575.000    542.076     32.924    534.830    540.480    534.830    536.426    534.830
 26.870    499.901    542.126    -42.224    534.461    540.462    534.461    536.126    534.461
 26.970    564.000    542.279     21.721    534.092    540.541    534.092    535.830    534.092
 27.070    584.000    542.558     41.442    533.721    540.740    533.721    535.539    533.721
 27.170    573.739    543.000     30.739    533.351    541.095    533.351    535.255    533.351
 27.270    584.000    543.654     40.346    532.979    541.656    532.979    534.977    532.979
 27.370    566.408    544.599     21.808    532.607    542.500    532.607    534.706    532.607
 27.470    544.749    545.980     -1.231    532.234    543.770    532.234    534.443    532.234
 27.570    589.000    548.148     40.852    531.861    545.818    531.861    534.189    531.861
 27.670    566.147    552.233     13.913    531.487    549.772    531.487    533.945    531.487
 27.770    551.771    561.737     -9.967    531.113    559.132    531.113    533.712    531.113
 27.870    576.000    585.123     -9.123    530.739    582.356    530.739    533.490    530.739
 27.970    629.000    636.014     -7.014    530.364    633.065    530.364    533.281    530.364
 28.070    715.000    723.980     -8.980    529.989    720.825    529.989    533.085    529.989
 28.170    843.000    834.951      8.049    529.613    831.579    529.613    532.903    529.613
 28.270    975.000    919.162     55.838    529.237    915.579    529.237    532.737    529.237
 28.370    908.000    922.036    -14.036    528.861    918.252    528.861    532.585    528.861
 28.470    837.000    847.717    -10.717    528.485    843.720    528.485    532.449    528.485
 28.570    773.000    758.429     14.571    528.108    754.193    528.108    532.327    528.108
 28.670    692.000    710.948    -18.948    527.731    706.447    527.731    532.219    527.731
 28.770    727.000    721.885      5.115    527.355    717.101    527.355    532.122    527.355
 28.870    795.000    770.534     24.466    526.978    765.460    526.978    532.032    526.978
 28.970    787.237    812.703    -25.466    526.600    807.347    526.600    531.946    526.600
 29.070    796.000    807.330    -11.330    526.223    801.702    526.223    531.856    526.223
 29.170    773.000    752.226     20.774    525.846    746.331    525.846    531.755    525.846
 29.270    705.000    679.770     25.230    525.469    673.620    525.469    531.633    525.469
 29.370    624.000    619.403      4.597    525.092    613.024    525.092    531.482    525.092
 29.470    583.000    581.000      2.000    524.715    574.431    524.715    531.290    524.715
 29.570    599.000    560.785     38.215    524.338    554.076    524.338    531.050    524.338
 29.670    574.000    551.157     22.843    523.961    544.366    523.961    530.753    523.961
 29.770    555.000    546.399      8.601    523.585    539.588    523.585    530.396    523.585
 29.870    547.378    543.633      3.745    523.208    536.865    523.208    529.977    523.208
 29.970    597.000    541.742     55.258    522.832    535.074    522.832    529.499    522.832
 30.070    521.251    540.352    -19.100    522.456    533.839    522.456    528.969    522.456
 30.170    583.000    539.367     43.633    522.080    533.053    522.080    528.393    522.080
 30.270    564.785    538.861     25.924    521.704    532.781    521.704    527.783    521.704
 30.370    604.000    539.160     64.840    521.329    533.340    521.329    527.147    521.329
 30.470    558.893    541.047     17.846    520.954    535.500    520.954    526.497    520.954
 30.570    547.332    545.880      1.452    520.580    540.612    520.580    525.839    520.580
 30.670    575.000    555.212     19.788    520.206    550.219    520.206    525.181    520.206
 30.770    607.000    569.537     37.463    519.832    564.813    519.832    524.530    519.832
 30.870    627.725    586.373     41.351    519.459    581.906    519.459    523.888    519.459
 30.970    630.000    599.035     30.965    519.086    594.817    519.086    523.260    519.086
 31.070    637.734    599.745     37.989    518.714    595.771    518.714    522.646    518.714
 31.170    622.000    587.457     34.543    518.342    583.718    518.342    522.048    518.342
 31.270    541.000    569.320    -28.320    517.971    565.802    517.971    521.466    517.971
 31.370    573.000    552.779     20.221    517.600    549.466    517.600    520.900    517.600
 31.470    500.000    541.074    -41.074    517.230    537.947    517.230    520.350    517.230
 31.570    503.820    534.091    -30.270    516.860    531.133    516.860    519.814    516.860
 31.670    568.000    530.321     37.679    516.491    527.517    516.491    519.293    516.491
 31.770    546.000    528.294     17.706    516.123    525.631    516.123    518.784    516.123
 31.870    490.574    527.098    -36.524    515.756    524.564    515.756    518.288    515.756
 31.970    516.879    526.303     -9.423    515.389    523.887    515.389    517.804    515.389
 32.070    514.000    525.741    -11.741    515.023    523.433    515.023    517.329    515.023
 32.170    573.000    525.350     47.650    514.657    523.141    514.657    516.865    514.657
 32.270    503.000    525.108    -22.108    514.293    522.991    514.293    516.410    514.293
 32.370    552.000    525.012     26.988    513.929    522.977    513.929    515.963    513.929
 32.470    495.172    525.065    -29.894    513.566    523.107    513.566    515.524    513.566
 32.570    537.746    525.286     12.459    513.204    523.398    513.204    515.092    513.204
 32.670    534.000    525.701      8.299    512.842    523.876    512.842    514.666    512.842
 32.770    537.000    526.350     10.650    512.482    524.585    512.482    514.247    512.482
 32.870    559.000    527.294     31.706    512.122    525.583    512.122    513.833    512.122
 32.970    536.000    528.621      7.379    511.764    526.959    511.764    513.425    511.764
 33.070    513.157    530.467    -17.310    511.406    528.850    511.406    513.021    511.406
 33.170    563.000    533.077     29.923    511.049    531.502    511.049    512.622    511.049
 33.270    520.930    536.966    -16.036    510.693    535.430    510.693    512.228    510.693
 33.370    576.419    543.345     33.074    510.339    541.843    510.339    511.837    510.339
 33.470    541.339    554.953    -13.614    509.985    553.482    509.985    511.451    509.985
 33.570    556.476    577.152    -20.675    509.632    575.707    509.632    511.067    509.632
 33.670    606.332    618.208    -11.876    509.281    616.784    509.281    510.688    509.281
 33.770    730.677    686.786     43.891    508.930    685.378    508.930    510.311    508.930
 33.870    796.000    785.229     10.771    508.580    783.835    508.580    509.938    508.580
 33.970    941.000    899.796     41.204    508.232    898.420    508.232    509.567    508.232
 34.070   1001.482    993.334      8.148    507.885    991.986    507.885    509.200    507.885
 34.170   1062.232   1017.075     45.157    507.539   1015.763    507.539    508.835    507.539
 34.270    964.000    954.389      9.611    507.194    953.109    507.194    508.473    507.194
 34.370    893.709    843.063     50.646    506.850    841.806    506.850    508.113    506.850
 34.470    715.820    731.659    -15.838    506.507    730.417    506.507    507.756    506.507
 34.570    690.681    646.064     44.617    506.166    644.834    506.166    507.401    506.166
 34.670    583.000    590.885     -7.885    505.826    589.665    505.826    507.049    505.826
 34.770    553.512    559.484     -5.972    505.487    558.273    505.487    506.699    505.487
 34.870    543.000    542.669      0.331    505.149    541.468    505.149    506.351    505.149
 34.970    522.000    533.411    -11.411    504.813    532.218    504.813    506.005    504.813
 35.070    529.470    527.735      1.735    504.478    526.551    504.478    505.662    504.478
 35.170    532.000    523.794      8.206    504.144    522.617    504.144    505.321    504.144
 35.270    496.000    520.807    -24.807    503.811    519.637    503.811    504.981    503.811
 35.370    529.000    518.430     10.570    503.480    517.266    503.480    504.644    503.480
 35.470    506.864    516.483     -9.618    503.151    515.324    503.151    504.309    503.151
 35.570    473.971    514.854    -40.883    502.822    513.700    502.822    503.976    502.822
 35.670    472.864    513.469    -40.605    502.495    512.319    502.495    503.645    502.495
 35.770    519.000    512.274      6.726    502.170    511.127    502.170    503.316    502.170
 35.870    532.322    511.228     21.094    501.846    510.085    501.846    502.989    501.846
 35.970    499.375    510.304    -10.929    501.523    509.163    501.523    502.664    501.523
 36.070    502.000    509.479     -7.479    501.202    508.339    501.202    502.341    501.202
 36.170    499.058    508.736     -9.679    500.882    507.598    500.882    502.020    500.882
 36.270    511.000    508.064      2.936    500.564    506.927    500.564    501.701    500.564
 36.370    525.766    507.453     18.312    500.247    506.316    500.247    501.384    500.247
 36.470    467.000    506.898    -39.898    499.931    505.761    499.931    501.069    499.931
 36.570    533.184    506.393     26.791    499.618    505.255    499.618    500.756    499.618
 36.670    474.899    505.939    -31.039    499.305    504.800    499.305    500.445    499.305
 36.770    462.331    505.537    -43.206    498.995    504.397    498.995    500.135    498.995
 36.870    521.000    505.201     15.799    498.685    504.059    498.685    499.828    498.685
 36.970    505.430    504.959      0.471    498.378    503.815    498.378    499.523    498.378
 37.070    500.590    504.878     -4.288    498.072    503.731    498.072    499.219    498.072
 37.170    465.000    505.085    -40.085    497.767    503.935    497.767    498.918    497.767
 37.270    496.000    505.774     -9.774    497.464    504.621    497.464    498.618    497.464
 37.370    516.000    507.167      8.833    497.163    506.011    497.163    498.321    497.163
 37.470    465.000    509.398    -44.398    496.864    508.239    496.864    498.025    496.864
 37.570    500.324    512.316    -11.992    496.566    511.153    496.566    497.732    496.566
 37.670    521.000    515.267      5.733    496.269    514.100    496.269    497.440    496.269
 37.770    512.000    517.058     -5.058    495.975    515.888    495.975    497.151    495.975
 37.870    525.000    516.702      8.298    495.682    515.529    495.682    496.863    495.682
 37.970    479.177    514.423    -35.246    495.390    513.245    495.390    496.578    495.390
 38.070    502.531    511.252     -8.721    495.101    510.069    495.101    496.294    495.101
 38.170    526.595    508.037     18.557    494.813    506.848    494.813    496.013    494.813
 38.270    463.000    505.214    -42.214    494.527    504.016    494.527    495.734    494.527
 38.370    476.731    502.974    -26.243    494.242    501.767    494.242    495.456    494.242
 38.470    480.000    501.326    -21.326    493.959    500.110    493.959    495.181    493.959
 38.570    492.441    500.157     -7.716    493.678    498.931    493.678    494.908    493.678
 38.670    467.538    499.330    -31.793    493.399    498.095    493.399    494.637    493.399
 38.770    505.000    498.722      6.278    493.121    497.477    493.121    494.368    493.121
 38.870    478.000    498.244    -20.244    492.846    496.989    492.846    494.101    492.846
 38.970    483.000    497.843    -14.843    492.572    496.579    492.572    493.837    492.572
 39.070    520.819    497.489     23.330    492.299    496.215    492.299    493.574    492.299
 39.170    491.000    497.165     -6.165    492.029    495.881    492.029    493.314    492.029
 39.270    495.472    496.863     -1.391    491.760    495.569    491.760    493.055    491.760
 39.370    469.000    496.579    -27.579    491.494    495.274    491.494    492.799    491.494
 39.470    490.000    496.310     -6.310    491.229    494.995    491.229    492.545    491.229
 39.570    486.000    496.055    -10.055    490.966    494.728    490.966    492.294    490.966
 39.670    486.832    495.812     -8.980    490.704    494.473    490.704    492.044    490.704
 39.770    486.201    495.580     -9.380    490.445    494.229    490.445    491.797    490.445
 39.870    498.555    495.360      3.194    490.187    493.996    490.187    491.552    490.187
 39.970    508.000    495.151     12.849    489.931    493.774    489.931    491.309    489.931
 40.070    493.000    494.954     -1.954    489.677    493.563    489.677    491.069    489.677
 40.170    484.000    494.768    -10.768    489.425    493.364    489.425    490.831    489.425
 40.270    510.000    494.595     15.405    489.175    493.176    489.175    490.595    489.175
 40.370    482.000    494.435    -12.435    488.927    493.001    488.927    490.361    488.927
 40.470    464.513    494.289    -29.776    488.681    492.840    488.681    490.130    488.681
 40.570    479.577    494.159    -14.582    488.436    492.694    488.436    489.902    488.436
 40.670    509.697    494.047     15.650    488.193    492.566    488.193    489.675    488.193
 40.770    471.000    493.956    -22.956    487.953    492.458    487.953    489.451    487.953
 40.870    509.000    493.888     15.112    487.714    492.373    487.714    489.230    487.714
 40.970    520.220    493.847     26.373    487.477    492.315    487.477    489.011    487.477
 41.070    456.000    493.839    -37.839    487.242    492.288    487.242    488.794    487.242
 41.170    509.000    493.871     15.129    487.009    492.301    487.009    488.580    487.009
 41.270    530.566    493.951     36.615    486.778    492.362    486.778    488.369    486.778
 41.370    503.681    494.091      9.589    486.549    492.482    486.549    488.160    486.549
 41.470    492.547    494.309     -1.762    486.321    492.679    486.321    487.953    486.321
 41.570    476.000    494.627    -18.627    486.096    492.976    486.096    487.750    486.096
 41.670    494.470    495.089     -0.618    485.873    493.415    485.873    487.549    485.873
 41.770    491.013    495.773     -4.760    485.651    494.077    485.651    487.350    485.651
 41.870    456.457    496.848    -40.392    485.432    495.130    485.432    487.155    485.432
 41.970    489.000    498.665     -9.665    485.215    496.923    485.215    486.962    485.215
 42.070    467.000    501.889    -34.889    484.999    500.123    484.999    486.771    484.999
 42.170    476.177    507.599    -31.422    484.786    505.809    484.786    486.584    484.786
 42.270    504.000    517.192    -13.192    484.574    515.380    484.574    486.400    484.574
 42.370    485.000    531.912    -46.912    484.364    530.079    484.364    486.218    484.364
 42.470    541.000    551.953    -10.953    484.157    550.102    484.157    486.039    484.157
 42.570    574.000    575.317     -1.317    483.951    573.448    483.951    485.864    483.951
 42.670    562.000    596.744    -34.744    483.748    594.857    483.748    485.691    483.748
 42.770    549.000    608.230    -59.230    483.546    606.319    483.546    485.522    483.546
 42.870    588.000    604.062    -16.062    483.346    602.119    483.346    485.355    483.346
 42.970    580.000    586.486     -6.486    483.149    584.500    483.149    485.192    483.149
 43.070    561.000    563.116     -2.116    482.953    561.083    482.953    485.032    482.953
 43.170    525.000    540.773    -15.773    482.759    538.690    482.759    484.876    482.759
 43.270    557.000    523.026     33.974    482.567    520.893    482.567    484.723    482.567
 43.370    546.963    510.670     36.293    482.378    508.490    482.378    484.573    482.378
 43.470    496.188    502.885     -6.697    482.190    500.658    482.190    484.427    482.190
 43.570    469.000    498.280    -29.280    482.004    496.007    482.004    484.285    482.004
 43.670    484.500    495.592    -11.091    481.821    493.271    481.821    484.146    481.821
 43.770    519.849    493.949     25.899    481.639    491.581    481.639    484.011    481.639
 43.870    488.435    492.857     -4.422    481.459    490.439    481.459    483.880    481.459
 43.970    534.000    492.065     41.935    481.282    489.596    481.282    483.754    481.282
 44.070    492.974    491.456      1.518    481.106    488.933    481.106    483.631    481.106
 44.170    481.000    490.971     -9.971    480.932    488.393    480.932    483.513    480.932
 44.270    452.000    490.579    -38.579    480.761    487.943    480.761    483.399    480.761
 44.370    470.000    490.261    -20.261    480.591    487.563    480.591    483.290    480.591
 44.470    524.289    490.001     34.288    480.424    487.240    480.424    483.186    480.424
 44.570    531.793    489.791     42.002    480.258    486.964    480.258    483.087    480.258
 44.670    468.607    489.624    -21.017    480.094    486.727    480.094    482.993    480.094
 44.770    503.000    489.494     13.506    479.933    486.524    479.933    482.904    479.933
 44.870    507.199    489.396     17.803    479.773    486.350    479.773    482.821    479.773
 44.970    516.000    489.329     26.671    479.616    486.202    479.616    482.744    479.616
 45.070    511.000    489.291     21.709    479.460    486.079    479.460    482.673    479.460
 45.170    486.000    489.279     -3.279    479.306    485.978    479.306    482.609    479.306
 45.270    496.000    489.294      6.706    479.155    485.899    479.155    482.551    479.155
 45.370    505.000    489.335     15.665    479.005    485.841    479.005    482.501    479.005
 45.470    518.959    489.402     29.556    478.858    485.803    478.858    482.458    478.858
 45.570    491.000    489.497      1.503    478.712    485.786    478.712    482.423    478.712
 45.670    485.000    489.619     -4.619    478.569    485.791    478.569    482.397    478.569
 45.770    481.000    489.771     -8.771    478.427    485.819    478.427    482.380    478.427
 45.870    497.000    489.956      7.044    478.287    485.871    478.287    482.373    478.287
 45.970    466.000    490.174    -24.174    478.150    485.949    478.150    482.376    478.150
 46.070    477.000    490.431    -13.431    478.014    486.056    478.014    482.390    478.014
 46.170    470.092    490.730    -20.638    477.881    486.194    477.881    482.417    477.881
 46.270    504.228    491.076     13.152    477.749    486.370    477.749    482.456    477.749
 46.370    462.336    491.477    -29.140    477.620    486.587    477.620    482.509    477.620
 46.470    517.000    491.939     25.061    477.492    486.854    477.492    482.577    477.492
 46.570    522.000    492.476     29.524    477.366    487.180    477.366    482.662    477.366
 46.670    474.000    493.102    -19.102    477.243    487.580    477.243    482.764    477.243
 46.770    486.985    493.841     -6.857    477.121    488.076    477.121    482.886    477.121
 46.870    488.886    494.738     -5.851    477.001    488.710    477.001    483.028    477.001
 46.970    464.469    495.875    -31.406    476.883    489.564    476.883    483.193    476.883
 47.070    475.000    497.416    -22.416    476.768    490.799    476.768    483.383    476.768
 47.170    475.885    499.662    -23.778    476.654    492.714    476.654    483.600    476.654
 47.270    531.000    503.104     27.896    476.542    495.795    476.542    483.846    476.542
 47.370    470.256    508.417    -38.161    476.432    500.717    476.432    484.124    476.432
 47.470    501.000    516.326    -15.326    476.324    508.200    476.324    484.437    476.324
 47.570    554.699    527.294     27.405    476.218    518.704    476.218    484.788    476.218
 47.670    547.000    541.073      5.927    476.114    531.979    476.114    485.179    476.114
 47.770    551.000    556.209     -5.209    476.012    546.567    476.012    485.614    476.012
 47.870    582.397    569.667     12.730    475.912    559.434    475.912    486.097    475.912
 47.970    643.000    577.322     65.678    475.814    566.455    475.814    486.630    475.814
 48.070    605.000    576.445     28.555    475.717    564.899    475.717    487.216    475.717
 48.170    568.000    568.180     -0.180    475.623    555.905    475.623    487.859    475.623
 48.270    562.063    556.382      5.680    475.530    543.325    475.530    488.559    475.530
 48.370    543.889    544.761     -0.872    475.440    530.863    475.440    489.318    475.440
 48.470    530.000    535.551     -5.551    475.351    520.754    475.351    490.136    475.351
 48.570    551.000    529.584     21.416    475.265    513.832    475.265    491.009    475.265
 48.670    492.000    526.738    -34.738    475.180    509.982    475.180    491.933    475.180
 48.770    530.836    526.451      4.384    475.097    508.648    475.097    492.899    475.097
 48.870    532.000    528.097      3.903    475.016    509.220    475.016    493.893    475.016
 48.970    562.000    531.214     30.786    474.936    511.254    474.936    494.897    474.936
 49.070    528.000    535.630     -7.630    474.859    514.603    474.859    495.888    474.859
 49.170    536.000    541.575     -5.575    474.784    519.526    474.784    496.835    474.784
 49.270    540.000    550.016    -10.016    474.710    527.024    474.710    497.704    474.710
 49.370    586.000    563.517     22.483    474.639    539.699    474.639    498.457    474.639
 49.470    612.043    587.926     24.117    474.569    563.434    474.569    499.056    474.569
 49.570    612.134    634.695    -22.561    474.501    609.712    474.501    499.469    474.501
 49.670    709.000    722.496    -13.496    474.435    697.229    474.435    499.669    474.435
 49.770    857.000    875.153    -18.153    474.370    849.820    474.370    499.643    474.370
 49.870   1107.000   1112.680     -5.680    474.308   1087.506    474.308    499.391    474.308
 49.970   1464.000   1435.483     28.517    474.247   1410.688    474.247    498.929    474.247
 50.070   1759.000   1807.716    -48.716    474.188   1783.511    474.188    498.282    474.188
 50.170   2052.000   2150.136    -98.136    474.131   2126.716    474.131    497.483    474.131
 50.270   2339.000   2356.159    -17.159    474.076   2333.682    474.076    496.572    474.076
 50.370   2329.000   2345.044    -16.044    474.023   2323.604    474.023    495.585    474.023
 50.470   2135.000   2122.209     12.791    473.971   2101.818    473.971    494.557    473.971
 50.570   1813.664   1774.530     39.134    473.921   1755.151    473.921    493.517    473.921
 50.670   1363.000   1407.905    -44.905    473.873   1389.485    473.873    492.489    473.873
 50.770   1048.000   1097.969    -49.969    473.827   1080.457    473.827    491.492    473.827
 50.870    829.840    876.658    -46.818    473.782    860.012    473.782    490.539    473.782
 50.970    764.000    740.457     23.543    473.740    724.638    473.740    489.637    473.740
 51.070    714.000    667.086     46.914    473.698    652.050    473.698    488.793    473.698
 51.170    655.307    630.682     24.625    473.659    616.381    473.659    488.009    473.659
 51.270    600.000    610.673    -10.673    473.622    597.054    473.622    487.285    473.622
 51.370    591.000    595.120     -4.120    473.586    582.124    473.586    486.620    473.586
 51.470    562.000    580.002    -18.002    473.552    567.572    473.552    486.014    473.552
 51.570    578.000    565.555     12.445    473.519    553.638    473.519    485.462    473.519
 51.670    563.334    552.952     10.382    473.489    541.498    473.489    484.963    473.489
 51.770    591.000    542.973     48.027    473.460    531.934    473.460    484.513    473.460
 51.870    521.241    535.806    -14.564    473.432    525.140    473.432    484.110    473.432
 51.970    523.000    531.193     -8.193    473.407    520.859    473.407    483.750    473.407
 52.070    553.136    528.670     24.466    473.383    518.630    473.383    483.430    473.383
 52.170    491.258    527.778    -36.520    473.360    517.997    473.360    483.148    473.360
 52.270    556.804    528.217     28.587    473.340    518.662    473.340    482.901    473.340
 52.370    527.774    529.920     -2.146    473.321    520.560    473.321    482.686    473.321
 52.470    571.000    533.134     37.866    473.303    523.940    473.303    482.503    473.303
 52.570    525.000    538.568    -13.568    473.287    529.513    473.287    482.348    473.287
 52.670    508.148    547.652    -39.504    473.273    538.711    473.273    482.220    473.273
 52.770    598.000    562.861     35.139    473.261    554.010    473.261    482.117    473.261
 52.870    606.000    587.927     18.073    473.250    579.144    473.250    482.038    473.250
 52.970    633.898    627.610      6.288    473.240    618.874    473.240    481.982    473.240
 53.070    673.000    686.686    -13.686    473.232    677.977    473.232    481.949    473.232
 53.170    809.617    768.001     41.616    473.226    759.301    473.226    481.936    473.226
 53.270    861.801    869.861     -8.061    473.222    861.155    473.222    481.943    473.222
 53.370    975.000    983.290     -8.290    473.218    974.563    473.218    481.971    473.218
 53.470   1099.000   1089.929      9.071    473.217   1081.166    473.217    482.017    473.217
 53.570   1221.000   1163.231     57.769    473.217   1154.417    473.217    482.083    473.217
 53.670   1203.000   1178.421     24.579    473.218   1169.536    473.218    482.168    473.218
 53.770   1132.000   1129.474      2.526    473.221   1120.493    473.221    482.271    473.221
 53.870   1013.000   1034.616    -21.616    473.226   1025.513    473.226    482.394    473.226
 53.970    933.000    921.925     11.075    473.232    912.677    473.232    482.536    473.232
 54.070    831.000    814.106     16.894    473.239    804.692    473.239    482.697    473.239
 54.170    743.000    724.089     18.911    473.248    714.492    473.248    482.878    473.248
 54.270    661.000    656.410      4.590    473.259    646.613    473.259    483.079    473.259
 54.370    562.761    609.848    -47.087    473.270    599.834    473.270    483.302    473.270
 54.470    570.000    580.158    -10.158    473.284    569.907    473.284    483.547    473.284
 54.570    639.000    562.367     76.633    473.298    551.861    473.298    483.814    473.298
 54.670    524.000    552.215    -28.215    473.315    541.432    473.315    484.106    473.315
 54.770    541.000    546.680     -5.680    473.332    535.596    473.332    484.423    473.332
 54.870    546.423    543.908      2.515    473.351    532.499    473.351    484.767    473.351
 54.970    562.000    542.886     19.114    473.371    531.124    473.371    485.140    473.371
 55.070    543.000    543.116     -0.116    473.393    530.973    473.393    485.543    473.393
 55.170    584.000    544.382     39.618    473.416    531.826    473.416    485.979    473.416
 55.270    509.182    546.621    -37.440    473.441    533.619    473.441    486.449    473.441
 55.370    509.246    549.867    -40.620    473.466    536.382    473.466    486.958    473.466
 55.470    586.000    554.240     31.760    473.494    540.233    473.494    487.507    473.494
 55.570    534.000    559.993    -25.993    473.522    545.422    473.522    488.100    473.522
 55.670    577.000    567.628      9.372    473.552    552.445    473.552    488.741    473.552
 55.770    557.000    578.145    -21.145    473.583    562.301    473.583    489.434    473.583
 55.870    620.000    593.521     26.479    473.615    576.960    473.615    490.184    473.615
 55.970    602.000    617.441    -15.441    473.649    600.102    473.649    490.994    473.649
 56.070    632.000    656.225    -24.225    473.684    638.041    473.684    491.872    473.684
 56.170    718.000    719.542     -1.542    473.720    700.440    473.720    492.822    473.720
 56.270    736.000    820.183    -84.183    473.757    800.085    473.757    493.852    473.757
 56.370    952.000    971.963    -19.963    473.796    950.785    473.796    494.968    473.796
 56.470   1079.000   1185.211   -106.211    473.836   1162.864    473.836    496.178    473.836
 56.570   1420.000   1460.323    -40.323    473.877   1436.716    473.877    497.489    473.877
 56.670   1720.000   1780.974    -60.974    473.919   1756.012    473.919    498.911    473.919
 56.770   2142.456   2108.873     33.583    473.962   2082.457    473.962    500.453    473.962
 56.870   2304.218   2383.093    -78.875    474.007   2355.115    474.007    502.124    474.007
 56.970   2444.023   2532.615    -88.592    474.053   2502.952    474.053    503.934    474.053
 57.070   2448.000   2510.170    -62.170    474.100   2478.665    474.100    505.893    474.100
 57.170   2395.000   2324.803     70.197    474.148   2291.265    474.148    508.011    474.148
 57.270   2002.000   2034.522    -32.522    474.197   1998.742    474.197    510.298    474.197
 57.370   1682.000   1709.524    -27.524    474.247   1671.295    474.247    512.762    474.247
 57.470   1445.446   1404.782     40.664    474.299   1363.903    474.299    515.410    474.299
 57.570   1173.000   1152.268     20.732    474.351   1108.547    474.351    518.248    474.351
 57.670    979.000    963.277     15.723    474.405    916.531    474.405    521.278    474.405
 57.770    806.000    834.374    -28.374    474.459    784.425    474.459    524.496    474.459
 57.870    767.153    754.419     12.734    474.515    701.098    474.515    527.894    474.515
 57.970    762.451    710.753     51.698    474.572    653.909    474.572    531.455    474.572
 58.070    707.000    693.184     13.816    474.630    632.688    474.630    535.151    474.630
 58.170    670.000    695.500    -25.500    474.688    631.260    474.688    538.943    474.688
 58.270    721.000    715.094      5.906    474.748    647.072    474.748    542.776    474.748
 58.370    739.941    751.524    -11.583    474.809    679.750    474.809    546.580    474.809
 58.470    767.000    804.695    -37.695    474.871    729.286    474.871    550.270    474.871
 58.570    865.000    873.145     -8.145    474.933    794.320    474.933    553.744    474.933
 58.670    956.385    952.740      3.645    474.997    870.831    474.997    556.892    474.997
 58.770    994.000   1036.301    -42.301    475.062    951.756    475.062    559.599    475.062
 58.870   1113.000   1115.015     -2.015    475.127   1028.390    475.127    561.755    475.127
 58.970   1076.000   1181.074   -105.074    475.194   1093.021    475.194    563.265    475.194
 59.070   1335.000   1228.519    106.481    475.261   1139.755    475.261    564.059    475.261
 59.170   1265.000   1252.063     12.937    475.329   1163.339    475.329    564.102    475.329
 59.270   1263.000   1248.698     14.302    475.398   1160.758    475.398    563.396    475.398
 59.370   1288.322   1222.285     66.037    475.468   1135.829    475.468    561.981    475.468
 59.470   1148.859   1184.267    -35.408    475.539   1099.919    475.539    559.930    475.539
 59.570   1233.000   1148.505     84.495    475.611   1066.793    475.611    557.339    475.611
 59.670   1137.000   1126.729     10.271    475.683   1048.073    475.683    554.320    475.683
 59.770   1078.831   1128.221    -49.390    475.756   1052.929    475.756    550.988    475.756
 59.870   1176.000   1160.129     15.871    475.831   1088.401    475.831    547.453    475.831
 59.970   1236.025   1224.660     11.365    475.905   1156.599    475.905    543.814    475.905
 60.070   1355.000   1315.062     39.938    475.981   1250.694    475.981    540.156    475.981
 60.170   1367.000   1413.815    -46.815    476.057   1353.104    476.057    536.547    476.057
 60.270   1533.000   1494.212     38.788    476.135   1437.078    476.135    533.040    476.135
 60.370   1517.173   1527.119     -9.946    476.212   1473.449    476.212    529.672    476.212
 60.470   1572.000   1494.146     77.854    476.291   1443.798    476.291    526.471    476.291
 60.570   1352.344   1398.561    -46.217    476.370   1351.361    476.370    523.453    476.370
 60.670   1257.955   1261.965     -4.009    476.450   1217.719    476.450    520.624    476.450
 60.770   1146.000   1111.397     34.603    476.531   1069.903    476.531    517.989    476.531
 60.870    957.000    969.390    -12.390    476.612    930.447    476.612    515.543    476.612
 60.970    814.000    850.318    -36.318    476.694    813.730    476.694    513.281    476.694
 61.070    799.228    760.532     38.696    476.777    726.116    476.777    511.195    476.777
 61.170    753.000    700.390     52.610    476.860    667.975    476.860    509.275    476.860
 61.270    676.251    667.165      9.086    476.944    636.592    476.944    507.512    476.944
 61.370    647.423    657.834    -10.411    477.028    628.955    477.028    505.893    477.028
 61.470    674.000    670.908      3.092    477.113    643.589    477.113    504.408    477.113
 61.570    706.000    706.874     -0.874    477.199    680.987    477.199    503.045    477.199
 61.670    746.000    767.268    -21.268    477.285    742.700    477.285    501.794    477.285
 61.770    887.161    852.761     34.400    477.372    829.408    477.372    500.645    477.372
 61.870    903.000    960.729    -57.729    477.459    938.500    477.459    499.587    477.459
 61.970   1091.185   1083.198      7.987    477.547   1062.014    477.547    498.613    477.547
 62.070   1202.311   1205.595     -3.283    477.635   1185.390    477.635    497.713    477.635
 62.170   1371.787   1307.168     64.619    477.724   1287.890    477.724    496.881    477.724
 62.270   1396.000   1364.990     31.010    477.813   1346.593    477.813    496.110    477.813
 62.370   1342.000   1363.026    -21.026    477.902   1345.465    477.902    495.396    477.902
 62.470   1307.000   1301.327      5.673    477.992   1284.552    477.992    494.733    477.992
 62.570   1230.069   1195.966     34.103    478.083   1179.923    478.083    494.119    478.083
 62.670   1079.000   1069.785      9.215    478.174   1054.421    478.174    493.548    478.174
 62.770    924.000    943.349    -19.349    478.265    928.614    478.265    493.020    478.265
 62.870    801.790    830.926    -29.136    478.357    816.773    478.357    492.530    478.357
 62.970    708.000    739.969    -31.969    478.449    726.360    478.449    492.078    478.449
 63.070    642.000    672.170    -30.170    478.541    659.067    478.541    491.659    478.541
 63.170    658.000    625.258     32.742    478.634    612.628    478.634    491.273    478.634
 63.270    609.000    595.013     13.987    478.727    582.828    478.727    490.918    478.727
 63.370    553.599    576.960    -23.361    478.821    565.192    478.821    490.591    478.821
 63.470    567.000    567.451     -0.451    478.914    556.074    478.914    490.291    478.914
 63.570    562.000    564.144     -2.144    479.009    553.132    479.009    490.017    479.009
 63.670    526.000    566.057    -40.057    479.103    555.387    479.103    489.766    479.103
 63.770    604.000    573.406     30.594    479.197    563.056    479.197    489.537    479.197
 63.870    567.000    587.331    -20.331    479.292    577.277    479.292    489.329    479.292
 63.970    575.551    609.516    -33.965    479.387    599.737    479.387    489.141    479.387
 64.070    672.000    641.687     30.313    479.483    632.162    479.483    488.971    479.483
 64.170    741.000    684.948     56.052    479.578    675.658    479.578    488.819    479.578
 64.270    749.000    739.022      9.978    479.674    729.949    479.674    488.682    479.674
 64.370    844.148    801.496     42.652    479.770    792.625    479.770    488.561    479.770
 64.470    832.000    867.220    -35.220    479.866    858.541    479.866    488.455    479.866
 64.570    959.000    928.177     30.823    479.962    919.682    479.962    488.362    479.962
 64.670    968.767    974.592     -5.825    480.058    966.276    480.058    488.281    480.058
 64.770    987.000    997.924    -10.924    480.154    989.784    480.154    488.213    480.154
 64.870    994.000    994.424     -0.424    480.251    986.455    480.251    488.157    480.251
 64.970   1017.980    966.432     51.548    480.348    958.628    480.348    488.111    480.348
 65.070    895.000    920.815    -25.815    480.444    913.164    480.444    488.076    480.444
 65.170    829.871    866.270    -36.399    480.541    858.761    480.541    488.051    480.541
 65.270    804.000    810.707     -6.707    480.638    803.326    480.638    488.035    480.638
 65.370    778.000    759.489     18.511    480.735    752.223    480.735    488.029    480.735
 65.470    716.568    715.063      1.505    480.832    707.899    480.832    488.031    480.832
 65.570    723.335    677.737     45.598    480.928    670.661    480.928    488.041    480.928
 65.670    604.000    646.903    -42.903    481.025    639.904    481.025    488.060    481.025
 65.770    605.309    621.882    -16.573    481.122    614.949    481.122    488.086    481.122
 65.870    588.000    602.074    -14.074    481.219    595.198    481.219    488.120    481.219
 65.970    598.000    586.860     11.140    481.316    580.034    481.316    488.161    481.316
 66.070    533.817    575.599    -41.782    481.412    568.816    481.412    488.210    481.412
 66.170    531.381    567.699    -36.317    481.509    560.953    481.509    488.265    481.509
 66.270    550.000    562.651    -12.651    481.606    555.937    481.606    488.328    481.606
 66.370    569.000    560.047      8.953    481.702    553.359    481.702    488.397    481.702
 66.470    532.000    559.584    -27.584    481.798    552.915    481.798    488.474    481.798
 66.570    539.000    561.096    -22.096    481.894    554.441    481.894    488.556    481.894
 66.670    611.000    564.639     46.361    481.991    557.990    481.991    488.646    481.991
 66.770    553.911    570.616    -16.705    482.086    563.967    482.086    488.742    482.086
 66.870    564.000    579.976    -15.976    482.182    573.320    482.182    488.846    482.182
 66.970    578.000    594.480    -16.480    482.278    587.810    482.278    488.956    482.278
 67.070    588.255    617.031    -28.775    482.373    610.338    482.373    489.073    482.373
 67.170    670.000    651.958     18.042    482.468    645.236    482.468    489.196    482.468
 67.270    677.000    705.110    -28.110    482.563    698.352    482.563    489.327    482.563
 67.370    769.000    783.511    -14.511    482.657    776.709    482.657    489.466    482.657
 67.470    904.552    894.355     10.197    482.752    887.507    482.752    489.612    482.752
 67.570   1019.397   1043.267    -23.871    482.846   1036.371    482.846    489.766    482.846
 67.670   1220.565   1231.988    -11.422    482.940   1225.044    482.940    489.928    482.940
 67.770   1479.000   1455.912     23.088    483.033   1448.925    483.033    490.098    483.033
 67.870   1641.593   1702.031    -60.438    483.126   1695.007    483.126    490.277    483.126
 67.970   2000.025   1947.717     52.309    483.219   1940.662    483.219    490.465    483.219
 68.070   2139.318   2161.080    -21.762    483.312   2153.995    483.312    490.663    483.312
 68.170   2360.000   2305.057     54.943    483.404   2297.933    483.404    490.871    483.404
 68.270   2369.000   2348.279     20.721    483.496   2341.092    483.496    491.089    483.496
 68.370   2329.000   2280.053     48.947    483.587   2272.762    483.587    491.320    483.587
 68.470   2166.309   2116.846     49.463    483.678   2109.402    483.678    491.562    483.678
 68.570   1973.000   1892.851     80.149    483.769   1885.210    483.769    491.817    483.769
 68.670   1704.000   1644.820     59.180    483.859   1636.948    483.859    492.086    483.859
 68.770   1333.844   1402.707    -68.863    483.949   1394.578    483.949    492.371    483.949
 68.870   1164.774   1186.816    -22.041    484.038   1178.413    484.038    492.671    484.038
 68.970    946.000   1008.002    -62.002    484.127    999.313    484.127    492.989    484.127
 69.070    842.000    869.142    -27.142    484.215    860.158    484.215    493.326    484.215
 69.170    766.000    767.329     -1.329    484.303    758.038    484.303    493.684    484.303
 69.270    704.000    696.345      7.655    484.390    686.734    484.390    494.065    484.390
 69.370    678.000    648.876     29.124    484.477    638.928    484.477    494.470    484.477
 69.470    665.000    618.085     46.915    484.563    607.778    484.563    494.903    484.563
 69.570    608.000    598.440      9.560    484.649    587.747    484.649    495.367    484.649
 69.670    608.740    585.925     22.815    484.734    574.816    484.734    495.863    484.734
 69.770    538.850    577.875    -39.025    484.819    566.313    484.819    496.397    484.819
 69.870    567.822    572.646     -4.825    484.903    560.591    484.903    496.972    484.903
 69.970    579.064    569.289      9.775    484.986    556.696    484.986    497.592    484.986
 70.070    603.000    567.286     35.714    485.069    554.103    485.069    498.262    485.069
 70.170    524.553    566.375    -41.822    485.151    552.546    485.151    498.989    485.151
 70.270    560.000    566.449     -6.449    485.233    551.912    485.233    499.778    485.233
 70.370    559.000    567.516     -8.516    485.314    552.201    485.314    500.636    485.314
 70.470    586.000    569.698     16.302    485.394    553.528    485.394    501.571    485.394
 70.570    577.000    573.275      3.725    485.474    556.164    485.474    502.590    485.474
 70.670    577.000    578.766     -1.766    485.552    560.620    485.552    503.702    485.552
 70.770    557.949    587.061    -29.112    485.631    567.776    485.631    504.917    485.631
 70.870    605.714    599.578      6.137    485.708    579.040    485.708    506.245    485.708
 70.970    662.729    618.429     44.300    485.785    596.513    485.785    507.695    485.785
 71.070    637.000    646.535     -9.535    485.861    623.105    485.861    509.279    485.861
 71.170    638.000    687.588    -49.588    485.936    662.496    485.936    511.008    485.936
 71.270    765.873    745.763     20.110    486.010    718.851    486.010    512.891    486.010
 71.370    824.000    825.097     -1.097    486.084    796.196    486.084    514.939    486.084
 71.470    956.000    928.530     27.470    486.157    897.464    486.157    517.162    486.157
 71.570   1046.000   1056.709    -10.709    486.229   1023.293    486.229    519.566    486.229
 71.670   1214.394   1206.769      7.625    486.300   1170.817    486.300    522.155    486.300
 71.770   1401.790   1371.313     30.477    486.370   1332.643    486.370    524.932    486.370
 71.870   1477.335   1537.781    -60.446    486.440   1496.214    486.440    527.891    486.440
 71.970   1670.931   1688.473    -17.542    486.509   1643.848    486.509    531.021    486.509
 72.070   1832.000   1802.188     29.812    486.577   1754.368    486.577    534.300    486.577
 72.170   1828.000   1858.981    -30.981    486.643   1807.861    486.643    537.695    486.643
 72.270   1905.075   1847.718     57.356    486.709   1793.236    486.709    541.157    486.709
 72.370   1801.000   1771.513     29.487    486.775   1713.667    486.775    544.621    486.775
 72.470   1610.953   1645.981    -35.027    486.839   1584.847    486.839    548.000    486.839
 72.570   1462.000   1492.144    -30.144    486.902   1427.900    486.902    551.192    486.902
 72.670   1344.488   1329.883     14.605    486.964   1262.826    486.964    554.078    486.964
 72.770   1149.000   1174.666    -25.666    487.026   1105.219    487.026    556.531    487.026
 72.870   1080.000   1036.723     43.277    487.086    965.437    487.086    558.428    487.086
 72.970    925.000    921.355      3.645    487.146    848.885    487.146    559.666    487.146
 73.070    794.890    829.763    -34.873    487.204    756.839    487.204    560.171    487.204
 73.170    729.000    760.197    -31.197    487.261    687.581    487.261    559.914    487.261
 73.270    716.000    709.195      6.805    487.318    637.626    487.318    558.916    487.318
 73.370    694.000    672.681     21.319    487.373    602.839    487.373    557.240    487.373
 73.470    675.000    646.787     28.213    487.428    579.249    487.428    554.987    487.428
 73.570    615.000    628.302    -13.302    487.481    563.528    487.481    552.275    487.481
 73.670    574.515    614.840    -40.325    487.533    553.161    487.533    549.231    487.533
 73.770    588.891    604.780    -15.889    487.584    546.406    487.584    545.977    487.584
 73.870    608.000    597.109     10.891    487.634    542.144    487.634    542.619    487.634
 73.970    605.000    591.239     13.761    487.683    539.697    487.683    539.246    487.683
 74.070    581.000    586.828     -5.828    487.731    538.655    487.731    535.929    487.731
 74.170    564.000    583.653    -19.653    487.778    538.741    487.778    532.718    487.778
 74.270    647.000    581.510     65.490    487.823    539.716    487.823    529.650    487.823
 74.370    579.000    580.155     -1.155    487.868    541.311    487.868    526.749    487.868
 74.470    583.000    579.268      3.732    487.911    543.193    487.911    524.029    487.911
 74.570    575.373    578.444     -3.072    487.953    544.952    487.953    521.494    487.953
 74.670    628.000    577.226     50.774    487.994    546.126    487.994    519.145    487.994
 74.770    617.000    575.194     41.806    488.034    546.303    488.034    516.978    488.034
 74.870    575.000    572.118      2.882    488.072    545.258    488.072    514.986    488.072
 74.970    621.000    568.075     52.925    488.110    543.075    488.110    513.160    488.110
 75.070    600.000    563.408     36.592    488.146    540.109    488.146    511.490    488.146
 75.170    564.988    558.610      6.378    488.181    536.864    488.181    509.966    488.181
 75.270    611.000    554.212     56.788    488.214    533.881    488.214    508.577    488.214
 75.370    577.000    550.727     26.273    488.247    531.686    488.247    507.312    488.247
 75.470    560.112    548.651     11.461    488.278    530.786    488.278    506.161    488.278
 75.570    537.000    548.467    -11.467    488.308    531.673    488.308    505.114    488.308
 75.670    551.477    550.648      0.829    488.336    534.829    488.336    504.160    488.336
 75.770    554.000    555.635     -1.635    488.363    540.705    488.363    503.292    488.363
 75.870    597.000    563.790     33.210    488.389    549.670    488.389    502.501    488.389
 75.970    536.000    575.320    -39.320    488.414    561.939    488.414    501.779    488.414
 76.070    555.326    590.171    -34.845    488.437    577.466    488.437    501.120    488.437
 76.170    585.000    607.932    -22.932    488.459    595.845    488.459    500.516    488.459
 76.270    672.000    627.735     44.265    488.480    616.215    488.480    499.963    488.480
 76.370    670.000    648.202     21.798    488.499    637.204    488.499    499.455    488.499
 76.470    646.000    667.430    -21.430    488.517    656.912    488.517    498.988    488.517
 76.570    660.032    683.097    -23.065    488.534    673.025    488.534    498.556    488.534
 76.670    720.968    692.806     28.163    488.549    683.148    488.549    498.158    488.549
 76.770    736.069    694.743     41.327    488.563    685.471    488.563    497.788    488.563
 76.870    694.000    688.400      5.600    488.575    679.489    488.575    497.445    488.575
 76.970    704.000    674.819     29.181    488.586    666.244    488.586    497.126    488.586
 77.070    650.000    656.111     -6.111    488.595    647.850    488.595    496.828    488.595
 77.170    665.177    634.694     30.483    488.604    626.726    488.604    496.550    488.604
 77.270    617.000    612.727      4.273    488.610    605.032    488.610    496.289    488.610
 77.370    607.410    591.873     15.537    488.615    584.432    488.615    496.044    488.615
 77.470    544.000    573.248    -29.248    488.619    566.046    488.619    495.813    488.619
 77.570    517.997    557.461    -39.464    488.621    550.481    488.621    495.596    488.621
 77.670    536.492    544.684     -8.192    488.622    537.912    488.622    495.391    488.622
 77.770    542.436    534.761      7.675    488.621    528.184    488.621    495.197    488.621
 77.870    496.000    527.327    -31.327    488.619    520.933    488.619    495.013    488.619
 77.970    474.000    521.922    -47.922    488.616    515.699    488.616    494.838    488.616
 78.070    525.000    518.075      6.925    488.610    512.014    488.610    494.671    488.610
 78.170    494.000    515.370    -21.370    488.604    509.461    488.604    494.513    488.604
 78.270    530.689    513.469     17.221    488.595    507.703    488.595    494.361    488.595
 78.370    553.649    512.118     41.531    488.586    506.488    488.586    494.216    488.586
 78.470    530.241    511.143     19.098    488.574    505.640    488.574    494.078    488.574
 78.570    514.000    510.428      3.572    488.561    505.046    488.561    493.945    488.561
 78.670    474.166    509.904    -35.738    488.547    504.635    488.547    493.817    488.547
 78.770    493.000    509.533    -16.533    488.531    504.371    488.531    493.694    488.531
 78.870    477.000    509.300    -32.300    488.513    504.239    488.513    493.575    488.513
 78.970    486.000    509.206    -23.206    488.494    504.240    488.494    493.460    488.494
 79.070    511.000    509.261      1.739    488.473    504.386    488.473    493.349    488.473
 79.170    495.925    509.487    -13.562    488.451    504.697    488.451    493.242    488.451
 79.270    494.000    509.911    -15.911    488.427    505.201    488.427    493.137    488.427
 79.370    456.000    510.568    -54.568    488.401    505.933    488.401    493.036    488.401
 79.470    507.008    511.497     -4.488    488.374    506.933    488.374    492.937    488.374
 79.570    510.259    512.747     -2.488    488.345    508.251    488.345    492.841    488.345
 79.670    520.000    514.383      5.617    488.315    509.949    488.315    492.747    488.315
 79.770    507.802    516.486     -8.684    488.283    512.112    488.283    492.654    488.283
 79.870    511.000    519.170     -8.170    488.249    514.853    488.249    492.564    488.249
 79.970    488.269    522.566    -34.297    488.213    518.302    488.213    492.474    488.213
 80.070    468.000    526.903    -58.903    488.176    522.690    488.176    492.386    488.176
 80.170    559.000    532.451     26.549    488.137    528.287    488.137    492.299    488.137
 80.270    519.428    539.505    -20.077    488.097    535.388    488.097    492.212    488.097
 80.370    568.099    548.422     19.677    488.055    544.351    488.055    492.126    488.055
 80.470    565.078    559.565      5.513    488.011    555.539    488.011    492.040    488.011
 80.570    593.991    573.210     20.781    487.966    569.228    487.966    491.953    487.966
 80.670    549.919    589.447    -39.528    487.918    585.508    487.918    491.867    487.918
 80.770    564.000    608.086    -44.086    487.869    604.192    487.869    491.779    487.869
 80.870    628.000    628.604     -0.604    487.819    624.753    487.819    491.691    487.819
 80.970    652.000    650.132      1.868    487.766    646.324    487.766    491.602    487.766
 81.070    707.603    671.517     36.086    487.712    667.752    487.712    491.511    487.712
 81.170    671.465    691.474    -20.009    487.657    687.752    487.657    491.420    487.657
 81.270    712.023    708.775      3.247    487.599    705.095    487.599    491.328    487.599
 81.370    696.000    722.395    -26.395    487.540    718.755    487.540    491.234    487.540
 81.470    745.308    731.587     13.721    487.479    727.987    487.479    491.140    487.479
 81.570    706.000    735.933    -29.933    487.416    732.372    487.416    491.045    487.416
 81.670    752.000    735.362     16.638    487.351    731.837    487.351    490.949    487.351
 81.770    695.000    730.091    -35.091    487.285    726.600    487.285    490.852    487.285
 81.870    731.585    720.560     11.024    487.217    717.101    487.217    490.754    487.217
 81.970    742.335    707.449     34.886    487.147    704.018    487.147    490.656    487.147
 82.070    682.000    691.688     -9.688    487.076    688.283    487.076    490.558    487.076
 82.170    740.000    674.360     65.640    487.002    670.978    487.002    490.459    487.002
 82.270    652.000    656.474     -4.474    486.927    653.113    486.927    490.359    486.927
 82.370    669.000    638.788     30.212    486.850    635.446    486.850    490.260    486.850
 82.470    593.000    621.775    -28.775    486.771    618.449    486.771    490.159    486.771
 82.570    609.000    605.715      3.285    486.691    602.404    486.691    490.059    486.691
 82.670    595.414    590.832      4.582    486.608    587.533    486.608    489.958    486.608
 82.770    597.000    577.369     19.631    486.524    574.080    486.524    489.856    486.524
 82.870    547.247    565.573    -18.326    486.438    562.292    486.438    489.754    486.438
 82.970    585.911    555.662     30.250    486.350    552.388    486.350    489.652    486.350
 83.070    524.194    547.795    -23.601    486.261    544.527    486.261    489.549    486.261
 83.170    573.224    542.060     31.164    486.169    538.796    486.169    489.446    486.169
 83.270    558.000    538.468     19.532    486.076    535.206    486.076    489.342    486.076
 83.370    517.000    536.943    -19.943    485.981    533.683    485.981    489.238    485.981
 83.470    578.755    537.316     41.440    485.884    534.056    485.884    489.133    485.884
 83.570    583.387    539.316     44.071    485.786    536.056    485.786    489.027    485.786
 83.670    520.000    542.571    -22.571    485.685    539.309    485.685    488.921    485.685
 83.770    532.000    546.610    -14.610    485.583    543.346    485.583    488.814    485.583
 83.870    551.000    550.878      0.122    485.479    547.612    485.479    488.706    485.479
 83.970    597.301    554.767     42.534    485.373    551.498    485.373    488.598    485.373
 84.070    554.000    557.662     -3.662    485.265    554.392    485.265    488.489    485.265
 84.170    543.979    559.036    -15.058    485.155    555.766    485.155    488.379    485.155
 84.270    539.847    558.560    -18.713    485.043    555.290    485.043    488.268    485.043
 84.370    551.943    556.187     -4.244    484.930    552.917    484.930    488.157    484.930
 84.470    552.000    552.154     -0.154    484.815    548.885    484.815    488.045    484.815
 84.570    567.000    546.887     20.113    484.698    543.619    484.698    487.932    484.698
 84.670    570.000    540.887     29.113    484.579    537.619    484.579    487.818    484.579
 84.770    530.804    534.634     -3.830    484.458    531.364    484.458    487.704    484.458
 84.870    525.311    528.534     -3.223    484.335    525.261    484.335    487.589    484.335
 84.970    538.000    522.896     15.104    484.211    519.619    484.211    487.473    484.211
 85.070    488.000    517.928    -29.928    484.084    514.645    484.084    487.356    484.084
 85.170    494.000    513.741    -19.741    483.956    510.450    483.956    487.238    483.956
 85.270    530.327    510.362     19.965    483.826    507.061    483.826    487.119    483.826
 85.370    541.186    507.757     33.429    483.694    504.445    483.694    487.000    483.694
 85.470    526.000    505.853     20.147    483.560    502.528    483.560    486.880    483.560
 85.570    514.000    504.561      9.439    483.425    501.221    483.425    486.759    483.425
 85.670    523.000    503.793     19.207    483.287    500.438    483.287    486.638    483.287
 85.770    470.000    503.482    -33.482    483.148    500.110    483.148    486.515    483.148
 85.870    507.000    503.587      3.413    483.007    500.196    483.007    486.392    483.007
 85.970    485.000    504.103    -19.103    482.863    500.691    482.863    486.268    482.863
 86.070    525.000    505.059     19.941    482.719    501.625    482.719    486.144    482.719
 86.170    546.439    506.523     39.915    482.572    503.066    482.572    486.019    482.572
 86.270    523.000    508.598     14.402    482.423    505.115    482.423    485.893    482.423
 86.370    535.209    511.410     23.799    482.273    507.899    482.273    485.767    482.273
 86.470    524.000    515.100      8.900    482.120    511.560    482.120    485.640    482.120
 86.570    564.239    519.810     44.429    481.966    516.237    481.966    485.512    481.966
 86.670    541.000    525.656     15.344    481.810    522.048    481.810    485.384    481.810
 86.770    549.000    532.707     16.293    481.652    529.062    481.652    485.256    481.652
 86.870    592.000    540.951     51.049    481.492    537.266    481.492    485.127    481.492
 86.970    572.000    550.272     21.728    481.331    546.545    481.331    484.998    481.331
 87.070    613.000    560.420     52.580    481.167    556.648    481.167    484.869    481.167
 87.170    580.000    570.999      9.001    481.002    567.182    481.002    484.739    481.002
 87.270    607.000    581.460     25.540    480.835    577.596    480.835    484.610    480.835
 87.370    599.224    591.112      8.113    480.666    587.201    480.666    484.480    480.666
 87.470    629.000    599.171     29.829    480.495    595.214    480.495    484.350    480.495
 87.570    579.764    604.861    -25.098    480.323    600.861    480.323    484.220    480.323
 87.670    625.000    607.590     17.410    480.148    603.546    480.148    484.091    480.148
 87.770    591.000    607.117    -16.117    479.972    603.031    479.972    483.961    479.972
 87.870    596.000    603.637     -7.637    479.794    599.511    479.794    483.833    479.794
 87.970    585.000    597.709    -12.709    479.614    593.542    479.614    483.704    479.614
 88.070    582.000    590.107     -8.107    479.432    585.898    479.432    483.576    479.432
 88.170    595.546    581.670     13.876    479.249    577.417    479.249    483.449    479.249
 88.270    590.000    573.210     16.790    479.064    568.910    479.064    483.323    479.064
 88.370    586.000    565.452     20.548    478.876    561.101    478.876    483.198    478.876
 88.470    553.000    558.989     -5.989    478.688    554.583    478.688    483.074    478.688
 88.570    565.000    554.256     10.744    478.497    549.792    478.497    482.952    478.497
 88.670    566.000    551.509     14.491    478.304    546.982    478.304    482.831    478.304
 88.770    559.000    550.825      8.175    478.110    546.231    478.110    482.712    478.110
 88.870    566.685    552.104     14.581    477.914    547.439    477.914    482.596    477.914
 88.970    557.000    555.087      1.913    477.716    550.347    477.716    482.481    477.716
 89.070    581.000    559.375     21.625    477.516    554.555    477.516    482.369    477.516
 89.170    557.120    564.448     -7.328    477.315    559.544    477.315    482.260    477.315
 89.270    530.511    569.696    -39.184    477.112    564.702    477.112    482.154    477.112
 89.370    581.032    574.455      6.578    476.907    569.365    476.907    482.051    476.907
 89.470    599.000    578.064     20.936    476.700    572.872    476.700    481.952    476.700
 89.570    585.000    579.955      5.045    476.492    574.654    476.492    481.857    476.492
 89.670    593.000    579.757     13.243    476.282    574.339    476.282    481.767    476.282
 89.770    525.000    577.379    -52.379    476.070    571.835    476.070    481.682    476.070
 89.870    548.000    573.015    -25.015    475.856    567.335    475.856    481.601    475.856
 89.970    601.117    567.073     34.044    475.641    561.249    475.641    481.527    475.641
 90.070    513.000    560.065    -47.065    475.424    554.087    475.424    481.459    475.424
 90.170    507.000    552.512    -45.512    475.205    546.371    475.205    481.397    475.205
 90.270    506.000    544.883    -38.883    474.985    538.570    474.985    481.342    474.985
 90.370    523.680    537.564    -13.884    474.763    531.069    474.763    481.295    474.763
 90.470    523.151    530.847     -7.696    474.539    524.161    474.539    481.256    474.539
 90.570    510.000    524.928    -14.928    474.314    518.041    474.314    481.225    474.314
 90.670    520.000    519.914      0.086    474.086    512.817    474.086    481.204    474.086
 90.770    554.521    515.837     38.683    473.858    508.519    473.858    481.192    473.858
 90.870    485.000    512.669    -27.669    473.627    505.118    473.627    481.190    473.627
 90.970    500.000    510.342    -10.342    473.395    502.548    473.395    481.198    473.395
 91.070    467.993    508.772    -40.780    473.161    500.722    473.161    481.218    473.161
 91.170    498.000    507.871     -9.871    472.926    499.553    472.926    481.249    472.926
 91.270    502.000    507.565     -5.565    472.689    498.965    472.689    481.292    472.689
 91.370    527.326    507.798     19.528    472.450    498.904    472.450    481.346    472.450
 91.470    522.074    508.553     13.521    472.210    499.350    472.210    481.414    472.210
 91.570    532.000    509.878     22.122    471.968    500.352    471.968    481.494    471.968
 91.670    473.988    511.818    -37.830    471.725    501.955    471.725    481.586    471.725
 91.770    506.000    514.469     -8.469    471.480    504.254    471.480    481.691    471.480
 91.870    531.000    517.961     13.039    471.234    507.381    471.234    481.807    471.234
 91.970    529.000    522.452      6.548    470.986    511.494    470.986    481.936    470.986
 92.070    496.000    528.117    -32.117    470.736    516.767    470.736    482.075    470.736
 92.170    496.000    535.132    -39.132    470.485    523.379    470.485    482.223    470.485
 92.270    548.523    543.658      4.865    470.232    531.493    470.232    482.379    470.232
 92.370    507.000    553.825    -46.825    469.978    541.239    469.978    482.540    469.978
 92.470    583.000    565.709     17.291    469.722    552.698    469.722    482.705    469.722
 92.570    564.000    579.316    -15.316    469.465    565.877    469.465    482.871    469.465
 92.670    578.276    594.561    -16.286    469.207    580.697    469.207    483.032    469.207
 92.770    645.000    611.259     33.741    468.947    596.975    468.947    483.186    468.947
 92.870    628.000    629.111     -1.111    468.685    614.417    468.685    483.328    468.685
 92.970    695.000    647.703     47.297    468.422    632.616    468.422    483.453    468.422
 93.070    625.000    666.519    -41.519    468.158    651.062    468.158    483.556    468.158
 93.170    679.000    684.986     -5.986    467.892    669.185    467.892    483.631    467.892
 93.270    641.000    702.553    -61.553    467.625    686.442    467.625    483.672    467.625
 93.370    676.000    718.802    -42.802    467.356    702.419    467.356    483.675    467.356
 93.470    783.000    733.538     49.462    467.086    716.925    467.086    483.636    467.086
 93.570    759.000    746.805     12.195    466.815    730.007    466.815    483.550    466.815
 93.670    737.005    758.819    -21.814    466.542    741.885    466.542    483.416    466.542
 93.770    741.000    769.854    -28.854    466.268    752.832    466.268    483.232    466.268
 93.870    786.828    780.133      6.695    465.992    763.073    465.992    482.997    465.992
 93.970    790.000    789.813      0.187    465.716    772.761    465.716    482.714    465.716
 94.070    756.976    799.026    -42.050    465.438    782.029    465.438    482.385    465.438
 94.170    783.075    807.949    -24.874    465.158    791.048    465.158    482.013    465.158
 94.270    811.000    816.816     -5.816    464.878    800.047    464.878    481.604    464.878
 94.370    799.622    825.841    -26.219    464.596    809.235    464.596    481.162    464.596
 94.470    865.000    835.080     29.920    464.313    818.665    464.313    480.692    464.313
 94.570    886.192    844.312     41.881    464.029    828.106    464.029    480.202    464.029
 94.670    854.000    852.970      1.030    463.743    836.990    463.743    479.696    463.743
 94.770    878.000    860.168     17.832    463.456    844.423    463.456    479.179    463.456
 94.870    864.139    864.792     -0.653    463.168    849.287    463.168    478.658    463.168
 94.970    879.596    865.647     13.950    462.879    850.382    462.879    478.136    462.879
 95.070    894.855    861.814     33.041    462.589    846.786    462.589    477.617    462.589
 95.170    833.000    852.770    -19.770    462.298    837.969    462.298    477.106    462.298
 95.270    898.000    838.565     59.435    462.005    823.980    462.005    476.604    462.005
 95.370    885.000    819.902     65.098    461.712    805.517    461.712    476.115    461.712
 95.470    859.000    797.984     61.016    461.417    783.782    461.417    475.642    461.417
 95.570    810.000    774.325     35.675    461.121    760.286    461.121    475.184    461.121
 95.670    780.000    750.570     29.430    460.825    736.674    460.825    474.745    460.825
 95.770    688.298    728.348    -40.049    460.527    714.572    460.527    474.326    460.527
 95.870    700.000    709.208     -9.208    460.228    695.529    460.228    473.927    460.228
 95.970    699.182    694.573      4.609    459.928    680.968    459.928    473.549    459.928
 96.070    724.000    685.706     38.294    459.627    672.152    459.627    473.193    459.627
 96.170    720.000    683.696     36.304    459.326    670.167    459.326    472.859    459.326
 96.270    673.000    689.439    -16.439    459.023    675.910    459.023    472.549    459.023
 96.370    763.000    703.627     59.373    458.719    690.074    458.719    472.263    458.719
 96.470    710.741    726.732    -15.991    458.415    713.129    458.415    472.001    458.415
 96.570    751.000    758.973     -7.973    458.109    745.295    458.109    471.764    458.109
 96.670    819.000    800.275     18.725    457.803    786.496    457.803    471.553    457.803
 96.770    897.160    850.214     46.946    457.496    836.309    457.496    471.367    457.496
 96.870    866.000    907.955    -41.955    457.188    893.897    457.188    471.209    457.188
 96.970   1030.000    972.196     57.804    456.879    957.957    456.879    471.078    456.879
 97.070   1031.000   1041.122    -10.122    456.569   1026.677    456.569    470.975    456.569
 97.170   1105.885   1112.384     -6.499    456.259   1097.705    456.259    470.902    456.259
 97.270   1144.000   1183.104    -39.104    455.948   1168.163    455.948    470.859    455.948
 97.370   1230.000   1249.929    -19.929    455.636   1234.697    455.636    470.847    455.636
 97.470   1310.000   1309.170      0.830    455.323   1293.618    455.323    470.868    455.323
 97.570   1340.118   1357.082    -16.965    455.010   1341.178    455.010    470.923    455.010
 97.670   1390.597   1390.315      0.282    454.696   1374.026    454.696    471.012    454.696
 97.770   1400.782   1406.471     -5.689    454.382   1389.761    454.382    471.138    454.382
 97.870   1496.000   1404.587     91.413    454.067   1387.416    454.067    471.302    454.067
 97.970   1364.000   1385.322    -21.322    453.751   1367.648    453.751    471.504    453.751
 98.070   1379.000   1350.759     28.241    453.434   1332.538    453.434    471.748    453.434
 98.170   1263.000   1303.951    -40.951    453.117   1285.135    453.117    472.034    453.117
 98.270   1312.000   1248.421     63.579    452.800   1228.962    452.800    472.364    452.800
 98.370   1153.000   1187.772    -34.772    452.482   1167.620    452.482    472.740    452.482
 98.470   1123.000   1125.439     -2.439    452.164   1104.543    452.164    473.163    452.164
 98.570   1100.000   1064.533     35.467    451.845   1042.841    451.845    473.635    451.845
 98.670    988.000   1007.829    -19.829    451.525    985.289    451.525    474.157    451.525
 98.770    985.000    957.679     27.321    451.206    934.236    451.206    474.731    451.206
 98.870    930.502    916.036     14.465    450.885    891.637    450.885    475.358    450.885
 98.970    871.000    884.487    -13.487    450.565    859.077    450.565    476.038    450.565
 99.070    916.644    864.266     52.378    450.244    837.789    450.244    476.774    450.244
 99.170    853.000    856.276     -3.276    449.923    828.679    449.923    477.565    449.923
 99.270    816.142    861.114    -44.972    449.601    832.343    449.601    478.411    449.601
 99.370    836.502    879.096    -42.593    449.279    849.096    449.279    479.312    449.279
 99.470    901.000    910.260     -9.260    448.957    878.981    448.957    480.267    448.957
 99.570    942.000    954.371    -12.371    448.635    921.762    448.635    481.274    448.635
 99.670   1015.810   1010.890      4.920    448.313    976.905    448.313    482.330    448.313
 99.770   1082.509   1078.942      3.567    447.990   1043.539    447.990    483.430    447.990
 99.870   1138.000   1157.269    -19.269    447.667   1120.412    447.667    484.571    447.667
 99.970   1270.000   1244.180     25.820    447.345   1205.839    447.345    485.744    447.345
100.070   1405.747   1337.507     68.239    447.022   1297.662    447.022    486.942    447.022
100.170   1392.000   1434.592    -42.592    446.699   1393.231    446.699    488.154    446.699
100.270   1504.000   1532.320    -28.320    446.376   1489.445    446.376    489.368    446.376
100.370   1638.000   1627.246     10.754    446.053   1582.873    446.053    490.569    446.053
100.470   1703.000   1715.828    -12.828    445.730   1669.989    445.730    491.742    445.730
100.570   1862.000   1794.732     67.268    445.407   1747.475    445.407    492.867    445.407
100.670   1872.000   1861.115     10.885    445.084   1812.507    445.084    493.924    445.084
100.770   1967.000   1912.764     54.236    444.761   1862.894    444.761    494.893    444.761
100.870   1915.000   1948.064    -33.064    444.438   1897.040    444.438    495.750    444.438
100.970   1906.218   1965.880    -59.661    444.116   1913.831    444.116    496.475    444.116
101.070   1949.350   1965.510    -16.160    443.793   1912.586    443.793    497.046    443.793
101.170   1924.000   1946.859    -22.859    443.471   1893.226    443.471    497.444    443.471
101.270   1865.000   1910.700    -45.700    443.149   1856.541    443.149    497.654    443.149
101.370   1911.000   1858.932     52.068    442.828   1804.442    442.828    497.663    442.828
101.470   1768.000   1794.582    -26.582    442.507   1739.962    442.507    497.464    442.507
101.570   1731.000   1721.499      9.501    442.186   1666.954    442.186    497.056    442.186
101.670   1592.000   1643.856    -51.856    441.865   1589.590    441.865    496.441    441.865
101.770   1575.000   1565.644      9.356    441.545   1511.852    441.545    495.627    441.545
101.870   1456.000   1490.296    -34.296    441.225   1437.163    441.225    494.628    441.225
101.970   1438.481   1420.471     18.010    440.906   1368.167    440.906    493.459    440.906
102.070   1378.000   1357.981     20.019    440.587   1306.656    440.587    492.140    440.587
102.170   1301.000   1303.783     -2.783    440.269   1253.568    440.269    490.692    440.269
102.270   1292.000   1258.027     33.973    439.951   1209.032    439.951    489.137    439.951
102.370   1287.542   1220.134     67.408    439.634   1172.447    439.634    487.498    439.634
102.470   1122.086   1188.892    -66.806    439.318   1142.579    439.318    485.796    439.318
102.570   1176.000   1162.592     13.408    439.002   1117.701    439.002    484.050    439.002
102.670   1152.753   1139.203     13.551    438.687   1095.761    438.687    482.279    438.687
102.770   1114.000   1116.638     -2.638    438.372   1074.658    438.372    480.498    438.372
102.870   1090.565   1093.006     -2.441    438.059   1052.484    438.059    478.723    438.059
102.970   1094.838   1066.843     27.995    437.746   1027.764    437.746    476.965    437.746
103.070   1009.000   1037.314    -28.314    437.434    999.652    437.434    475.233    437.434
103.170   1007.332   1004.238      3.094    437.123    967.957    437.123    473.537    437.123
103.270    941.000    967.985    -26.985    436.813    933.043    436.813    471.882    436.813
103.370    890.000    929.304    -39.304    436.503    895.655    436.503    470.274    436.503
103.470    857.741    889.143    -31.402    436.195    856.736    436.195    468.717    436.195
103.570    857.000    848.504      8.496    435.887    817.285    435.887    467.213    435.887
103.670    781.000    808.346    -27.346    435.581    778.261    435.581    465.764    435.581
103.770    727.297    769.530    -42.232    435.276    740.524    435.276    464.370    435.276
103.870    760.406    732.781     27.625    434.972    704.798    434.972    463.034    434.972
103.970    721.000    698.668     22.332    434.669    671.654    434.669    461.753    434.669
104.070    669.000    667.595      1.405    434.367    641.496    434.367    460.528    434.367
104.170    664.000    639.805     24.195    434.066    614.567    434.066    459.358    434.066
104.270    620.000    615.384      4.616    433.767    590.955    433.767    458.241    433.767
104.370    609.000    594.288     14.712    433.469    570.619    433.469    457.177    433.469
104.470    587.000    576.366     10.634    433.172    553.408    433.172    456.163    433.172
104.570    556.000    561.387     -5.387    432.876    539.093    432.876    455.199    432.876
104.670    576.000    549.073     26.927    432.582    527.396    432.582    454.282    432.582
104.770    546.153    539.120      7.033    432.290    518.018    432.290    453.411    432.290
104.870    568.000    531.230     36.770    431.999    510.661    431.999    452.584    431.999
104.970    528.000    525.121      2.879    431.709    505.043    431.709    451.799    431.709
105.070    556.000    520.543     35.457    431.421    500.919    431.421    451.055    431.421
105.170    522.000    517.288      4.712    431.135    498.081    431.135    450.350    431.135
105.270    529.000    515.192     13.808    430.850    496.365    430.850    449.682    430.850
105.370    521.333    514.133      7.200    430.567    495.654    430.567    449.050    430.567
105.470    529.000    514.035     14.965    430.285    495.870    430.285    448.452    430.285
105.570    509.891    514.855     -4.964    430.006    496.974    430.006    447.886    430.006
105.670    531.000    516.587     14.413    429.728    498.960    429.728    447.352    429.728
105.770    545.000    519.248     25.752    429.452    501.847    429.452    446.848    429.452
105.870    530.746    522.876      7.870    429.178    505.674    429.178    446.373    429.178
105.970    572.000    527.519     44.481    428.906    510.490    428.906    445.925    428.906
106.070    512.747    533.225    -20.478    428.636    516.345    428.636    445.504    428.636
106.170    574.000    540.030     33.970    428.367    523.275    428.367    445.108    428.367
106.270    565.000    547.947     17.053    428.101    531.294    428.101    444.737    428.101
106.370    548.000    556.954     -8.954    427.837    540.382    427.837    444.390    427.837
106.470    581.000    566.988     14.012    427.575    550.475    427.575    444.065    427.575
106.570    568.514    577.933     -9.419    427.315    561.459    427.315    443.763    427.315
106.670    634.402    589.622     44.781    427.058    573.168    427.058    443.483    427.058
106.770    618.000    601.834     16.166    426.803    585.382    426.803    443.225    426.803
106.870    587.000    614.298    -27.298    426.550    597.829    426.550    442.987    426.550
106.970    663.000    626.696     36.304    426.299    610.192    426.299    442.770    426.299
107.070    618.000    638.672    -20.672    426.051    622.115    426.051    442.573    426.051
107.170    628.000    649.851    -21.851    425.805    633.225    425.805    442.397    425.805
107.270    662.000    659.861      2.139    425.562    643.149    425.562    442.241    425.562
107.370    661.000    668.371     -7.371    425.321    651.557    425.321    442.104    425.321
107.470    706.317    675.135     31.182    425.083    658.201    425.083    441.988    425.083
107.570    703.000    680.033     22.967    424.847    662.963    424.847    441.893    424.847
107.670    687.000    683.100      3.900    424.615    665.876    424.615    441.817    424.615
107.770    646.429    684.527    -38.099    424.384    667.131    424.384    441.763    424.384
107.870    662.000    684.630    -22.630    424.157    667.044    424.157    441.729    424.157
107.970    589.000    683.799    -94.799    423.933    666.005    423.933    441.717    423.933
108.070    654.000    682.455    -28.455    423.711    664.435    423.711    441.727    423.711
108.170    653.919    680.982    -27.063    423.492    662.714    423.492    441.759    423.492
108.270    635.000    679.700    -44.700    423.276    661.166    423.276    441.814    423.276
108.370    634.000    678.843    -44.843    423.063    660.021    423.063    441.893    423.063
108.470    676.526    678.541     -2.015    422.854    659.409    422.854    441.997    422.854
108.570    708.000    678.816     29.184    422.647    659.353    422.647    442.126    422.647
108.670    698.000    679.579     18.421    422.444    659.761    422.444    442.281    422.444
108.770    644.000    680.632    -36.632    422.243    660.435    422.243    442.464    422.243
108.870    685.188    681.692      3.496    422.046    661.090    422.046    442.675    422.046
108.970    671.000    682.410    -11.410    421.852    661.377    421.852    442.915    421.852
109.070    720.521    682.387     38.134    421.662    660.896    421.662    443.186    421.662
109.170    661.720    681.241    -19.521    421.475    659.263    421.475    443.489    421.475
109.270    693.389    678.654     14.734    421.291    656.158    421.291    443.826    421.291
109.370    675.000    674.423      0.577    421.111    651.377    421.111    444.197    421.111
109.470    661.658    668.485     -6.827    420.935    644.857    420.935    444.605    420.935
109.570    663.000    660.928      2.072    420.762    636.681    420.762    445.050    420.762
109.670    635.000    651.961    -16.961    420.593    627.060    420.593    445.536    420.593
109.770    648.000    641.881      6.119    420.427    616.285    420.427    446.062    420.427
109.870    648.641    631.025     17.617    420.266    604.696    420.266    446.633    420.266
109.970    620.000    619.742      0.258    420.108    592.638    420.108    447.248    420.108
110.070    592.000    608.366    -16.366    419.954    580.442    419.954    447.911    419.954
110.170    592.752    597.200     -4.448    419.804    568.412    419.804    448.623    419.804
110.270    599.842    586.509     13.334    419.658    556.807    419.658    449.387    419.658
110.370    572.000    576.511     -4.511    419.515    545.847    419.515    450.205    419.515
110.470    569.000    567.381      1.619    419.377    535.703    419.377    451.078    419.377
110.570    513.550    559.247    -45.697    419.244    526.500    419.244    452.010    419.244
110.670    551.000    552.193     -1.193    419.114    518.321    419.114    453.002    419.114
110.770    543.000    546.258     -3.258    418.989    511.203    418.989    454.058    418.989
110.870    508.599    541.449    -32.850    418.868    505.149    418.868    455.179    418.868
110.970    537.000    537.737     -0.737    418.751    500.130    418.751    456.368    418.751
111.070    497.000    535.070    -38.070    418.639    496.090    418.639    457.626    418.639
111.170    548.000    533.378     14.622    418.531    492.957    418.531    458.958    418.531
111.270    560.000    532.578     27.422    418.427    490.646    418.427    460.364    418.427
111.370    525.000    532.581     -7.581    418.329    489.066    418.329    461.847    418.329
111.470    562.000    533.298     28.702    418.235    488.125    418.235    463.409    418.235
111.570    515.000    534.640    -19.640    418.145    487.734    418.145    465.052    418.145
111.670    517.000    536.527    -19.527    418.061    487.810    418.061    466.778    418.061
111.770    561.298    538.884     22.413    417.981    488.277    417.981    468.588    417.981
111.870    541.439    541.648     -0.209    417.906    489.069    417.906    470.484    417.906
111.970    560.000    544.763     15.237    417.836    490.131    417.836    472.467    417.836
112.070    508.355    548.187    -39.832    417.772    491.419    417.772    474.537    417.772
112.170    610.000    551.886     58.114    417.712    492.901    417.712    476.694    417.712
112.270    559.000    555.842      3.158    417.657    494.558    417.657    478.939    417.657
112.370    493.000    560.046    -67.046    417.608    496.381    417.608    481.270    417.608
112.470    578.238    564.501     13.736    417.563    498.376    417.563    483.686    417.563
112.570    517.000    569.222    -52.222    417.524    500.560    417.524    486.184    417.524
112.670    500.000    574.234    -74.234    417.491    502.962    417.491    488.760    417.491
112.770    592.868    579.574     13.295    417.463    505.623    417.463    491.411    417.463
112.870    552.000    585.291    -33.291    417.440    508.599    417.440    494.130    417.440
112.970    555.000    591.451    -36.451    417.423    511.961    417.423    496.910    417.423
113.070    585.000    598.138    -13.138    417.411    515.804    417.411    499.743    417.411
113.170    556.000    605.462    -49.462    417.406    520.247    417.406    502.619    417.406
113.270    571.000    613.568    -42.568    417.406    525.446    417.406    505.524    417.406
113.370    615.000    622.642     -7.642    417.411    531.604    417.411    508.446    417.411
113.470    580.000    632.928    -52.928    417.423    538.978    417.423    511.367    417.423
113.570    584.000    644.736    -60.736    417.441    547.900    417.441    514.271    417.441
113.670    647.000    658.467    -11.467    417.464    558.787    417.464    517.136    417.464
113.770    656.359    674.625    -18.266    417.494    572.169    417.494    519.939    417.494
113.870    717.817    693.840     23.976    417.530    588.698    417.530    522.658    417.530
113.970    667.523    716.890    -49.366    417.572    609.177    417.572    525.266    417.572
114.070    739.836    744.706     -4.870    417.620    634.566    417.620    527.736    417.620
114.170    791.274    778.392     12.882    417.674    665.995    417.674    530.041    417.674
114.270    862.743    819.354     43.389    417.735    704.897    417.735    532.153    417.735
114.370    846.000    869.083    -23.083    417.803    752.791    417.803    534.046    417.803
114.470    895.000    929.306    -34.306    417.877    811.429    417.877    535.693    417.877
114.570    983.000   1001.938    -18.938    417.957    882.747    417.957    537.073    417.957
114.670   1051.329   1089.047    -37.718    418.044    968.835    418.044    538.164    418.044
114.770   1187.000   1192.803     -5.803    418.138   1071.877    418.138    538.952    418.138
114.870   1342.000   1315.408     26.592    418.239   1194.089    418.239    539.425    418.239
114.970   1436.651   1459.010    -22.359    418.347   1337.623    418.347    539.577    418.347
115.070   1670.112   1625.589     44.523    418.461   1504.462    418.461    539.407    418.461
115.170   1834.020   1816.833     17.187    418.583   1696.288    418.583    538.919    418.583
115.270   2112.000   2033.999     78.001    418.711   1914.351    418.711    538.124    418.711
115.370   2418.000   2277.768    140.232    418.847   2159.318    418.847    537.035    418.847
115.470   2591.000   2548.104     42.896    418.990   2431.135    418.990    535.672    418.990
115.570   2876.772   2844.115     32.657    419.141   2728.890    419.141    534.056    419.141
115.670   3192.000   3163.947     28.053    419.298   3050.704    419.298    532.212    419.298
115.770   3480.000   3504.689    -24.689    419.463   3393.643    419.463    530.167    419.463
115.870   3834.000   3862.328    -28.328    419.636   3753.666    419.636    527.949    419.636
115.970   4125.000   4231.731   -106.731    419.816   4125.615    419.816    525.585    419.816
116.070   4517.921   4606.677    -88.756    420.004   4503.243    420.004    523.102    420.004
116.170   5058.000   4979.931     78.069    420.200   4879.289    420.200    520.527    420.200
116.270   5303.000   5343.363    -40.363    420.403   5245.600    420.403    517.885    420.403
116.370   5698.000   5688.129      9.871    420.614   5593.310    420.614    515.198    420.614
116.470   6147.000   6004.920    142.080    420.834   5913.087    420.834    512.489    420.834
116.570   6225.000   6284.298    -59.298    421.061   6195.477    421.061    509.775    421.061
116.670   6571.605   6517.155     54.451    421.296   6431.350    421.296    507.074    421.296
116.770   6734.541   6695.268     39.274    421.540   6612.470    421.540    504.401    421.540
116.870   6812.729   6811.946      0.784    421.791   6732.128    421.791    501.769    421.791
116.970   6789.000   6862.647    -73.647    422.051   6785.768    422.051    499.189    422.051
117.070   6858.074   6845.459     12.615    422.320   6771.465    422.320    496.671    422.320
117.170   6750.000   6761.309    -11.309    422.597   6690.135    422.597    494.221    422.597
117.270   6608.776   6613.853     -5.077    422.882   6545.421    422.882    491.847    422.882
117.370   6355.000   6409.062    -54.062    423.176   6343.288    423.176    489.553    423.176
117.470   6059.000   6154.636    -95.636    423.479   6091.429    423.479    487.343    423.479
117.570   5869.000   5859.351      9.649    423.791   5798.617    423.791    485.221    423.791
117.670   5400.000   5532.470   -132.470    424.111   5474.113    424.111    483.187    424.111
117.770   5157.000   5183.253    -26.253    424.441   5127.176    424.441    481.245    424.441
117.870   4724.000   4820.581    -96.581    424.779   4766.687    424.779    479.394    424.779
117.970   4529.000   4452.684     76.316    425.126   4400.879    425.126    477.634    425.126
118.070   4119.698   4086.942     32.755    425.483   4037.133    425.483    475.965    425.483
118.170   3884.000   3729.757    154.243    425.849   3681.854    425.849    474.387    425.849
118.270   3359.691   3386.466    -26.775    426.224   3340.382    426.224    472.897    426.224
118.370   3112.000   3061.316     50.684    426.609   3016.969    426.609    471.496    426.609
118.470   2797.000   2757.482     39.518    427.003   2714.791    427.003    470.181    427.003
118.570   2374.000   2477.117   -103.117    427.407   2436.007    427.407    468.950    427.407
118.670   2188.000   2221.446    -33.446    427.820   2181.846    427.820    467.801    427.820
118.770   1947.181   1990.874    -43.693    428.244   1952.714    428.244    466.733    428.244
118.870   1716.080   1785.104    -69.024    428.677   1748.318    428.677    465.744    428.677
118.970   1607.000   1603.269      3.731    429.120   1567.795    429.120    464.831    429.120
119.070   1439.000   1444.057     -5.057    429.572   1409.836    429.572    463.991    429.572
119.170   1298.000   1305.832     -7.832    430.035   1272.807    430.035    463.223    430.035
119.270   1155.000   1186.754    -31.754    430.509   1154.870    430.509    462.525    430.509
119.370   1057.130   1084.875    -27.744    430.992   1054.080    430.992    461.893    430.992
119.470   1013.000    998.233     14.767    431.486    968.477    431.486    461.327    431.486
119.570    958.753    924.923     33.830    431.990    896.157    431.990    460.823    431.990
119.670    912.872    863.149     49.723    432.505    835.326    432.505    460.379    432.505
119.770    801.000    811.260    -10.260    433.030    784.336    433.030    459.994    433.030
119.870    739.586    767.776    -28.190    433.566    741.708    433.566    459.665    433.566
119.970    745.953    731.391     14.562    434.112    706.138    434.112    459.391    434.112
120.070    722.128    700.977     21.151    434.670    676.499    434.670    459.168    434.670
120.170    613.000    675.571    -62.571    435.238    651.830    435.238    458.996    435.238
120.270    609.376    654.361    -44.985    435.818    631.321    435.818    458.873    435.818
120.370    654.000    636.673     17.327    436.408    614.299    436.408    458.796    436.408
120.470    620.000    621.952     -1.952    437.010    600.210    437.010    458.765    437.010
120.570    616.000    609.742      6.258    437.623    588.601    437.623    458.776    437.623
120.670    607.000    599.676      7.324    438.247    579.105    438.247    458.830    438.247
120.770    583.993    591.452     -7.460    438.883    571.423    438.883    458.924    438.883
120.870    585.000    584.831      0.169    439.531    565.317    439.531    459.057    439.531
120.970    539.000    579.616    -40.616    440.190    560.590    440.190    459.228    440.190
121.070    577.000    575.648      1.352    440.861    557.087    440.861    459.434    440.861
121.170    592.637    572.796     19.840    441.543    554.677    441.543    459.676    441.543
121.270    600.093    570.953     29.140    442.238    553.253    442.238    459.952    442.238
121.370    573.349    570.025      3.324    442.944    552.725    442.944    460.261    442.944
121.470    567.000    569.930     -2.930    443.663    553.009    443.663    460.601    443.663
121.570    577.000    570.570      6.430    444.394    554.011    444.394    460.971    444.394
121.670    527.208    571.917    -44.709    445.137    555.703    445.137    461.372    445.137
121.770    567.000    573.902     -6.902    445.892    558.016    445.892    461.801    445.892
121.870    581.193    576.443      4.750    446.660    560.870    446.660    462.257    446.660
121.970    564.000    579.467    -15.467    447.441    564.195    447.441    462.740    447.441
122.070    626.230    582.900     43.330    448.234    567.914    448.234    463.250    448.234
122.170    564.000    586.660    -22.660    449.040    571.948    449.040    463.784    449.040
122.270    577.000    590.661    -13.661    449.859    576.212    449.859    464.342    449.859
122.370    571.858    594.810    -22.952    450.691    580.614    450.691    464.924    450.691
122.470    637.000    599.009     37.991    451.535    585.057    451.535    465.528    451.535
122.570    595.000    603.157     -8.157    452.393    589.440    452.393    466.154    452.393
122.670    595.000    607.147    -12.147    453.264    593.656    453.264    466.802    453.264
122.770    643.000    610.872     32.128    454.149    597.601    454.149    467.469    454.149
122.870    623.649    614.229      9.420    455.047    601.171    455.047    468.157    455.047
122.970    649.000    617.119     31.881    455.958    604.268    455.958    468.863    455.958
123.070    603.782    619.455    -15.674    456.883    606.806    456.883    469.588    456.883
123.170    571.192    621.168    -49.976    457.822    608.717    457.822    470.331    457.822
123.270    609.117    622.209    -13.092    458.775    609.952    458.775    471.091    458.775
123.370    634.000    622.551     11.449    459.741    610.484    459.741    471.867    459.741
123.470    624.000    622.193      1.807    460.722    610.314    460.722    472.661    460.722
123.570    627.000    621.157      5.843    461.716    609.462    461.716    473.470    461.716
123.670    638.583    619.483     19.099    462.725    607.972    462.725    474.295    462.725
123.770    619.000    617.228      1.772    463.748    605.898    463.748    475.135    463.748
123.870    623.000    614.457      8.543    464.786    603.307    464.786    475.991    464.786
123.970    642.000    611.244     30.756    465.838    600.273    465.838    476.862    465.838
124.070    589.170    607.665    -18.495    466.905    596.871    466.905    477.748    466.905
124.170    590.000    603.795    -13.795    467.986    593.178    467.986    478.650    467.986
124.270    627.244    599.708     27.536    469.083    589.268    469.083    479.567    469.083
124.370    646.000    595.476     50.524    470.194    585.211    470.194    480.499    470.194
124.470    631.957    591.163     40.794    471.320    581.073    471.320    481.447    471.320
124.570    562.716    586.829    -24.114    472.461    576.914    472.461    482.412    472.461
124.670    617.000    582.528     34.472    473.618    572.786    473.618    483.392    473.618
124.770    563.000    578.305    -15.305    474.790    568.735    474.790    484.388    474.790
124.870    554.000    574.199    -20.199    475.978    564.800    475.978    485.402    475.978
124.970    561.000    570.241     -9.241    477.181    561.011    477.181    486.432    477.181
